
##TITLE=Z408_2_e
##JCAMP-DX=5.01  $$ Nicolet v. 1
##DATATYPE=INFRARED SPECTRUM
##ORIGIN=UniL
##OWNER=Nicolet
##LONGDATE=2011/09/16
##TIME=10:31:20
##SPECTROMETER/DATA SYSTEM=Nicolet iS5
##DATA PROCESSING=
Ratio against background
%Transmittance->Absorbance
Truncated
ElementMultiply or ElementDivide
##COMMENTS=
Number of sample scans: 32
Collection length: 51.15 sec
Sample gain: 2.0
Background collected on: Ven Sep 16 10:15:44 2011 (GMT+02:00);
Number of background scans: 32
Background gain: 2.0
Sample spacing:  1.000
Number of scan points: 12415
Resolution points: 8192
Number of FFT points: 65536
Apodization: N-B fort;
Phase correction: Mertz;
Laser frequency: 15798.0 cm-1
Number of rejected sample scans: 0
Number of rejected background scans: 0
Bench serial number: ASB1000141;
##RESOLUTION=4.000
##XUNITS=1/CM
##YUNITS=ABSORBANCE
##FIRSTX=649.893372
##LASTX=4000.122314
##FIRSTY=0.082441
##MAXX=4000.122314
##MINX=649.893372
##MAXY=0.378496
##MINY=0.002589
##XFACTOR=1.000000
##YFACTOR=1.000000E-009
##NPOINTS=6950
##DELTAX=0.482117
##ZPD=6100
##XYDATA=(X++(Y..Y))
649.893 82440584 82812544 83301208 83951400 84765368 85706176 86713096 
653.268 87737040 88762104 89810944 90927392 92153344 93506808 94977176 
656.643 96540560 98183144 99917792 101785992 103841128 106119752 108631896 
660.018 111361224 114286248 117407664 120758760 124390824 128345920 
662.911 132619304 137149728 141829472 146554992 151259664 155908224 
665.803 160483936 164918256 169009968 172417600 174728528 175646272 
668.696 175151200 173467296 170902880 167695936 163982032 159827280 
671.589 155283920 150449120 145471024 140512384 135728560 131216136 
674.481 127007200 123094176 119456536 116085216 112988264 110178680 
677.374 107658872 105410576 103396784 101573648 99901320 98354240 96918128 
680.749 95581384 94327704 93133176 91970872 90822376 89685464 88577240 
684.124 87525736 86560808 85701120 84947888 84289776 83710872 83199272 
687.498 82751080 82367480 82045808 81770968 81512568 81226848 80864824 
690.873 80387976 79772840 79014864 78124960 77120992 76022104 74845120 
694.248 73607136 72328608 71033928 69751800 68509456 67326600 66214516 
697.623 65175144 64206132 63304432 62469220 61702636 61007136 60382536 
700.998 59824620 59324272 58870792 58453264 58062992 57694676 57345768 
704.373 57014704 56699748 56398308 56107740 55825320 55550352 55284172 
707.747 55029780 54791468 54574408 54382428 54219812 54091180 54002884 
711.122 53964876 53991628 54099476 54302780 54604992 54990328 55415864 
714.497 55817104 56111888 56216340 56070980 55650032 54975620 54111108 
717.872 53157304 52233540 51452824 50921196 50720320 50899696 51474424 
721.247 52411340 53625172 54964492 56232484 57214920 57703492 57560132 
724.621 56744980 55333172 53493496 51453088 49447316 47649620 46162504 
727.996 45006440 44141460 43496136 42996648 42590008 42243232 41941252 
731.371 41676972 41443804 41234216 41041960 40865408 40707992 40574132 
734.746 40465772 40377984 40299556 40217512 40123920 40019344 39913012 
738.121 39817892 39743888 39693164 39659368 39631672 39600456 39563396 
741.496 39524960 39493608 39475644 39470928 39472124 39469404 39454964 
744.870 39427932 39395132 39367376 39352868 39353376 39362624 39370100 
748.245 39366724 39348660 39319240 39286596 39258704 39239264 39227404 
751.620 39219828 39214788 39215400 39229148 39263780 39323664 39406308 
754.995 39503552 39604884 39704240 39801768 39904624 40022180 40160372 
758.370 40319808 40495124 40680224 40872904 41078308 41306984 41570744 
761.744 41875568 42219600 42594684 42993648 43417072 43880092 44410436 
765.119 45047052 45831644 46800256 47983608 49400092 51051572 52913996 
768.494 54930424 57013044 59045940 60924704 62595116 64094864 65566972 
771.869 67241712 69378648 72149784 75555824 79343848 83042952 85999504 
775.244 87541464 87204960 84832912 80663256 75222688 69229480 63383028 
778.619 58201100 54010424 50899660 48785316 47480376 46776044 46494684 
781.993 46499812 46709000 47072176 47555344 48136392 48801332 49547580 
785.368 50383176 51323296 52382668 53570220 54888800 56340736 57934808 
788.743 59692872 61650508 63849076 66332116 69136032 72288648 75814960 
792.118 79741224 84096864 88911224 94198856 99943232 106073344 112460584 
795.493 118909784 125154864 130900832 135823536 139605152 141999632 
798.385 142855440 142168160 140086416 136911408 133047432 128908080 
801.278 124896776 121315952 118323992 115937456 114030048 112381768 
804.171 110716344 108790728 106450032 103659824 100518184 97221416 94017128 
807.546 91114280 88644728 86627336 84974528 83519584 82066216 80454928 
810.920 78582416 76425224 74026144 71471112 68857904 66268936 63770628 
814.295 61405752 59200920 57175080 55340888 53706380 52273936 51039232 
817.670 49993244 49124780 48424300 47885668 47504920 47278276 47199628 
821.045 47259252 47446892 47755088 48184368 48744356 49454596 50338976 
824.420 51418508 52706584 54200816 55880372 57699404 59587812 61454000 
827.794 63180716 64645880 65738520 66374892 66526672 66228560 65582508 
831.169 64732672 63851720 63115688 62665576 62602276 62966428 63731604 
834.544 64800524 66009916 67161344 68023696 68384904 68097640 67095988 
837.919 65422184 63207960 60656928 57987932 55394900 53032468 50986656 
841.294 49287688 47923740 46860004 46053404 45461044 45046540 44775624 
844.669 44615576 44538876 44522500 44552128 44622916 44736472 44897004 
848.043 45106452 45363264 45662812 46000540 46375108 46788996 47246840 
851.418 47752948 48308520 48910568 49554376 50236632 50957744 51722788 
854.793 52539772 53416932 54361400 55378748 56475924 57664444 58961944 
858.168 60392704 61985964 63769476 65771832 68019120 70535704 73344536 
861.543 76460272 79878800 83559304 87411576 91290256 94983696 98252064 
864.917 100848024 102543728 103185704 102705680 101138136 98608424 95323976 
868.292 91543776 87522376 83505408 79692736 76215912 73157016 70545608 
871.667 68373960 66612572 65222160 64162648 63393952 62879756 62586316 
875.042 62480508 62534348 62726752 63045188 63487248 64056732 64759596 
878.417 65597220 66561780 67633432 68784216 69978688 71179032 72352800 
881.792 73471576 74515480 75474368 76346768 77138800 77861392 78526432 
885.166 79143064 79716384 80249248 80746448 81220216 81695616 82206968 
888.541 82794624 83497136 84338536 85324664 86439856 87653512 88923920 
891.916 90207056 91464424 92659656 93759400 94732528 95545792 96167368 
895.291 96571352 96738208 96658768 96334528 95777976 95012560 94073248 
898.666 93010264 91882592 90754872 89692344 88746544 87951656 87321992 
902.040 86852776 86527520 86324928 86228496 86227448 86318504 86502896 
905.415 86783864 87164744 87648928 88242048 88951896 89788040 90759616 
908.790 91872240 93126480 94518576 96043384 97697992 99483776 101406056 
912.165 103471960 105686760 108052704 110571248 113247936 116096384 
915.058 119144120 122430368 125998064 129889416 134134680 138746128 
917.950 143713776 149000976 154543184 160230624 165906816 171372688 
920.843 176376208 180662304 184014544 186296080 187506832 187797872 
923.736 187479904 186954192 186682800 187130176 188660912 191526128 
926.628 195807696 201405904 208021776 215168544 222253168 228559360 
929.521 233365328 236061072 236164912 233434208 227885648 219790224 
932.414 209632544 198034304 185720256 173376560 161600032 150880000 
935.306 141522624 133691696 127431632 122695704 119391976 117412352 
938.199 116656424 117022704 118394008 120624712 123498952 126728432 
941.092 129986568 132902656 135138768 136449616 136700288 135903232 
943.985 134197952 131832648 129095824 126268608 123599536 121254968 
946.877 119325984 117837856 116766744 116062152 115664408 115522368 
949.770 115591856 115837296 116230432 116744336 117354136 118040528 
952.663 118789504 119594408 120454144 121368656 122335104 123346016 
955.555 124389280 125452800 126528680 127615672 128717568 129841032 
958.448 130990120 132163760 133355808 134558288 135765776 136978352 
961.341 138201168 139441312 140703600 141987680 143288336 144598528 
964.233 145913808 147234384 148565280 149912256 151276928 152655840 
967.126 154040768 155423376 156800800 158178224 159567488 160983056 
970.019 162435040 163925584 165449568 166999328 168569376 170161552 
972.912 171783936 173447184 175158352 176917488 178717456 180548256 
975.804 182403840 184284144 186195888 188146800 190139776 192168528 
978.697 194219856 196275872 198322704 200353648 202368496 204368800 
981.590 206351648 208306448 210217712 212070208 213857520 215585136 
984.482 217270736 218936496 220600448 222272832 223956048 225649680 
987.375 227357984 229092864 230871168 232709472 234615568 236584768 
990.268 238602640 240652288 242723568 244817040 246942672 249112144 
993.160 251330944 253593296 255884912 258189344 260499088 262818368 
996.053 265162528 267547792 269984064 272468672 274990048 277534528 
998.946 280097184 282685920 285319552 288017984 290792352 293640640 
1001.839 296549920 299507008 302507168 305559904 308684736 311901920 
1004.731 315219904 318630880 322112992 325642496 329204480 332797632 
1007.624 336430272 340108608 343822944 347543936 351223872 354809792 
1010.517 358259872 361544800 364646432 367545088 370205568 372575424 
1013.409 374595008 376210048 377392672 378145376 378495808 378478304 
1016.302 378118848 377429440 376412320 375074176 373439232 371549408 
1019.195 369458848 367218816 364862144 362406656 359862656 357248608 
1022.087 354605120 351996288 349493408 347164736 345054560 343176448 
1024.980 341519936 340062144 338779552 337650016 336649504 335741120 
1027.873 334863104 333934688 332862976 331555872 329945408 327987328 
1030.766 325657984 322948128 319851040 316364416 312497184 308280128 
1033.659 303771872 299048224 294194592 289281760 284350336 279411680 
1036.552 274451904 269448224 264380992 259244176 254046016 248806976 
1039.446 243555040 238325600 233165168 228126896 223268320 218641072 
1042.339 214271408 210150672 206227648 202421552 198631808 194765328 
1045.232 190762592 186602800 182308592 177933360 173550800 169236464 
1048.125 165055360 161062944 157297136 153779216 150515984 147498848 
1051.018 144707040 142110976 139680080 137387520 135213632 133148584 
1053.911 131188304 129330280 127569672 125897272 124300600 122767440 
1056.804 121287824 119855792 118468080 117121232 115808960 114522592 
1059.697 113251600 111988168 110730024 109481440 108252168 107053208 
1062.590 105895336 104785208 103726592 102722008 101773848 100884600 
1065.483 100054896 99281000 98551632 97848384 97149640 96433264 95683344 
1068.858 94893976 94069256 93221744 92368176 91527912 90719840 89960424 
1072.234 89266224 88651400 88126800 87699736 87371616 87138224 86990472 
1075.609 86916440 86902600 86932104 86986304 87040552 87063952 87024928 
1078.984 86892720 86646024 86279296 85804592 85250512 84654064 84058944 
1082.359 83505728 83028704 82658968 82422912 82343240 82442744 82741096 
1085.735 83254048 83994016 84968520 86180616 87627320 89296872 91162064 
1089.110 93171280 95250440 97295904 99184480 100798872 102034568 102825320 
1092.485 103155112 103058312 102614896 101929144 101126424 100327784 
1095.378 99635752 99136560 98886896 98915728 99227536 99802240 100599080 
1098.753 101554048 102588672 103607368 104498048 105149968 105453240 
1101.646 105314584 104677760 103526792 101894320 99851072 97501568 94963536 
1105.022 92346416 89752192 87259960 84922832 82775576 80832336 79091984 
1108.397 77540976 76158072 74917528 73790608 72752048 71779768 70856128 
1111.772 69968800 69108256 68267320 67440856 66626252 65824224 65038920 
1115.147 64277628 63549184 62860988 62218460 61623888 61077264 60577952 
1118.523 60126776 59726252 59380644 59094532 58870828 58709864 58608412 
1121.898 58559876 58553164 58572540 58595632 58591536 58524764 58355968 
1125.273 58048184 57577004 56933820 56130512 55195104 54170484 53104092 
1128.648 52038444 51009796 50041504 49144852 48321152 47564584 46865692 
1132.024 46212108 45592112 44995672 44415248 43847692 43293872 42757796 
1135.399 42245568 41762616 41313028 40898500 40518800 40173316 39862236 
1138.774 39586516 39348188 39148824 38989092 38868084 38784492 38736964 
1142.149 38725880 38752724 38819820 38928784 39079536 39269364 39493716 
1145.525 39747192 40023668 40317300 40621644 40927732 41225912 41504460 
1148.900 41752328 41961908 42130364 42259992 42357148 42430760 42489988 
1152.275 42542276 42594208 42651116 42717760 42798564 42896972 43014060 
1155.650 43148416 43296252 43452372 43611116 43767752 43918256 44058500 
1159.026 44184012 44288384 44364344 44405300 44405408 44361556 44272680 
1162.401 44138932 43960048 43735508 43464164 43146476 42784852 42385276 
1165.776 41956432 41507852 41049096 40587372 40128068 39675268 39233132 
1169.151 38807176 38404252 38031324 37694748 37398984 37145972 36936072 
1172.527 36769760 36648320 36575104 36554416 36590388 36686536 36844772 
1175.902 37066284 37352220 37704936 38128156 38626636 39205972 39871460 
1179.277 40629832 41488824 42458856 43553600 44787308 46173632 47723912 
1182.652 49444384 51338508 53407080 55650412 58067232 60651556 63390076 
1186.028 66254152 69197920 72161328 75065592 77823576 80348232 82548760 
1189.403 84344456 85669808 86476088 86742432 86478272 85725024 84547776 
1192.778 83030032 81266072 79342056 77335448 75307840 73297536 71325512 
1196.153 69396064 67502208 65632640 63777460 61933532 60107636 58316440 
1199.529 56582876 54935124 53399212 51995228 50736964 49629220 48669516 
1202.904 47850116 47160332 46587664 46117772 45735732 45424328 45164504 
1206.279 44938160 44728204 44520884 44307908 44084688 43849852 43603896 
1209.654 43348420 43085988 42821160 42561464 42317772 42102836 41931360 
1213.030 41816568 41769436 41798804 41911508 42112988 42408948 42804268 
1216.405 43302768 43906232 44614032 45423812 46333264 47341016 48448008 
1219.780 49656704 50969740 52389020 53915244 55549296 57293776 59154784 
1223.155 61141496 63265144 65535724 67958480 70532080 73247720 76088544 
1226.531 79028264 82032080 85053152 88028256 90885360 93541368 95908824 
1229.906 97912024 99486816 100589728 101203760 101339056 101037648 100369904 
1233.281 99442360 98387488 97347064 96477000 95921176 95800816 96220624 
1236.656 97256024 98959128 101364504 104487976 108327808 112858104 118028048 
1240.031 123752480 129906088 136341264 142877312 149310208 155437072 
1242.925 161041056 165911616 169869792 172767248 174514144 175086288 
1245.818 174522960 172917712 170397584 167123456 163265680 158993728 
1248.711 154477056 149853104 145216960 140609648 136010160 131345328 
1251.604 126507040 121392800 115926680 110087736 103919200 97526328 91060792 
1254.979 84683824 78560816 72829552 67580632 62864244 58684756 55012364 
1258.354 51792848 48961972 46456296 44214644 42187944 40338864 38639276 
1261.729 37071480 35624192 34288508 33056554 31919014 30865264 29885330 
1265.105 28970752 28116418 27320570 26583026 25903564 25280474 24709936 
1268.480 24187508 23709626 23275052 22885126 22542246 22248666 22004606 
1271.855 21808062 21655594 21544992 21475916 21450990 21474178 21549624 
1275.230 21679208 21861510 22091964 22361818 22660012 22971196 23275924 
1278.606 23553512 23781470 23941760 24024432 24029546 23967006 23851824 
1281.981 23700458 23523676 23324694 23099910 22843078 22550238 22224046 
1285.356 21873740 21515014 21165072 20838738 20546376 20293966 20083966 
1288.731 19917704 19795546 19716694 19678346 19674428 19697380 19739196 
1292.107 19794678 19862656 19945734 20048154 20173160 20321498 20490762 
1295.482 20677780 20881288 21103290 21349352 21627348 21943820 22303356 
1298.857 22707874 23158166 23654968 24199736 24792544 25428388 26093912 
1302.232 26766660 27414756 28002252 28497378 28874172 29118582 29228400 
1305.608 29211920 29085136 28869640 28592456 28282278 27968186 27677946 
1308.983 27432120 27242842 27112576 27035134 27000154 26995994 27014046 
1312.358 27048144 27094696 27149434 27206824 27259388 27300386 27324520 
1315.733 27330342 27319016 27293188 27254590 27203296 27138288 27059324 
1319.109 26968986 26873732 26781954 26701576 26637946 26592254 26562630 
1322.484 26547660 26548682 26572282 26629456 26732548 26893720 27122698 
1325.859 27425590 27807570 28272092 28820882 29449606 30144410 30880134 
1329.234 31618140 32314070 32926358 33421226 33782764 34012752 34129192 
1332.610 34158656 34132092 34079948 34027012 33995120 34002436 34062780 
1335.985 34186400 34379016 34642084 34975188 35378356 35854904 36412320 
1339.360 37060440 37807404 38656588 39604448 40640164 41746860 42903300 
1342.735 44082888 45249916 46363456 47376968 48242792 48924028 49398012 
1346.111 49659976 49719640 49595900 49308288 48869776 48286116 47557192 
1349.486 46682472 45666896 44525696 43284172 41978404 40648384 39332660 
1352.861 38068724 36887008 35811976 34863840 34055612 33393138 32873780 
1356.236 32486968 32217312 32048054 31966622 31964984 32039386 32187160 
1359.612 32403384 32679758 33007216 33378750 33795048 34265128 34805932 
1362.987 35434832 36163052 36993144 37919080 38928856 40008008 41139720 
1366.362 42301408 43456660 44556280 45535844 46320988 46845572 47056632 
1369.737 46924640 46445824 45638664 44540340 43198700 41677008 40050844 
1373.113 38402048 36822808 35398556 34191920 33236864 32533138 32057438 
1376.488 31777892 31670280 31727486 31962450 32404344 33094600 34083924 
1379.863 35424116 37166872 39352540 41990044 45032792 48351704 51745588 
1383.238 54933020 57597396 59451232 60243772 59817544 58135828 55312624 
1386.614 51617204 47425380 43172240 39221856 35804096 33011078 30815142 
1389.989 29125420 27828056 26821884 26025130 25377134 24839204 24386362 
1393.364 24004962 23691114 23446206 23273652 23175152 23148556 23187384 
1396.739 23283336 23426062 23603992 23804432 24012526 24214554 24400766 
1400.115 24566930 24714778 24848924 24973914 25091358 25200162 25297858 
1403.490 25383528 25460008 25534114 25613646 25704544 25808086 25921184 
1406.865 26039238 26160278 26287442 26428904 26594718 26792456 27024132 
1410.240 27285286 27568448 27866742 28178920 28509654 28867196 29258702 
1413.615 29686714 30147926 30636152 31146322 31677906 32237190 32834004 
1416.991 33478554 34176616 34926820 35719872 36541152 37375148 38207384 
1420.366 39023416 39808308 40546376 41226384 41845756 42420272 42986220 
1423.741 43600052 44321188 45196784 46251544 47484736 48882904 50432148 
1427.116 52127312 53967168 55943952 58033640 60186412 62332540 64403272 
1430.492 66344820 68135856 69787288 71335632 72828496 74312512 75832792 
1433.867 77434360 79171176 81114528 83348464 85951520 88971488 92389456 
1437.242 96125656 100072256 104126376 108202264 112211800 116051848 
1440.135 119568624 122561192 124827064 126171168 126457424 125632064 
1443.028 123716224 120798616 117009472 112520256 107515056 102170000 
1445.921 96664560 91163080 85824328 80818088 76299128 72385680 69130048 
1449.297 66506520 64429788 62790148 61498468 60504472 59803020 59416016 
1452.672 59368072 59662764 60279208 61175060 62303052 63628628 65122792 
1456.047 66759996 68503400 70301208 72095208 73840528 75522984 77148656 
1459.422 78732208 80288072 81825368 83345888 84840160 86290976 87662392 
1462.798 88896472 89923008 90665536 91070152 91130592 90897080 90458800 
1466.173 89904304 89303264 88692112 88081544 87469768 86848120 86200536 
1469.548 85496504 84685464 83698416 82462416 80938080 79156704 77241072 
1472.923 75367072 73703872 72354088 71336560 70617760 70149376 69902048 
1476.299 69875392 70092832 70580648 71354016 72406768 73716632 75254800 
1479.674 77000664 78950480 81116528 83522512 86191480 89140296 92375152 
1483.049 95898904 99720152 103862256 108359784 113243512 118519664 124132560 
1486.424 129930392 135671840 141003968 145495392 148711408 150244752 
1489.317 149822000 147387376 143141936 137511840 131016584 124164136 
1492.210 117319488 110676360 104312176 98214472 92346744 86707224 81343872 
1495.586 76367264 71928168 68163264 65151892 62894076 61332252 60377548 
1498.961 59941836 59956064 60365596 61124976 62192768 63520572 65053432 
1502.336 66733180 68484392 70216632 71819400 73128312 73927568 73954752 
1505.711 72946848 70768224 67527096 63574924 59336352 55127764 51090852 
1509.087 47237860 43536280 39964268 36527312 33268954 30250224 27520154 
1512.462 25109788 23018708 21222198 19682680 18358702 17210528 16199118 
1515.837 15290333 14461063 13701623 13019947 12432719 11954134 11582849 
1519.212 11298080 11059687 10823053 10553618 10247437 9935675 9668924 
1522.588 9486383 9394853 9371289 9376909 9376909 9349689 9294508 9227015 
1526.445 9169279 9134694 9122309 9119467 9112768 9096560 9076665 9066008 
1530.302 9075820 9107827 9150836 9182781 9180107 9131514 9045911 8952750 
1534.160 8884328 8861130 8881048 8926232 8972706 9001256 9003117 8978761 
1538.017 8935770 8881792 8819436 8744138 8652597 8551206 8460279 8403555 
1541.875 8394908 8429433 8484808 8530424 8542251 8510825 8446866 8374031 
1545.732 8319245 8298981 8313334 8349610 8389976 8420785 8436865 8442710 
1549.590 8447542 8459096 8477273 8494606 8499911 8484808 8448116 8396124 
1553.447 8339443 8288174 8247345 8215029 8184843 8149762 8105470 8048895 
1557.304 7976565 7882317 7759990 7611664 7456614 7326353 7248417 7231572 
1561.162 7267892 7337811 7418728 7488773 7533239 7548006 7540386 7526294 
1565.019 7522721 7540218 7577508 7623703 7664068 7687743 7691723 7682381 
1568.877 7671319 7671083 7689261 7725889 7777834 7842134 7919029 8009674 
1572.734 8113909 8227151 8339916 8440447 8520151 8580438 8636947 8714964 
1576.592 8839319 9019963 9250234 9514967 9800941 10103076 10425479 10778181 
1580.449 11172883 11617356 12113320 12656619 13239914 13855533 14493744 
1583.824 15140203 15774019 16363721 16873992 17274102 17543084 17679414 
1587.199 17700708 17643800 17555710 17488784 17496512 17623924 17908212 
1590.575 18375396 19034760 19874310 20853304 21905904 22937800 23839924 
1593.950 24512270 24869588 24862782 24486854 23780456 22817968 21689794 
1597.325 20495278 19320354 18230970 17276894 16486879 15873810 15437494 
1600.700 15168544 15053306 15077799 15233124 15513754 15916292 16434226 
1604.076 17054426 17754722 18507562 19278300 20028514 20719100 21305676 
1607.451 21743544 21993836 22025556 21824298 21394182 20759278 19960234 
1610.826 19050028 18090424 17137796 16236849 15416517 14684949 14035779 
1614.201 13453465 12920160 12420240 11946369 11503363 11106457 10776008 
1617.577 10527987 10367651 10288014 10273153 10302196 10353432 10408137 
1620.952 10452360 10480735 10497401 10515122 10548967 10610418 10702985 
1624.327 10821966 10959024 11107239 11263360 11427395 11599524 11777780 
1627.702 11956247 12127358 12285277 12428048 12559371 12684763 12809135 
1631.078 12932790 13051633 13156504 13236703 13282411 13286101 13244253 
1634.453 13158211 13036541 12894116 12749862 12621756 12519912 12445642 
1637.828 12391806 12346839 12297275 12230746 12139897 12024437 11891607 
1641.203 11753779 11623686 11509181 11410318 11319540 11224325 11111624 
1644.579 10970475 10795980 10590692 10365276 10136414 9922963 9742518 
1647.954 9606657 9519572 9479000 9476800 9499049 9525737 9532510 9489059 
1651.811 9368309 9161969 8900900 8651109 8474841 8395178 8392881 8432676 
1655.669 8483050 8524915 8550834 8560533 8557863 8546948 8529849 8506094 
1659.526 8473489 8429568 8372782 8303371 8223133 8135211 8044608 7958511 
1663.384 7884611 7830797 7802392 7799862 7818889 7850838 7884376 7907084 
1667.241 7908771 7884342 7834914 7768254 7695466 7628626 7575720 7540521 
1671.098 7522990 7520664 7529092 7541263 7547669 7536442 7496257 7422537 
1674.956 7322006 7214221 7122867 7066790 7051096 7068069 7102489 7138192 
1678.813 7165038 7179826 7187170 7195390 7210482 7231201 7246732 7238107 
1682.671 7185149 7074973 6914695 6734788 6579378 6481396 6447395 6462529 
1686.528 6503426 6550281 6588696 6610529 6612918 6596131 6562995 6519133 
1690.385 6472786 6433910 6411278 6410707 6431455 6466262 6500970 6519099 
1694.243 6505612 6454323 6373450 6286776 6222035 6196456 6208556 6240824 
1698.100 6268960 6267951 6219615 6121747 5994540 5875195 5797888 5777304 
1701.958 5805209 5861794 5925206 5977709 6007272 6007171 5978213 5929169 
1705.815 5874288 5828111 5801145 5797552 5814947 5847051 5886849 5928565 
1709.673 5969848 6011270 6055552 6105483 6162243 6225161 6291785 6359160 
1713.530 6425570 6490275 6552871 6611673 6662039 6696460 6707160 6691077 
1717.387 6653055 6607636 6573659 6565048 6586678 6634282 6697739 6766153 
1721.245 6830605 6886719 6933548 6973244 7008666 7042441 7075782 7109461 
1725.102 7144760 7183363 7227091 7276585 7329858 7382194 7427020 7459278 
1728.960 7477345 7484458 7487020 7491166 7498515 7502864 7490155 7440266 
1732.817 7335418 7168879 6956274 6733577 6544091 6415751 6351696 6336902 
1736.675 6349141 6368037 6377720 6369819 6343761 6305804 6267312 6239849 
1740.532 6232253 6247547 6283986 6335759 6396348 6458628 6517653 6570901 
1744.389 6619310 6666278 6716212 6773086 6838818 6912742 6991796 7071404 
1748.247 7147017 7213885 7267791 7304619 7321096 7316143 7292555 7258525 
1752.104 7224699 7201285 7194750 7205126 7226619 7248653 7260008 7251416 
1755.962 7219544 7168575 7108788 7052208 7006242 6972065 6944591 6915300 
1759.819 6875543 6819700 6747509 6663620 6576653 6495556 6428664 6380310 
1763.677 6352200 6343055 6350116 6368440 6391742 6412893 6425806 6426444 
1767.534 6415347 6396550 6375468 6355226 6335289 6310679 6275582 6226102 
1771.391 6165234 6103198 6055753 6036333 6049907 6091235 6149069 6211279 
1775.249 6269531 6320866 6367499 6413296 6461587 6512305 6561953 6605820 
1779.106 6639597 6662611 6677482 6690336 6706723 6729740 6758883 6790082 
1782.964 6818488 6839963 6852047 6855581 6852788 6847368 6843161 6843598 
1786.821 6852350 6871975 6903787 6947082 6997588 7047493 7087064 7105723 
1790.678 7095922 7055508 6989708 6910890 6832793 6768441 6723885 6699186 
1794.536 6689697 6689361 6692456 6694610 6692624 6684818 6670484 6650296 
1798.393 6625803 6599562 6574500 6552433 6534202 6518763 6504502 6490443 
1802.251 6476116 6463504 6455265 6453684 6460108 6473762 6492696 6514054 
1806.108 6535817 6556470 6576081 6594886 6613120 6630413 6646629 6661467 
1809.966 6676137 6691985 6710727 6733173 6758951 6786278 6813271 6838919 
1813.823 6863391 6888840 6917287 6950719 6988968 7030554 7073222 7114749 
1817.680 7153956 7191381 7228304 7265735 7303979 7342360 7380070 7416403 
1821.538 7451861 7486481 7519619 7549118 7571573 7583071 7582093 7570697 
1825.395 7554985 7542409 7539240 7547231 7563313 7580441 7590388 7587859 
1829.253 7572821 7551377 7533138 7528081 7541533 7572922 7617667 7669633 
1833.110 7724472 7780094 7837106 7897299 7961716 8030059 8100473 8170796 
1836.968 8240084 8309654 8382950 8464401 8558404 8667435 8792047 8930393 
1840.825 9078865 9233107 9387947 9538234 9680410 9813379 9940150 10067129 
1844.682 10202794 10352143 10515766 10688213 10859947 11020363 11160134 
1848.058 11274071 11360896 11422803 11462570 11481997 11480126 11453793 
1851.433 11399807 11316818 11206814 11075627 10930446 10777604 10621861 
1854.808 10464579 10305963 10146115 9986529 9829951 9679664 9537185 9402134 
1858.666 9271490 9142444 9013367 8885411 8762192 8647898 8545461 8455042 
1862.523 8374437 8300906 8232959 8172113 8121674 8085350 8064455 8056455 
1866.380 8055071 8051966 8039916 8016154 7982708 7945282 7910997 7884611 
1870.238 7867201 7856472 7848881 7841425 7832754 7822431 7810286 7795612 
1874.095 7777227 7753783 7724742 7691318 7655435 7618813 7582262 7544635 
1877.953 7502999 7454895 7399079 7336698 7270654 7204317 7140483 7079183 
1881.810 7019273 6958159 6894832 6829764 6766153 6707396 6656924 6615979 
1885.667 6584457 6560338 6540997 6524784 6510018 6494916 6477932 6457417 
1889.525 6433002 6406672 6383167 6368037 6366591 6381318 6410572 6449447 
1893.382 6491284 6530368 6564408 6594684 6624928 6658708 6697604 6740139 
1897.240 6783014 6823268 6860227 6896145 6934827 6979102 7029577 7083225 
1901.097 7135598 7182218 7221094 7253100 7280931 7307247 7332722 7355300 
1904.955 7372656 7382801 7386811 7388429 7392102 7401337 7415931 7432177 
1908.812 7444480 7448187 7442390 7429918 7415695 7404809 7399584 7399281 
1912.669 7401472 7404775 7409325 7417919 7432851 7453716 7474918 7487323 
1916.527 7479975 7446199 7386407 7310380 7233761 7170933 7131220 7114985 
1920.384 7115355 7121890 7125292 7119633 7103331 7077364 7043586 7002874 
1924.242 6955971 6904662 6852687 6806674 6772883 6755417 6753532 6761475 
1928.099 6770225 6772278 6765009 6750975 6736942 6729572 6731591 6740206 
1931.957 6748148 6747307 6733475 6708002 6676339 6646192 6623145 6608545 
1935.814 6600201 6594684 6590277 6588999 6595054 6612044 6640203 6675396 
1939.671 6709214 6734418 6746802 6747138 6741317 6736504 6737278 6743773 
1943.529 6751816 6756258 6755181 6750167 6746970 6752153 6770157 6800650 
1947.386 6840501 6883622 6925872 6965129 7001292 7035067 7065914 7091880 
1951.244 7110775 7122428 7129636 7137821 7152003 7174066 7200308 7222610 
1955.101 7231201 7219544 7187439 7140381 7088512 7040994 7002234 6971223 
1958.958 6942840 6912708 6880290 6850431 6830605 6826735 6839727 6863963 
1962.816 6890557 6911698 6924492 6931763 6938935 6951459 6970684 6991325 
1966.673 7006242 7009845 7001696 6986880 6972671 6964186 6960819 6956240 
1970.531 6942840 6915098 6875711 6833669 6802265 6792471 6808458 6846123 
1974.388 6898266 6957991 7024089 7101647 7196872 7311965 7440604 7566179 
1978.246 7668520 7732061 7749635 7724573 7667407 7590118 7502055 7407909 
1982.103 7310515 7212672 7121014 7045203 6994995 6975061 6982907 7008632 
1985.960 7038838 7062378 7073963 7076489 7077095 7083359 7099458 7123877 
1989.818 7152979 7182724 7213143 7247137 7289557 7342090 7401573 7459918 
1993.675 7507988 7539578 7554884 7561054 7567224 7581689 7606573 7637765 
1997.533 7666496 7685349 7690408 7683696 7671049 7657964 7647139 7636280 
2001.390 7619487 7591838 7552220 7503741 7454053 7411246 7380879 7364770 
2005.248 7360996 7366792 7379633 7398708 7422099 7446165 7463626 7466053 
2009.105 7446738 7404876 7346539 7282009 7223351 7178917 7150587 7134487 
2012.962 7125090 7119330 7118959 7131119 7162748 7217725 7291882 7375925 
2016.820 7456176 7523428 7574641 7614429 7650950 7691959 7740426 7794768 
2020.677 7849995 7901820 7949535 7995229 8040793 8087173 8129438 8160499 
2024.535 8175321 8172755 8157865 8140377 8129135 8128256 8134300 8136865 
2028.392 8123699 8088185 8032220 7965293 7902832 7859239 7842707 7854313 
2032.250 7889403 7941098 8004004 8074514 8150438 8228739 8304013 8369607 
2036.107 8421494 8458589 8484875 8507987 8535425 8570400 8613017 8658748 
2039.964 8702590 8741975 8777914 8813620 8851695 8892175 8930967 8961476 
2043.822 8978321 8979539 8968478 8951904 8936920 8929479 8929818 8935838 
2047.679 8944090 8951430 8956471 8958906 8957519 8949469 8930764 8898465 
2051.537 8853656 8801954 8752692 8716586 8700968 8706580 8727303 8752489 
2055.394 8771592 8777812 8770678 8754856 8738188 8726221 8721251 8722435 
2059.251 8726457 8730582 8733963 8736769 8739642 8741705 8741129 8735145 
2063.109 8723854 8709555 8697993 8695018 8704044 8722908 8744679 8759690 
2066.966 8759825 8742008 8709352 8669768 8632316 8602811 8582600 8568373 
2070.824 8554990 8537858 8516299 8492477 8469908 8451123 8436156 8422981 
2074.681 8408826 8392679 8375822 8361567 8353393 8352515 8357075 8362682 
2078.539 8364168 8358663 8345624 8327217 8307188 8288309 8271253 8256226 
2082.396 8242246 8229582 8220263 8217089 8221816 8234276 8251566 8269025 
2086.253 8281925 8287836 8286654 8280305 8271018 8259738 8245622 8226780 
2090.111 8201590 8170290 8135752 8101655 8072624 8050582 8035359 8025605 
2093.968 8019496 8016897 8019327 8029047 8047139 8072354 8100305 8125150 
2097.826 8141693 8147602 8143854 8134063 8122484 8112491 8105165 8100540 
2101.683 8098076 8098279 8103207 8115698 8137136 8167015 8203245 8242042 
2105.541 8281520 8321103 8362817 8409536 8462643 8521806 8583141 8642760 
2109.398 8696844 8744544 8787347 8828294 8869821 8912602 8955084 8994389 
2113.255 9028928 9058700 9085834 9113512 9143830 9177028 9211378 9245123 
2117.113 9277651 9310960 9349147 9396140 9453569 9518760 9584673 9643718 
2120.970 9688947 9718324 9734995 9746245 9759766 9781454 9813141 9851915 
2124.828 9893606 9933302 9968256 9997650 10022063 10041527 10056142 10064620 
2128.685 10066519 10062551 10054650 10045799 10038950 10035796 10036576 
2132.060 10041459 10051327 10068011 10094055 10131327 10177828 10228236 
2135.436 10274815 10309830 10328866 10333718 10329849 10325947 10328051 
2138.811 10337823 10352313 10365445 10371621 10369347 10360966 10352143 
2142.186 10347324 10347562 10348173 10341590 10320485 10280821 10224674 
2145.561 10158766 10092495 10033626 9986326 9950762 9924285 9903979 9888285 
2149.419 9876489 9867913 9860388 9849271 9828934 9793350 9738655 9663334 
2153.276 9567702 9453027 9321217 9176013 9023617 8875942 8750123 8664325 
2157.134 8635730 8673114 8771659 8914530 9078594 9242043 9390452 9519708 
2160.991 9631352 9728556 9811345 9876489 9918014 9933269 9923505 9896182 
2164.848 9860388 9825342 9794570 9767526 9738959 9703043 9656253 9599137 
2168.706 9533290 9462204 9388556 9312788 9235781 9159464 9087255 9024734 
2172.563 8976596 8943854 8924406 8910945 8895624 8871951 8837864 8794617 
2176.421 8747384 8700123 8654861 8611530 8569995 8530796 8497545 8475482 
2180.278 8468151 8476226 8494876 8515150 8527044 8524544 8506703 8479063 
2184.135 8450075 8426899 8414265 8412137 8417441 8427136 8439602 8455683 
2187.993 8476530 8501770 8528362 8550665 8563608 8564149 8554044 8538398 
2191.850 8524138 8516367 8516435 8521401 8526606 8527517 8523192 8515015 
2195.708 8506162 8499708 8495214 8489876 8480111 8463353 8441122 8417744 
2199.565 8399266 8390551 8392949 8403725 8417441 8428656 8434534 8435447 
2203.423 8434636 8435379 8439366 8446224 8453049 8456123 8453758 8445784 
2207.280 8433724 8420615 8408454 8398218 8390719 8385922 8385179 8389672 
2211.137 8401225 8419299 8442980 8469637 8496296 8521604 8545630 8569082 
2214.995 8592739 8616465 8637285 8652495 8659120 8656450 8647425 8636879 
2218.852 8630119 8631607 8642389 8660472 8682545 8704315 8723111 8737850 
2222.710 8748500 8755397 8758405 8757629 8752828 8744916 8735991 8727944 
2226.567 8722333 8718750 8714997 8707425 8693498 8671288 8642490 8609435 
2230.425 8575571 8543872 8515725 8490788 8468793 8449738 8434366 8424467 
2234.282 8421292 8425481 8436595 8453859 8476597 8505114 8539919 8581350 
2238.139 8627281 8673993 8715335 8745559 8760806 8761516 8751712 8737952 
2241.997 8727641 8726119 8734942 8753166 8777914 8805977 8834956 8863666 
2245.854 8890856 8914868 8933572 8944361 8946053 8939424 8927315 8914056 
2249.712 8903403 8898060 8898228 8903098 8911317 8923121 8939863 8963337 
2253.569 8994964 9033529 9074297 9111347 9137706 9148704 9143154 9123494 
2257.427 9094530 9062049 9030992 9004639 8984275 8970203 8961916 8959109 
2261.284 8961172 8966990 8975413 8985086 8995065 9005146 9016411 9029672 
2265.141 9046284 9065703 9086511 9106508 9123324 9135574 9143289 9147486 
2268.999 9149583 9151174 9152832 9154863 9157062 9160006 9163932 9169955 
2272.856 9178619 9189347 9201226 9212394 9220957 9226101 9227185 9224679 
2276.714 9219434 9212360 9204203 9195777 9188094 9181834 9178416 9178280 
2280.571 9181732 9188535 9198349 9210871 9226406 9245833 9270068 9299451 
2284.428 9333676 9370510 9407314 9441479 9470467 9493190 9509751 9520826 
2288.286 9527566 9531461 9534035 9536812 9542130 9551682 9567025 9588534 
2292.143 9615838 9647139 9680985 9716359 9753293 9793146 9837476 9886793 
2296.001 9940523 9996362 10051327 10102024 10146861 10185427 10218602 
2299.376 10248150 10275426 10300838 10324522 10346306 10366802 10387333 
2302.751 10409935 10436611 10468346 10505107 10545470 10588383 10632658 
2306.126 10678501 10726861 10779099 10836234 10898304 10964597 11033618 
2309.502 11104281 11175603 11247072 11318689 11389365 11458080 11523505 
2312.877 11584414 11640430 11692982 11744179 11796573 11852515 11913436 
2316.252 11979577 12050191 12124564 12201233 12279449 12358463 12437458 
2319.627 12515411 12591500 12664568 12733108 12795485 12849098 12890873 
2323.003 12917361 12926168 12916679 12891591 12856162 12818485 12786817 
2326.378 12768697 12768697 12787602 12822614 12868074 12917464 12964469 
2329.753 13004242 13034492 13054227 13064471 13066930 13064539 13060715 
2333.128 13058973 13062900 13075432 13097867 13130276 13171429 13219214 
2336.504 13271274 13325835 13381290 13436547 13490411 13542060 13590397 
2339.879 13634433 13673857 13708394 13738283 13763146 13781512 13790405 
2343.254 13785549 13761300 13712976 13636997 13534402 13410849 13278106 
2346.629 13151791 13049208 12987718 12979729 13032717 13147556 13319206 
2350.005 13536897 13785549 14050187 14316184 14572135 14812088 15033891 
2353.380 15238168 15426611 15600606 15761031 15908591 16045097 16172739 
2356.755 16294328 16411927 16525943 16635615 16739842 16837514 16929488 
2360.130 17017830 17103604 17187466 17267380 17339168 17397658 17439286 
2363.506 17462258 17468536 17462120 17447254 17427800 17405416 17379930 
2366.881 17349996 17313616 17268828 17214182 17147826 17067728 16972830 
2370.256 16862968 16740462 16609486 16475763 16345141 16222334 16109843 
2373.631 16007762 15914848 15829995 15752511 15683251 15623756 15575466 
2377.007 15539509 15515746 15503727 15503144 15513995 15537208 15574023 
2380.382 15625130 15690396 15768694 15857933 15955750 16060226 16169403 
2383.757 16281119 16392658 16500266 16599124 16684610 16753169 16802762 
2387.132 16833966 16848880 16850740 16842302 16825700 16802174 16771730 
2390.508 16734092 16689224 16637027 16577369 16510248 16435876 16354879 
2393.883 16268943 16180340 16092546 16008897 15932446 15865356 15808793 
2397.258 15763747 15731037 15711866 15707951 15720455 15749522 15794223 
2400.633 15852263 15921310 15999340 16085738 16181750 16289135 16409690 
2404.009 16544186 16692081 16851292 17020174 17196946 17381068 17572962 
2407.384 17773742 17984250 18205398 18437722 18681172 18936074 19202172 
2410.759 19478348 19762150 20049646 20336082 20615930 20884348 21137590 
2414.134 21372916 21588344 21781480 21949432 22089454 22199146 22277476 
2417.510 22325576 22346750 22345912 22328052 22297288 22256864 22208038 
2420.885 22151410 22087572 22017852 21943820 21867888 21792384 21719786 
2424.260 21652146 21591478 21540188 21500532 21474768 21465404 21474038 
2427.635 21502376 21551746 21624144 21721146 21844578 21995334 22173132 
2431.010 22376054 22601266 22845242 23104768 23377910 23663892 23962698 
2434.386 24274888 24600836 24940786 25294908 25663344 26047400 26448730 
2437.761 26868834 27309136 27770372 28252256 28754214 29275574 29815732 
2441.136 30374932 30953390 31551826 32170604 32810528 33471722 34154604 
2444.511 34858996 35583732 36327076 37085664 37855560 38633120 39414544 
2447.887 40196936 40977976 41755248 42526124 43287428 44035768 44767728 
2451.262 45481276 46174332 46845684 47493680 48115736 48707732 49265272 
2454.637 49782800 50255008 50676788 51042480 51346380 51582056 51743128 
2458.012 51824132 51821184 51732416 51557844 51298684 50955956 50530516 
2461.388 50023732 49437216 48774568 48042636 47250608 46409508 45532124 
2464.763 44630004 43714544 42796220 41883924 40986464 40112692 39270856 
2468.138 38468764 37713720 37011620 36367104 35783584 35262912 34805644 
2471.513 34410724 34075720 33795872 33565424 33377964 33226098 33103644 
2474.889 33004820 32924604 32858450 32802272 32751854 32703732 32655108 
2478.264 32604422 32550994 32494928 32435942 32373358 32305110 32229234 
2481.639 32143700 32047554 31941552 31827696 31708632 31587210 31465218 
2485.014 31344112 31224466 31106846 30991642 30879778 30771606 30667514 
2488.390 30566610 30468326 30370880 30273776 30176516 30079032 29981316 
2491.765 29882880 29782444 29678872 29570644 29456840 29337394 29212488 
2495.140 29082196 28946100 28802788 28650462 28487860 28314602 28131372 
2498.515 27940164 27743634 27543560 27340998 27135924 26927632 26715774 
2501.891 26500676 26283466 26066046 25850564 25638598 25431198 25229096 
2505.266 25032562 24842606 24660206 24486434 24321982 24166456 24018830 
2508.641 23876960 23738844 23602522 23466594 23330080 23192524 23053334 
2512.016 22912440 22769710 22625942 22482608 22341202 22203332 22069758 
2515.392 21940546 21814960 21692722 21574138 21461226 21356556 21263360 
2518.767 21183650 21118074 21065134 21022426 20987372 20958094 20934240 
2522.142 20916750 20907190 20906356 20914038 20928850 20948496 20971236 
2525.517 20995476 21020896 21047328 21074910 21102700 21129414 21153314 
2528.893 21172622 21186538 21195062 21199272 21200698 21200802 21200384 
2532.268 21199548 21198192 21195444 21191026 21185284 21178954 21173734 
2535.643 21171508 21173942 21182294 21197218 21217712 21242136 21268928 
2539.018 21295862 21322416 21348518 21375108 21403198 21433620 21466342 
2542.394 21500322 21534860 21569088 21602796 21636854 21672554 21710764 
2545.769 21751730 21794614 21837746 21879562 21918520 21953998 21986168 
2549.144 22015342 22041904 22066202 22088478 22108386 22127074 22145134 
2552.519 22163510 22182932 22203540 22224742 22246052 22266838 22286824 
2555.895 22306042 22324356 22340994 22353936 22360388 22357842 22344238 
2559.270 22319540 22284452 22241238 22191336 22135440 22072894 22002342 
2562.645 21922598 21834020 21738316 21639294 21540954 21447232 21360212 
2566.020 21280726 21208212 21141660 21080752 21026148 20979062 20940986 
2569.396 20912822 20894916 20886572 20886748 20894222 20907988 20926940 
2572.771 20950444 20977498 21007090 21038946 21072926 21109658 21149974 
2576.146 21194608 21243840 21297184 21353982 21412942 21473828 21536394 
2579.521 21601194 21668234 21737448 21808236 21879666 21951524 22024404 
2582.896 22099808 22179690 22265652 22358330 22456960 22559418 22663608 
2586.272 22767544 22870388 22972314 23074228 23176656 23279700 23382526 
2589.647 23483382 23581218 23674982 23764428 23850006 23932344 24011862 
2593.022 24088976 24164004 24237222 24309506 24382014 24455410 24530642 
2596.397 24607954 24687210 24768618 24852502 24939626 25031088 25127624 
2599.773 25229552 25336318 25447220 25561384 25678672 25799892 25926354 
2603.148 26059994 26201982 26352852 26512438 26679730 26853464 27032524 
2606.523 27216172 27403850 27594928 27788846 27984794 28182068 28379752 
2609.898 28576744 28771526 28962286 29146292 29321052 29483896 29632826 
2613.274 29767008 29886112 29990192 30079492 30153502 30211716 30253670 
2616.649 30279852 30291824 30292074 30283972 30270828 30254770 30237044 
2620.024 30217826 30196798 30173782 30149098 30123490 30098314 30074520 
2623.399 30052576 30032586 30014230 29997826 29983980 29973968 29969388 
2626.775 29971802 29982206 30000772 30027082 30060318 30099698 30144340 
2630.150 30194134 30249334 30310194 30377170 30450554 30529960 30614784 
2633.525 30703500 30794192 30884972 30974242 31061146 31145680 31229558 
2636.900 31314410 31402308 31494644 31591698 31692878 31797036 31902432 
2640.276 32007746 32112234 32215636 32318030 32419484 32519996 32620032 
2643.651 32719556 32819424 32920174 33023090 33128928 33238224 33351522 
2647.026 33468928 33590804 33717084 33848488 33985088 34127112 34273948 
2650.401 34425140 34579860 34737296 34897376 35059916 35225360 35394460 
2653.777 35567976 35746816 35931848 36123836 36323256 36530412 36745164 
2657.152 36966448 37193328 37424916 37660636 37900568 38145228 38395456 
2660.527 38651880 38914140 39180948 39450356 39720396 39989008 40255316 
2663.902 40518948 40780776 41041668 41302572 41564584 41828208 42094112 
2667.278 42362736 42634448 42909664 43188380 43470684 43756100 44044716 
2670.653 44336308 44631328 44929816 45232268 45538200 45846888 46157492 
2674.028 46468580 46778776 47086984 47392080 47693108 47989160 48279228 
2677.403 48563080 48840928 49113724 49383496 49652656 49924100 50200888 
2680.779 50485928 50782024 51091560 51416980 51760148 52122156 52504020 
2684.154 52905836 53327128 53767804 54227432 54706300 55204548 55721980 
2687.529 56257752 56810424 57377412 57956772 58546340 59145180 59753248 
2690.904 60371228 61000196 61640844 62293684 62958540 63634916 64322576 
2694.280 65021180 65730616 66450448 67180568 67920544 68669984 69428840 
2697.655 70196696 70973440 71758416 72550464 73348456 74150792 74956544 
2701.030 75764976 76575824 77388744 78202904 79016016 79824720 80625120 
2704.405 81412416 82181912 82929392 83650128 84339096 84991168 85600592 
2707.781 86161864 86671392 87126472 87526624 87872056 88163648 88401784 
2711.156 88586384 88716784 88792872 88814784 88783728 88701336 88569280 
2714.531 88388752 88160000 87882448 87555448 87178800 86752992 86279576 
2717.906 85760624 85199312 84599216 83964672 83301088 82614800 81912752 
2721.281 81202800 80492656 79789600 79101480 78434968 77796424 77191832 
2724.657 76625544 76101456 75621128 75185576 74793912 74445664 74140456 
2728.032 73878672 73661272 73489040 73362776 73281808 73244552 73248472 
2731.407 73290360 73367680 73477704 73618288 73787824 73984448 74206176 
2734.782 74450976 74716336 74999864 75298976 75610400 75931048 76256792 
2738.158 76583216 76906792 77224048 77532616 77831304 78119128 78395280 
2741.533 78659136 78910112 79148352 79374512 79590928 79800712 80007616 
2744.908 80215208 80426336 80642920 80865744 81095112 81330648 81571424 
2748.283 81816448 82063544 82309280 82550720 82784472 83008448 83221624 
2751.659 83425056 83620800 83811848 84001536 84192864 84388512 84590856 
2755.034 84801776 85022440 85253536 85494968 85745128 86001728 86261920 
2758.409 86522104 86778480 87026504 87261256 87476656 87666648 87825168 
2761.784 87946704 88027608 88065472 88059024 88007968 87912096 87771792 
2765.160 87587512 87361496 87097232 86799760 86475808 86131760 85773944 
2768.535 85407512 85036744 84665496 84297704 83937448 83589872 83259184 
2771.910 82948768 82660728 82395480 82152688 81931312 81730008 81547832 
2775.285 81383352 81234240 81097392 80968056 80840592 80708264 80564208 
2778.661 80401616 80213456 79993712 79737168 79440472 79102280 78724264 
2782.036 78310432 77867296 77402120 76922064 76433872 75942496 75452096 
2785.411 74965920 74486376 74015296 73554152 73103104 72661408 72227560 
2788.786 71799744 71376240 70955808 70538432 70124264 69714568 69310432 
2792.162 68913392 68524664 68145856 67778232 67423136 67081524 66753700 
2795.537 66439524 66138304 65848476 65569288 65299360 65038072 64784484 
2798.912 64537728 64296408 64059496 63825124 63591996 63358792 63124308 
2802.287 62887220 62646368 62400628 62148876 61890620 61626144 61356140 
2805.663 61082416 60806652 60530604 60256028 59984328 59716936 59455376 
2809.038 59200840 58954696 58717260 58488296 58266500 58050420 57838268 
2812.413 57628912 57421848 57217380 57016136 56818884 56626060 56438228 
2815.788 56256432 56081912 55917156 55766132 55632896 55522184 55438492 
2819.164 55385416 55366368 55383496 55438752 55533104 55666836 55839264 
2822.539 56048548 56291548 56564456 56862280 57179312 57510124 57848072 
2825.914 58186552 58518812 58837404 59135380 59406440 59644100 59843480 
2829.289 60000188 60110872 60173316 60186604 60151624 60070612 59946932 
2832.665 59784956 59588644 59362220 59109492 58833724 58538868 58229176 
2836.040 57908720 57581884 57252080 56920864 56589028 56255488 55918812 
2839.415 55577500 55230588 54877820 54519372 54155732 53787228 53414200 
2842.790 53037296 52657096 52275096 51893096 51513444 51138336 50770144 
2846.166 50411012 50063288 49729260 49411824 49113648 48837332 48584832 
2849.541 48357224 48155120 47978464 47827216 47701392 47600924 47525436 
2852.916 47473652 47443672 47432812 47438020 47456684 47486844 47527096 
2856.291 47576376 47633536 47696324 47761744 47825812 47883632 47930548 
2859.667 47962000 47973768 47962220 47924036 47856556 47758052 47627952 
2863.042 47466884 47277240 47062240 46825980 46572800 46307424 46034728 
2866.417 45759884 45488744 45227376 44982404 44760236 44566336 44405044 
2869.792 44279212 44189916 44136364 44116004 44125216 44159032 44211816 
2873.167 44278368 44354396 44436680 44523492 44614508 44709804 44809456 
2876.543 44913208 45020292 45129428 45239732 45350316 45461228 45572644 
2879.918 45685116 45798872 45914208 46031080 46149608 46269640 46391220 
2883.293 46513900 46636840 46758812 46878348 46994152 47105744 47213336 
2886.668 47318072 47420832 47521884 47620780 47715924 47805504 47887852 
2890.044 47962404 48029684 48091640 48150420 48207768 48264860 48322000 
2893.419 48378740 48434560 48489352 48543596 48598024 48653688 48711768 
2896.794 48773048 48838148 48907452 48981184 49059336 49141628 49227492 
2900.169 49316192 49406328 49496368 49584312 49667740 49743972 49809744 
2903.545 49861664 49896896 49913400 49910384 49888644 49850216 49797516 
2906.920 49733236 49659340 49577104 49487420 49391068 49288692 49181104 
2910.295 49069060 48952700 48831920 48706024 48574160 48436304 48292632 
2913.670 48144796 47994636 47843976 47694216 47546024 47399180 47253488 
2917.046 47108844 46965988 46826272 46691736 46564428 46446672 46340712 
2920.421 46248628 46173044 46116552 46081444 46069284 46080412 46113276 
2923.796 46164752 46229908 46303364 46379236 46452056 46516852 46569296 
2927.171 46606108 46625216 46625696 46608764 46577008 46535404 46489928 
2930.547 46447556 46416072 46402944 46415072 46459208 46540784 46664248 
2933.922 46833248 47049984 47315484 47629768 47991492 48398408 48846752 
2937.297 49332156 49848468 50388724 50946304 51514340 52087228 52661212 
2940.672 53233480 53801968 54364216 54916060 55450992 55959628 56429700 
2944.048 56847060 57197268 57465980 57642720 57720788 57699256 57583360 
2947.423 57384788 57120012 56807856 56468904 56122180 55782704 55462132 
2950.798 55167152 54900308 54660756 54445636 54250896 54072528 53906876 
2954.173 53751604 53605264 53467488 53338368 53218012 53106300 53002448 
2957.549 52905240 52813256 52725516 52641464 52561536 52486488 52417504 
2960.924 52355044 52299200 52249160 52203756 52161872 52123016 52087676 
2964.299 52057308 52034036 52020404 52019208 52032580 52061864 52107364 
2967.674 52168300 52242432 52326300 52415788 52506080 52592428 52670600 
2971.050 52737484 52791024 52830616 52856924 52871968 52879380 52883904 
2974.425 52890980 52905612 52931588 52969316 53015248 53060472 53092072 
2977.800 53093720 53047932 52939036 52755484 52490976 52146256 51728536 
2981.175 51251144 50730300 50185008 49634452 49095060 48580796 48101524 
2984.551 47662564 47265940 46910908 46595672 46318372 46078196 45874728 
2987.926 45707128 45572128 45461996 45362088 45252232 45107516 44900056 
2991.301 44607204 44212700 43711944 43113144 42436276 41710492 40966184 
2994.676 40233396 39535196 38884896 38287100 37738696 37231772 36756632 
2998.052 36304456 35868900 35445904 35033408 34630564 34236732 33851212 
3001.427 33473044 33101500 32736384 32378108 32028116 31687458 31357680 
3004.802 31039080 30731774 30434882 30147216 29867796 29595864 29331368 
3008.177 29075074 28828070 28591500 28366414 28152938 27950270 27757126 
3011.552 27571204 27390332 27212750 27037144 26863228 26691498 26523076 
3014.928 26359012 26200538 26048666 25903704 25766104 25635824 25512362 
3018.303 25394664 25281386 25170702 25060572 24949522 24836012 24719654 
3021.678 24600310 24478442 24354574 24229410 24103336 23977510 23853016 
3025.053 23731880 23616238 23508600 23410988 23324624 23249672 23184798 
3028.429 23127272 23073808 23019896 22960750 22891728 22808434 22707666 
3031.804 22587826 22449006 22292858 22122890 21943124 21757652 21570412 
3035.179 21384366 21201706 21023922 20851912 20686364 20527758 20376154 
3038.554 20231682 20094168 19963392 19839348 19722102 19612028 19509432 
3041.930 19414070 19325654 19243248 19165880 19092370 19021570 18952652 
3045.305 18884576 18816822 18748350 18678924 18607914 18535640 18462720 
3048.680 18390088 18318850 18249560 18182250 18116332 18050562 17983870 
3052.055 17915084 17843024 17767080 17686350 17600322 17508690 17411556 
3055.431 17309892 17205426 17100366 16997156 16897898 16804104 16716426 
3058.806 16634755 16558884 16488394 16422870 16361967 16304890 16250677 
3062.181 16198121 16146466 16095297 16044857 15996624 15952142 15912648 
3065.556 15879173 15851231 15827898 15807316 15787832 15767490 15744986 
3068.932 15719218 15689297 15654841 15615684 15572409 15525979 15477837 
3072.307 15429254 15381088 15333546 15286249 15238442 15189921 15140787 
3075.682 15091829 15044422 14999351 14956857 14916562 14876924 14836464 
3079.057 14794090 14749113 14701571 14652116 14601192 14549109 14495834 
3082.433 14441160 14385158 14328616 14272149 14216887 14163789 14113300 
3085.808 14065621 14020926 13979042 13940275 13904693 13872397 13842807 
3089.183 13814963 13787772 13760034 13731170 13701384 13671805 13643767 
3092.558 13618398 13596347 13577201 13560177 13544042 13528112 13511877 
3095.934 13495948 13481183 13468878 13459821 13454661 13453294 13455310 
3099.309 13459583 13464846 13469631 13472536 13472707 13469699 13463888 
3102.684 13455926 13447177 13438872 13431934 13426979 13424108 13422775 
3106.059 13422536 13422639 13422536 13421716 13419870 13416830 13412899 
3109.435 13408388 13403912 13400221 13397658 13396667 13397214 13399093 
3112.810 13402306 13406850 13412762 13419837 13428209 13437061 13445296 
3116.185 13451688 13455242 13455413 13452542 13447074 13440136 13432549 
3119.560 13424791 13416863 13408867 13400938 13393216 13386279 13380572 
3122.936 13376027 13372030 13367793 13362257 13355013 13346164 13336699 
3126.311 13328020 13321119 13316541 13313944 13312304 13310391 13307521 
3129.686 13303285 13298091 13293035 13288800 13286339 13286066 13288082 
3133.061 13292523 13299185 13308307 13319753 13333078 13347906 13363214 
3136.437 13378112 13391336 13402169 13409858 13414095 13414847 13412489 
3139.812 13408013 13402750 13398615 13397419 13400358 13408115 13420247 
3143.187 13435625 13452816 13470587 13488668 13507125 13526608 13547700 
3146.562 13570740 13595457 13621098 13646605 13671429 13695262 13718345 
3149.938 13741122 13763796 13786438 13808875 13830835 13852317 13873492 
3153.313 13894874 13917009 13940206 13965115 13991394 14019147 14048235 
3156.688 14078764 14110595 14143969 14178680 14214832 14252220 14291015 
3160.063 14331766 14375329 14422184 14473053 14528244 14586903 14648483 
3163.438 14711443 14774858 14837561 14898697 14957612 15013825 15067302 
3166.814 15117800 15165971 15212431 15258004 15303581 15349438 15395438 
3170.189 15441065 15485014 15526494 15564407 15598271 15627431 15651613 
3173.564 15670437 15683526 15690396 15691495 15687304 15678853 15668135 
3176.939 15656594 15645945 15637290 15631381 15628565 15628325 15630489 
3180.315 15634369 15639247 15644915 15650960 15657591 15665352 15674938 
3183.690 15687408 15703175 15722277 15743783 15766598 15789310 15811164 
3187.065 15831884 15852401 15874326 15899416 15929215 15964653 16005320 
3190.440 16050255 16097497 16145123 16191620 16236264 16279330 16321920 
3193.816 16365338 16411170 16460380 16513070 16568281 16624875 16681133 
3197.191 16736053 16789192 16840854 16891904 16943268 16995502 17048120 
3200.566 17100918 17152892 17203842 17254104 17304754 17357480 17413660 
3203.941 17474158 17539082 17607190 17676998 17746646 17814510 17879174 
3207.317 17940082 17997028 18050458 18101304 18150912 18200838 18252324 
3210.692 18306444 18363436 18422754 18483566 18544734 18605738 18666852 
3214.067 18728874 18793154 18860766 18931956 19005994 19081118 19155354 
3217.442 19226486 19293472 19355654 19413860 19468920 19522118 19574798 
3220.818 19627870 19682402 19739162 19798946 19861962 19928458 19998084 
3224.193 20070050 20143310 20216722 20289730 20361846 20433454 20504934 
3227.568 20576740 20649148 20721950 20794696 20866826 20937856 21007368 
3230.943 21075396 21142182 21207866 21272582 21336058 21397420 21455898 
3234.319 21510836 21561950 21610458 21657474 21705678 21756886 21812488 
3237.694 21872836 21936818 22003282 22070838 22138370 22205946 22274128 
3241.069 22343400 22413556 22483340 22550658 22613236 22669890 22720862 
3244.444 22768418 22816430 22868676 22928474 22997152 23073914 23156560 
3247.820 23241878 23327246 23410956 23492440 23572368 23651610 23730900 
3251.195 23810978 23891696 23972994 24054514 24136296 24218794 24301832 
3254.570 24385834 24470974 24557252 24644494 24732456 24820610 24907974 
3257.945 24994444 25079282 25162768 25245284 25327676 25410998 25495918 
3261.321 25582506 25670376 25758686 25846802 25934374 26022174 26111048 
3264.696 26202298 26296702 26394044 26493596 26594122 26694668 26794430 
3268.071 26893860 26993314 27093532 27194724 27296328 27397496 27496924 
3271.446 27593906 27688468 27781358 27873948 27967760 28063608 28161952 
3274.822 28262792 28365602 28470028 28575896 28683096 28791920 28902396 
3278.197 29014496 29127760 29241974 29356608 29471838 29587882 29705270 
3281.572 29824462 29946030 30070046 30196372 30324546 30453790 30583390 
3284.947 30712996 30842176 30971074 31100298 31230378 31362276 31496778 
3288.323 31634032 31774328 31917124 32061968 32208216 32355510 32503464 
3291.698 32652538 32803628 32957348 33114802 33276644 33443234 33614148 
3295.073 33789100 33966856 34146860 34328596 34511984 34697312 34885488 
3298.448 35076872 35271572 35469236 35669008 35869876 36071376 36273260 
3301.823 36476280 36681596 36890472 37104356 37324560 37551736 37786296 
3305.199 38028036 38276784 38531652 38791704 39055644 39322324 39590508 
3308.574 39859840 40130028 40401948 40675860 40952708 41233128 41517624 
3311.949 41807048 42102364 42404600 42715420 43035576 43365296 43703992 
3315.324 44050360 44402252 44758028 45116564 45477636 45841400 46208972 
3318.700 46581028 46958272 47340572 47727684 48119104 48514100 48911496 
3322.075 49310704 49710092 50108580 50505096 50899396 51291004 51680684 
3325.450 52068848 52455864 52841464 53224940 53605680 53982660 54354788 
3328.825 54721596 55082208 55435744 55781200 56117584 56443656 56758956 
3332.201 57063108 57355708 57635948 57902364 58152952 58385344 58597716 
3335.576 58789296 58959892 59110816 59243300 59358420 59456664 59537868 
3338.951 59601796 59648052 59676676 59687360 59680212 59654172 59607688 
3342.326 59538896 59446220 59328640 59186868 59021612 58834556 58626728 
3345.702 58397848 58147004 57872532 57573488 57249508 56901412 56531056 
3349.077 56140696 55732564 55308220 54869064 54415852 53949456 53471120 
3352.452 52982420 52485292 51982044 51474908 50965864 50456860 49949116 
3355.827 49442936 48938344 48434560 47930768 47426820 46923496 46422632 
3359.203 45926984 45439152 44961128 44493796 44036828 43588512 43147100 
3362.578 42711544 42281796 41858892 41445220 41042980 40653664 40278036 
3365.953 39915448 39564556 39223524 38890368 38563916 38243312 37928192 
3369.328 37618572 37315172 37018004 36727460 36443164 36164492 35890640 
3372.704 35620412 35352872 35087688 34824816 34565116 34309592 34059124 
3376.079 33814816 33576592 33344832 33118844 32898870 32684654 32476038 
3379.454 32272808 32074168 31878934 31685748 31493216 31300560 31107452 
3382.829 30914110 30720642 30527402 30333606 30139118 29943296 29746178 
3386.205 29548796 29353134 29161316 28975710 28797300 28626254 28461008 
3389.580 28299394 28138584 27976172 27810536 27641150 27468546 27294034 
3392.955 27119664 26947164 26778114 26613144 26451900 26293708 26136878 
3396.330 25980558 25824120 25668232 25514506 25364876 25221160 25084162 
3399.706 24953384 24826994 24702186 24576678 24448224 24316026 24180014 
3403.081 24040926 23899398 23756168 23611654 23466454 23321548 23178122 
3406.456 23037854 22902486 22772538 22647584 22526438 22406858 22287034 
3409.831 22165914 22043194 21919740 21797054 21676210 21557666 21441278 
3413.207 21326104 21211134 21095812 20979688 20863106 20747182 20632294 
3416.582 20519142 20407860 20298098 20189230 20080806 19971892 19862066 
3419.957 19750950 19638372 19525098 19412266 19301300 19193898 19091020 
3423.332 18993428 18900148 18809902 18720676 18630672 18538682 18444534 
3426.708 18349092 18253810 18160034 18068868 17980556 17894676 17810298 
3430.083 17726592 17642696 17558090 17472432 17385930 17298446 17209806 
3433.458 17120424 17030544 16940996 16852324 16765807 16681889 16601190 
3436.833 16523775 16449230 16377002 16306335 16236609 16166549 16095331 
3440.208 16022028 15946092 15867522 15786801 15705133 15623859 15544042 
3443.584 15465819 15388675 15311578 15232849 15151628 15068262 14984260 
3446.959 14901955 14823882 14751856 14686594 14626859 14570867 14516698 
3450.334 14462365 14406839 14349917 14291461 14231677 14170190 14106933 
3453.709 14041152 13973190 13903427 13832956 13763282 13695434 13629920 
3457.085 13566433 13504014 13441572 13378044 13312919 13246029 13177543 
3460.460 13107838 13037565 12967268 12897700 12830122 12765422 12704619 
3463.835 12648193 12596037 12547059 12500099 12453518 12405579 12355498 
3467.210 12302456 12246219 12187193 12125961 12063307 12000968 11940716 
3470.586 11884252 11832392 11785031 11740775 11697033 11650777 11599387 
3473.961 11542083 11479105 11412360 11345013 11280091 11219700 11164553 
3477.336 11114547 11068047 11023694 10979480 10934218 10886651 10836200 
3480.711 10782563 10726759 10669841 10614086 10561969 10515054 10474083 
3484.087 10438444 10405456 10371926 10334668 10291339 10241128 10184986 
3487.462 10124680 10063195 10002669 9944863 9890725 9840527 9794163 9751057 
3491.319 9710937 9672414 9634368 9595512 9554188 9509853 9462542 9413138 
3495.177 9363400 9315598 9271389 9232295 9198823 9170801 9147350 9127656 
3499.034 9109993 9092703 9073350 9049802 9019862 8982144 8936278 8883111 
3502.892 8824913 8765033 8706342 8652056 8604094 8563338 8529478 8501297 
3506.749 8477138 8454907 8432169 8407441 8379267 8347313 8312017 8275307 
3510.606 8238835 8204628 8173802 8146555 8121809 8097806 8072927 8045620 
3514.464 8015075 7981864 7947037 7912145 7879145 7849016 7822971 7801515 
3518.321 7784682 7772437 7764308 7759720 7757224 7755605 7753109 7747981 
3522.179 7738908 7724742 7705045 7679885 7649500 7614261 7574844 7531823 
3526.036 7486110 7438884 7392035 7347179 7305798 7269205 7237333 7209236 
3529.894 7184172 7160962 7139371 7119633 7102590 7088816 7078779 7070966 
3533.751 7063254 7052813 7036750 7013246 6982604 6946543 6908871 6873422 
3537.608 6842757 6818657 6800717 6787086 6775913 6765513 6755484 6746600 
3541.466 6740778 6739230 6742831 6750436 6758917 6764201 6761912 6748148 
3545.323 6721227 6681621 6632061 6577023 6521286 6469322 6423990 6386227 
3549.181 6355226 6329035 6305400 6281330 6255413 6226875 6196221 6164394 
3553.038 6133442 6104610 6078736 6056157 6036232 6018494 6002502 5987754 
3556.896 5974518 5962324 5950735 5939314 5926583 5911804 5894204 5874322 
3560.753 5854070 5836271 5824417 5821360 5828816 5846480 5871870 5900385 
3564.610 5926146 5942370 5943143 5923527 5881677 5819144 5740572 5652883 
3568.468 5563668 5479035 5403611 5339403 5286339 5243344 5208266 5179126 
3572.325 5153911 5131279 5110291 5090679 5072274 5054842 5038283 5022361 
3576.183 5007043 4992429 4979089 4967057 4956768 4947820 4939341 4930360 
3580.040 4919535 4906097 4889946 4872622 4855935 4843471 4838277 4842935 
3583.897 4858381 4883813 4915280 4946412 4969537 4976542 4961192 4922015 
3587.755 4862034 4789698 4715230 4648210 4595533 4560072 4541054 4535395 
3591.612 4538844 4546813 4554782 4559737 4558565 4549391 4531746 4506367 
3595.470 4475299 4441991 4409923 4381941 4359718 4342951 4330033 4319056 
3599.327 4307878 4295898 4283551 4272408 4263608 4258822 4257919 4260529 
3603.185 4265816 4273044 4282446 4293657 4306473 4319256 4328660 4331137 
3607.042 4322904 4302022 4269095 4227672 4183442 4141459 4105500 4076166 
3610.899 4052186 4030848 4009379 3986606 3963466 3942033 3925583 3916556 
3614.757 3916254 3924111 3937954 3953736 3966977 3972728 3966643 3946413 
3618.614 3913145 3870653 3825858 3786215 3756970 3740326 3735881 3740360 
3622.472 3750720 3764657 3781736 3803396 3831775 3867978 3910972 3956678 
3626.329 3997808 4024495 4026835 3997474 3935547 3849057 3753728 3667709 
3630.187 3604526 3568779 3557453 3562932 3576563 3589893 3598111 3598579 
3634.044 3592198 3581908 3570482 3559993 3550705 3540817 3528357 3512357 
3637.901 3493819 3475014 3459717 3450065 3446558 3447059 3448061 3447059 
3641.759 3443285 3439277 3439678 3449296 3471307 3505142 3546964 3589826 
3645.616 3626644 3651269 3660057 3651804 3627112 3586518 3531063 3461988 
3649.474 3383674 3304105 3234966 3187867 3170110 3182894 3220879 3274492 
3653.331 3331884 3382939 3419440 3436706 3433967 3415198 3388282 3362670 
3657.188 3347410 3348980 3369716 3407751 3457680 3512290 3563634 3606063 
3661.046 3637904 3661928 3684617 3712688 3751355 3801724 3861961 3929461 
3664.903 4003259 4086267 4184881 4305837 4454845 4635350 4850373 5107944 
3668.761 5429276 5848226 6410741 7161400 8124408 9302633 10681557 12244378 
3672.618 13980377 15879344 17915876 20000862 21954174 23511642 24368766 
3675.993 24321632 23352244 21619792 19372076 16859110 14305227 11880608 
3679.369 9718866 7916161 6511061 5488967 4788826 4329095 4026735 3817301 
3683.226 3664368 3550839 3470572 3419640 3388750 3364640 3333220 3284608 
3687.083 3215872 3132730 3045733 2965692 2899342 2848377 2810724 2784879 
3690.941 2770474 2768806 2780377 2803154 2832935 2864486 2892804 2915820 
3694.798 2933500 2947544 2959620 2970263 2979037 2984308 2984975 2980872 
3698.656 2972831 2962089 2949145 2933667 2914819 2893004 2870323 2850978 
3702.513 2839605 2839739 2851345 2871724 2895906 2918656 2936369 2948111 
3706.371 2954983 2958953 2961956 2964057 2963791 2958586 2945709 2924026 
3710.228 2894205 2858316 2819795 2783112 2752467 2732294 2726292 2736128 
3714.085 2761403 2798418 2841373 2883265 2917888 2941773 2955484 2963257 
3717.943 2971364 2985843 3009798 3041629 3076832 3109268 3134465 3150785 
3721.800 3160865 3168108 3176318 3186899 3197580 3204056 3202187 3188701 
3725.658 3164603 3133464 3101293 3075097 3059614 3057211 3066487 3084107 
3729.515 3105030 3124320 3138704 3146981 3151386 3156660 3167941 3187834 
3733.373 3213769 3237169 3246516 3230593 3184329 3111805 3027214 2949212 
3737.230 2893204 2867288 2870023 2893905 2929864 2969662 3009030 3046033 
3741.087 3079401 3105498 3116911 3102527 3051572 2960021 2839439 2716356 
3744.945 2625209 2589009 2609975 2672247 2751967 2826298 2876861 2894072 
3748.802 2877561 2835804 2781911 2729626 2688683 2662479 2651344 2654311 
3752.660 2671114 2700952 2741497 2787880 2833035 2869523 2892337 2899409 
3756.517 2892237 2874959 2852813 2829800 2807323 2785613 2765305 2748332 
3760.375 2739529 2743331 2762604 2796451 2839339 2883598 2920990 2945409 
3764.232 2954650 2951147 2940305 2928396 2920090 2916521 2915853 2915053 
3768.089 2910750 2901710 2888301 2872825 2858516 2848377 2844075 2846009 
3771.947 2853380 2863853 2874693 2883765 2888568 2888635 2885066 2880329 
3775.804 2877061 2877428 2880963 2884832 2884832 2877094 2860717 2838605 
3779.662 2817494 2805588 2808623 2828066 2860517 2899609 2937703 2969095 
3783.519 2990714 3003125 3008430 3010298 3011099 3011599 3011866 3011366 
3787.376 3010465 3010231 3011766 3015436 3020408 3024812 3026380 3023911 
3791.234 3017672 3009297 3001123 2994717 2989512 2983474 2973699 2958086 
3795.091 2936535 2912418 2891770 2881363 2885566 2904612 2933567 2964558 
3798.949 2987377 2992515 2974166 2932299 2874626 2815960 2774542 2764238 
3802.806 2789248 2843974 2915386 2988211 3046967 3080002 3081537 3054341 
3806.664 3008864 2961222 2927796 2917254 2929830 2958953 2995518 3031585 
3810.521 3063117 3089679 3113874 3138370 3164036 3187967 3204423 3206025 
3814.378 3186899 3146213 3090247 3032686 2990280 2975000 2990513 3030718 
3818.236 3082972 3131462 3162133 3164536 3135733 3081737 3017605 2962856 
3822.093 2932466 2932299 2958019 2999255 3042996 3078767 3100625 3107099 
3825.951 3102227 3093150 3087811 3091482 3106298 3129359 3155992 3180824 
3829.808 3199416 3209663 3211933 3208595 3202987 3198515 3197413 3200584 
3833.666 3207527 3216239 3223884 3226988 3222381 3207861 3183428 3151620 
3837.523 3117778 3088712 3070592 3067055 3078434 3101560 3131395 3162000 
3841.380 3188401 3206926 3215472 3214136 3204556 3190103 3174983 3163668 
3845.238 3159497 3164536 3178621 3200517 3227856 3258801 3292086 3327610 
3849.095 3365842 3406015 3445756 3478922 3495890 3485034 3435770 3344038 
3852.953 3218376 3082772 2967026 2895473 2876927 2904612 2963490 3037558 
3856.810 3114074 3184829 3245548 3295158 3334622 3365876 3390219 3409154 
3860.667 3423247 3432664 3436639 3434334 3423714 3403243 3372354 3332852 
3864.525 3290584 3253560 3230660 3227689 3245448 3278365 3315824 3346509 
3868.382 3359097 3347878 3315056 3271521 3233297 3213335 3217408 3241609 
3872.240 3275961 3308078 3327811 3330615 3318128 3297695 3279066 3270586 
3876.097 3276094 3294723 3321600 3350382 3375125 3390520 3394126 3386011 
3879.955 3369081 3348045 3328746 3317126 3316091 3326642 3345874 3368313 
3883.812 3386512 3393291 3384141 3360400 3328913 3301100 3287813 3295224 
3887.669 3322669 3363104 3406816 3442684 3462055 3460686 3439745 3406282 
3891.527 3369783 3339664 3322135 3318996 3328846 3349013 3376561 3409722 
3895.384 3446992 3487072 3528524 3569012 3606430 3638639 3663866 3681710 
3899.242 3692404 3696447 3694542 3686790 3673089 3653007 3626711 3594637 
3903.099 3559124 3522712 3488141 3458448 3436038 3421877 3415499 3416100 
3906.957 3421610 3430226 3440947 3452570 3465027 3478721 3493685 3509518 
3910.814 3525986 3542053 3557053 3570816 3583912 3596975 3610707 3624739 
3914.671 3637871 3647694 3652105 3649565 3640744 3627980 3614850 3604860 
3918.529 3599949 3600283 3605027 3612344 3621165 3631055 3642482 3655246 
3922.386 3668912 3681209 3689229 3689897 3681777 3665437 3643852 3621432 
3926.244 3601786 3587654 3579803 3577732 3580471 3587287 3597710 3611843 
3930.101 3628649 3646023 3660592 3668511 3667108 3655479 3635632 3611475 
3933.958 3587687 3568244 3554948 3547799 3545628 3546597 3549436 3553946 
3937.816 3560226 3568812 3579402 3591229 3602421 3611442 3617055 3618425 
3941.673 3615618 3609838 3602421 3594804 3588656 3585282 3585382 3589191 
3945.531 3596107 3604893 3613881 3620931 3624606 3624372 3620162 3613046 
3949.388 3604058 3594069 3583244 3572086 3560660 3549937 3541419 3536207 
3953.246 3535439 3539080 3546262 3555182 3564369 3572387 3579068 3585382 
3957.103 3592164 3600450 3610306 3621031 3631322 3639909 3645990 3648897 
3960.960 3648797 3646324 3641613 3635565 3628916 3622701 3618191 3616353 
3964.818 3618091 3623637 3632357 3643150 3655078 3666807 3677834 3688227 
3968.675 3697617 3706105 3712989 3717467 3718637 3716331 3710549 3702128 
3972.533 3692437 3682880 3674994 3669915 3669012 3672688 3681075 3693573 
3976.390 3708745 3724752 3739090 3750319 3757438 3760513 3760847 3759777 
3980.248 3758641 3758039 3757471 3756602 3754831 3752258 3749684 3748280 
3984.105 3748882 3751522 3755366 3758775 3760446 3759777 3756870 3752759 
3987.962 3748949 3746375 3745005 3744103 3742264 3738488 3732506 3725087 
3991.820 3717701 3712220 3709480 3709948 3712822 3716999 3721277 3724619 
3995.677 3726691 3727326 3726858 3725287 3722680 3718837 3713490 3706506 
3999.535 3698619 3690265 3682713 
##END=
