
##TITLE=Z413_1_d
##JCAMP-DX=5.01  $$ Nicolet v. 1
##DATATYPE=INFRARED SPECTRUM
##ORIGIN=UniL
##OWNER=Nicolet
##LONGDATE=2011/09/21
##TIME=14:59:36
##SPECTROMETER/DATA SYSTEM=Nicolet iS5
##DATA PROCESSING=
Ratio against background
%Transmittance->Absorbance
Truncated
ElementMultiply or ElementDivide
##COMMENTS=
Number of sample scans: 32
Collection length: 51.19 sec
Sample gain: 2.0
Background collected on: Mer Sep 21 14:46:37 2011 (GMT+02:00);
Number of background scans: 32
Background gain: 2.0
Sample spacing:  1.000
Number of scan points: 12415
Resolution points: 8192
Number of FFT points: 65536
Apodization: N-B fort;
Phase correction: Mertz;
Laser frequency: 15798.0 cm-1
Number of rejected sample scans: 0
Number of rejected background scans: 0
Bench serial number: ASB1000141;
##RESOLUTION=4.000
##XUNITS=1/CM
##YUNITS=ABSORBANCE
##FIRSTX=649.893372
##LASTX=4000.122314
##FIRSTY=0.112410
##MAXX=4000.122314
##MINX=649.893372
##MAXY=0.277307
##MINY=-0.004074
##XFACTOR=1.000000
##YFACTOR=1.000000E-009
##NPOINTS=6950
##DELTAX=0.482117
##ZPD=6100
##XYDATA=(X++(Y..Y))
649.893 112410096 111719640 111119288 110640792 110288440 110046584 
652.786 109895016 109822816 109830200 109925144 110109128 110369984 
655.679 110680768 111011024 111339520 111666032 112008056 112392288 
658.571 112838632 113349912 113910640 114497752 115095848 115706488 
661.464 116347184 117038544 117789008 118582352 119379936 120127696 
664.357 120776216 121289832 121641808 121813584 121786792 121553120 
667.250 121131888 120595888 120061768 119634120 119358648 119204280 
670.142 119094120 118934488 118643304 118171688 117507848 116681128 
673.035 115744632 114758464 113763272 112772560 111779856 110774016 
675.928 109756216 108744928 107768336 106852168 106004864 105216032 
678.820 104460920 103713840 102960360 102200304 101443552 100699344 99968056 
682.195 99239816 98500336 97741560 96969536 96204912 95477880 94814048 
685.570 94224456 93703488 93231976 92788088 92354488 91924808 91502336 
688.945 91094184 90704072 90330976 89969928 89617280 89274288 88949856 
692.320 88655256 88400856 88191864 88027208 87903336 87819368 87779464 
695.694 87794224 87874944 88026232 88243056 88509720 88805440 89110600 
699.069 89414912 89719400 90033552 90368544 90730248 91116648 91519152 
702.444 91927880 92337152 92748504 93167496 93599320 94041560 94481960 
705.819 94899912 95275696 95594976 95855768 96066208 96241552 96396448 
709.194 96541960 96686336 96838776 97013488 97232776 97521024 97897200 
712.569 98366456 98913104 99502688 100085936 100615328 101052320 101376088 
715.943 101583360 101685352 101700896 101651232 101562504 101467032 
718.836 101403672 101420736 101567032 101878072 102365904 103003536 
721.729 103724568 104420464 104964240 105233768 105128488 104602296 
724.621 103671056 102416072 100960632 99450152 98022376 96771328 95745096 
727.996 94943904 94336056 93875288 93518232 93236944 93015312 92845776 
731.371 92721096 92629592 92555656 92485912 92413272 92340840 92279784 
734.746 92243720 92240936 92270560 92322280 92382120 92437744 92484192 
738.121 92523800 92564752 92615072 92678760 92754984 92839624 92928920 
741.496 93022000 93120944 93228280 93344224 93464608 93582056 93688808 
744.870 93780416 93857976 93927160 93994992 94064984 94136256 94203008 
748.245 94258824 94299296 94325928 94344008 94360728 94381144 94405480 
751.620 94430152 94450616 94464784 94475040 94487312 94508440 94542008 
754.995 94587000 94637912 94688184 94733848 94775888 94819656 94872008 
758.370 94938712 95020888 95116120 95219248 95326656 95437176 95552976 
761.744 95677728 95815112 95967336 96135904 96323856 96539152 96795672 
765.119 97115824 97528648 98064112 98750360 99601368 100608856 101728992 
768.494 102878856 103943744 104779856 105252808 105265648 104784496 
771.387 103857968 102610656 101222832 99872128 98704696 97801984 97167080 
774.762 96741808 96429672 96136976 95786896 95335360 94768056 94084520 
778.136 93284752 92361176 91297288 90074240 88679712 87112992 85386976 
781.511 83526208 81565344 79543520 77503312 75490416 73545632 71703736 
784.886 69990288 68417520 66988112 65698160 64541840 63515088 62616736 
788.261 61846300 61202564 60680816 60273196 59970060 59763624 59650944 
791.636 59635056 59723856 59928256 60259492 60726236 61333512 62082780 
795.010 62972136 63997136 65151588 66429020 67823928 69335856 70972744 
798.385 72755848 74723496 76925584 79421928 82266592 85486736 89061416 
801.760 92897024 96823832 100574152 103822488 106236440 107507032 107442696 
805.135 106008376 103348648 99754552 95606904 91306936 87159440 83344520 
808.510 79895288 76726392 73686360 70623488 67448488 64150400 60798644 
811.885 57505056 54397224 51578176 49105376 46995852 45230060 43769548 
815.259 42565920 41573260 40751368 40064328 39483628 38988044 38562720 
818.634 38200656 37899736 37659440 37477320 37347632 37261484 37210184 
822.009 37187516 37192028 37225384 37291524 37393168 37530964 37703784 
825.384 37910476 38151848 38431332 38753192 39120796 39534328 39990608 
828.759 40486068 41020764 41602616 42251048 42998952 43887388 44964544 
832.133 46279260 47868688 49749732 51902316 54260168 56693068 59008060 
835.508 60980748 62360692 62932796 62568248 61246820 59074980 56254356 
838.883 53058564 49760284 46589472 43720848 41246824 39193352 37538044 
842.258 36232196 35217056 34434896 33838924 33389666 33054840 32810990 
845.633 32639428 32527104 32465826 32449082 32470360 32522354 32596960 
849.008 32687012 32788586 32901730 33029526 33177242 33348802 33545844 
852.382 33767400 34011068 34275204 34559804 34867072 35200388 35563376 
855.757 35959780 36392788 36867352 37390244 37970100 38618016 39345900 
859.132 40166444 41095424 42153148 43364636 44760124 46368136 48204288 
862.507 50259284 52488284 54806132 57082980 59170124 60915784 62185620 
865.882 62897524 63029632 62629752 61802292 60700248 59502072 58372416 
869.256 57459780 56874328 56678380 56897292 57521320 58516920 59828460 
872.631 61384112 63099740 64867532 66567228 68073112 69256600 70015512 
876.006 70286400 70054368 69356688 68274728 66922664 65418260 63874864 
879.381 62385096 61004772 59757468 58634236 57604432 56625908 55659788 
882.756 54683452 53695544 52717548 51785756 50945556 50237040 49687132 
886.131 49308328 49097880 49043200 49127304 49335016 49653920 50074708 
889.505 50590596 51195112 51882416 52648944 53494432 54423364 55444252 
892.880 56568872 57810108 59179088 60685236 62333500 64121404 66033288 
896.255 68033648 70064024 72032624 73825880 75321632 76397136 76962016 
899.630 76969056 76423168 75378344 73929256 72199736 70315144 68399448 
903.005 66562244 64883656 63421868 62209628 61257768 60562752 60111668 
906.379 59889120 59879876 60072248 60458620 61034480 61797668 62748724 
909.754 63889572 65223852 66754864 68482536 70399416 72486400 74708040 
913.129 77018032 79360632 81679184 83930936 86090192 88156384 90151232 
916.504 92116640 94104936 96164472 98332384 100616384 102984392 105351024 
919.879 107579272 109496408 110900016 111610592 111508768 110566080 
922.771 108871608 106630760 104158808 101810624 99956792 98931496 98955760 
926.146 100122776 102359440 105443176 108999392 112557608 115654248 
929.039 117856760 118865784 118557536 116970432 114277288 110714240 
931.932 106545168 101999200 97254784 92456440 87712464 83115880 78759456 
935.306 74727272 71096640 67933376 65279416 63157836 61573412 60515904 
938.681 59963176 59879988 60217200 60900988 61831516 62893196 63948840 
942.056 64863876 65527172 65854296 65807648 65396228 64673796 63724040 
945.431 62645832 61543212 60502000 59585984 58834180 58259448 57856176 
948.806 57606252 57487728 57477444 57553548 57698120 57893768 58124428 
952.181 58377456 58642772 58915456 59195716 59487216 59795564 60125064 
955.555 60478348 60855820 61256892 61681284 62129684 62603304 63102580 
958.930 63626020 64169988 64729556 65300176 65879516 66467516 67066172 
962.305 67677736 68303336 68942240 69593168 70255160 70929240 71618392 
965.680 72326648 73056760 73809304 74582520 75373504 76180648 77005136 
969.055 77851240 78725376 79632832 80577176 81559224 82578416 83635544 
972.429 84734112 85880736 87083472 88349648 89682736 91083104 92548472 
975.804 94076664 95668104 97325424 99052768 100853120 102726704 104671224 
979.179 106683792 108763912 110915584 113147192 115468424 117886448 
982.072 120403128 123013592 125706808 128466112 131270736 134090048 
984.964 136876896 139567360 142071328 144279472 146083392 147379920 
987.857 148095504 148199328 147705376 146673232 145195616 143400256 
990.750 141428128 139420656 137519280 135838928 134464080 133448120 
993.643 132808704 132537288 132608024 132990408 133654464 134574720 
996.535 135731664 137106640 138679232 140428864 142332192 144366960 
999.428 146512784 148745712 151033424 153332880 155581504 157704896 
1002.321 159626112 161271024 162586448 163545504 164150416 164432016 
1005.213 164446832 164276496 164015040 163768928 163648800 163748688 
1008.106 164145968 164890848 166002848 167478320 169297424 171435520 
1010.999 173865712 176562736 179501648 182650864 185972928 189429152 
1013.891 192980384 196595984 200253488 203928432 207584560 211159696 
1016.784 214551456 217631920 220254832 222280672 223614432 224220320 
1019.677 224141216 223490496 222454208 221270624 220185776 219455376 
1022.570 219300640 219877040 221278144 223518960 226549424 230263520 
1025.462 234526576 239197408 244124960 249167984 254186608 259028432 
1028.355 263544320 267587328 271023552 273756608 275726432 276909024 
1031.249 277307008 276937600 275827168 274007872 271525664 268440608 
1034.142 264821136 260741584 256269248 251458400 246358352 241019872 
1037.035 235504864 229899440 224305424 218831600 213590048 208674304 
1039.928 204157888 200095456 196514816 193418560 190775600 188519232 
1042.821 186538080 184678784 182777728 180667408 178215920 175357952 
1045.714 172100432 168524880 164761776 160979936 157349024 154014304 
1048.607 151098032 148679264 146796480 145453376 144622944 144256656 
1051.500 144290416 144659088 145300704 146158912 147188016 148343200 
1054.393 149573632 150821040 152010960 153057008 153875456 154385040 
1057.286 154520704 154242336 153532896 152403328 150891488 149067040 
1060.179 147026416 144883552 142771744 140818832 139136816 137820032 
1063.072 136929712 136498832 136534192 137018512 137912400 139151200 
1065.965 140652944 142310944 144000288 145599152 146987472 148066656 
1068.858 148772272 149067616 148944192 148413088 147498160 146229536 
1071.751 144639632 142764240 140638432 138296144 135773264 133107112 
1074.645 130342048 127536816 124761048 122097768 119640144 117473400 
1077.538 115674096 114301256 113386560 112937896 112934544 113332104 
1080.431 114055944 115004856 116062800 117093208 117962832 118564152 
1083.324 118822824 118720256 118294016 117635544 116869640 116135304 
1086.217 115577016 115314912 115442832 116022328 117074888 118584696 
1089.110 120495784 122724416 125157120 127663824 130121352 132411704 
1092.003 134437984 136131632 137442256 138338512 138803648 138832976 
1094.896 138434288 137629360 136456832 134969376 133231432 131322456 
1097.789 129325000 127322880 125396448 123604072 121976912 120508936 
1100.682 119157160 117845336 116478792 114972216 113261744 111325392 
1103.575 109187880 106917552 104613296 102381008 100330248 98553208 97115952 
1106.950 96063400 95413856 95164416 95293848 95767808 96542088 97563576 
1110.326 98777400 100124992 101541576 102961872 104312680 105513808 
1113.219 106489784 107169128 107495664 107438544 106991144 106172000 
1116.112 105017112 103577304 101909616 100070504 98117440 96100808 94061032 
1119.487 92029768 90025568 88057200 86126872 84235304 82385464 80586624 
1122.862 78852336 77200184 75648096 74209904 72895784 71711440 70659984 
1126.238 69744832 68971408 68347512 67883240 67588408 67469816 67528800 
1129.613 67758976 68145048 68659736 69266360 69919408 70564120 71147024 
1132.988 71621056 71951632 72126936 72159048 72084376 71953976 71828976 
1136.363 71770536 71825776 72026912 72383400 72881944 73486376 74141400 
1139.739 74782728 75337240 75735624 75922288 75853704 75505632 74871264 
1143.114 73957384 72781904 71371088 69760480 67990328 66106284 64158848 
1146.489 62195332 60261168 58397320 56635348 55000784 53512272 52181188 
1149.864 51013820 50011428 49170864 48484832 47943348 47535084 47248428 
1153.240 47073176 47001612 47027864 47147512 47356716 47651064 48025944 
1156.615 48477200 49001844 49598760 50268064 51010728 51826520 52713172 
1159.990 53666036 54677888 55739532 56839128 57962636 59090620 60198056 
1163.365 61255632 62227640 63076600 63767560 64267060 64548260 64591816 
1166.740 64385480 63926460 63221492 62287640 61149884 59839524 58392732 
1170.116 56844264 55228480 53578052 51921324 50285440 48695536 47172484 
1173.491 45735732 44400452 43177804 42075528 41098120 40247828 39525580 
1176.866 38931752 38466556 38130144 37922332 37843340 37893804 38075596 
1180.241 38392564 38850544 39456776 40218672 41142596 42232932 43491336 
1183.617 44915856 46501140 48234128 50091252 52037024 54016732 55958800 
1186.992 57783384 59399864 60723532 61686748 62239648 62361608 62060988 
1190.367 61375524 60364948 59104592 57680748 56173880 54657412 53193932 
1193.742 51828764 50595696 49517980 48608996 47876680 47322688 46942616 
1197.118 46724720 46648608 46686792 46801656 46949556 47085876 47162176 
1200.493 47134808 46967500 46632408 46116220 45421016 44565528 43581224 
1203.868 42508984 41395580 40282688 39206700 38195192 37264192 36422408 
1207.243 35671848 35010928 34436292 33943636 33528484 33185542 32909594 
1210.619 32696300 32543030 32449652 32418058 32451938 32554708 32728310 
1213.994 32972648 33285302 33661584 34095212 34578500 35101732 35652388 
1217.369 36217072 36780832 37329216 37851148 38338272 38786268 39193896 
1220.744 39562016 39892820 40190468 40461228 40713852 40959520 41211808 
1224.120 41484048 41787820 42131716 42520056 42952492 43424136 43926688 
1227.495 44448644 44975716 45494156 45991624 46460240 46899244 47316000 
1230.870 47725764 48148200 48607032 49126264 49727700 50432932 51262888 
1234.245 52237536 53378264 54704912 56234556 57980776 59951612 62149524 
1237.621 64571864 67210928 70053200 73076168 76249720 79534376 82882112 
1240.996 86245920 89580096 92844712 96009408 99047440 101933040 104639432 
1244.371 107133632 109377432 111330528 112946232 114176560 114975112 
1247.264 115296592 115106080 114384248 113129992 111361352 109111064 
1250.157 106422976 103343056 99920552 96210376 92271176 88172752 83995496 
1253.532 79820056 75730496 71805920 68109728 64694756 61596624 58831900 
1256.908 56400984 54287316 52461248 50879652 49492248 48246164 47085876 
1260.283 45963264 44840204 43689960 42500728 41273712 40021232 38762216 
1263.658 37519584 36316952 35174304 34107576 33127892 32240260 31445194 
1267.033 30738958 30115252 29566032 29083366 28661116 28294832 27982038 
1270.409 27721772 27513056 27354408 27244040 27180120 27161884 27190702 
1273.784 27269586 27402368 27592388 27840388 28143002 28491540 28870808 
1277.159 29260546 29634174 29960904 30211078 30357022 30379338 30271184 
1280.534 30038338 29698706 29276956 28802434 28301586 27795240 27299574 
1283.910 26825162 26379752 25970780 25605630 25291852 25036422 24844362 
1287.285 24719232 24663328 24678968 24769322 24938364 25190260 25527402 
1290.660 25949286 26452146 27027340 27662196 28339924 29037628 29727444 
1294.035 30379088 30959866 31442418 31809334 32056544 32195188 32249470 
1297.411 32253858 32244150 32255356 32317958 32454152 32679364 33001210 
1300.786 33418718 33920208 34482384 35072776 35649044 36166220 36585020 
1304.161 36872980 37012448 37000324 36848452 36579720 36224348 35818704 
1307.536 35397876 34993616 34632932 34333544 34104316 33945968 33853180 
1310.912 33817220 33829076 33882128 33971580 34094496 34248528 34430628 
1314.287 34636952 34863984 35108948 35370376 35648396 35943152 36254600 
1317.662 36582172 36924744 37281812 37654420 38044204 38452940 38879932 
1321.037 39319784 39761972 40189852 40581736 40915464 41169076 41325496 
1324.413 41376880 41327132 41194432 41009076 40813896 40656756 40581228 
1327.788 40623464 40803124 41121576 41563016 42100316 42702516 43339376 
1331.163 43988136 44634560 45270948 45895388 46508884 47114420 47715852 
1334.538 48317372 48922732 49533056 50145624 50752496 51341904 51897648 
1337.914 52401844 52837464 53188240 53441140 53587348 53623296 53551700 
1341.289 53381788 53129220 52813256 52455864 52080988 51710060 51362376 
1344.664 51054256 50797000 50598528 50462516 50388868 50370972 50395272 
1348.039 50440780 50477888 50472304 50392628 50212564 49919308 49516124 
1351.415 49023764 48478384 47925664 47419984 47013240 46749996 46664136 
1354.790 46770660 47064276 47517748 48087828 48718292 49346708 49918044 
1358.165 50384144 50710488 50879244 50888484 50753204 50502268 50181288 
1361.540 49847280 49559648 49378112 49346520 49484004 49781056 50200516 
1364.916 50685352 51161448 51552208 51784264 51791880 51534224 50999584 
1368.291 50212676 49227752 48121476 46978356 45868980 44848912 43951616 
1371.666 43189844 42564460 42070456 41703852 41463848 41351588 41365872 
1375.041 41498484 41733616 42050524 42427032 42845952 43297164 43778276 
1378.417 44294072 44856700 45485508 46205216 47046068 48038752 49203444 
1381.792 50539376 52010056 53542820 55022556 56306296 57251284 57717232 
1385.167 57597776 56841316 55471504 53600956 51413696 49144188 47005232 
1388.542 45145680 43639948 42489036 41649472 41055764 40642384 40349332 
1391.917 40123308 39921040 39703876 39440812 39113652 38719576 38272660 
1395.293 37796596 37317228 36852096 36407132 35980296 35568516 35174048 
1398.668 34810236 34499640 34267316 34134356 34110376 34193356 34372272 
1402.043 34633328 34962008 35345572 35774376 36240304 36735756 37253616 
1405.418 37786876 38329260 38877288 39430616 39992388 40568164 41163540 
1408.794 41782388 42425132 43088588 43767536 44457088 45153656 45855432 
1412.169 46561368 47268232 47970140 48659176 49327812 49973728 50601728 
1415.544 51224900 51861804 52533788 53260448 54055756 54924596 55859120 
1418.919 56836596 57821956 58773476 59651548 60422940 61064796 61566768 
1422.295 61930856 62175180 62334340 62458164 62597796 62794208 63069052 
1425.670 63421296 63835412 64290688 64771944 65270864 65785864 66320076 
1429.045 66878988 67471744 68111712 68820048 69623072 70543464 71596472 
1432.420 72782496 74089480 75496640 76985472 78547072 80180016 81888544 
1435.796 83671744 85516672 87393056 89265896 91109424 92908680 94656248 
1439.171 96337752 97925480 99367592 100591768 101520776 102073920 102182280 
1442.546 101798264 100894920 99473312 97565856 95243552 92608472 89778880 
1445.921 86887136 84053080 81377040 78939512 76789576 74942688 73378896 
1449.297 72053864 70911720 69902976 69003144 68217344 67578768 67129472 
1452.672 66903376 66903876 67098960 67416128 67753016 67996096 68026904 
1456.047 67765488 67208992 66456816 65677428 65034300 64640916 64540416 
1459.422 64733556 65204680 65931968 66889576 68039472 69332664 70698616 
1462.798 72042440 73261608 74247800 74916776 75235136 75230608 74980208 
1466.173 74574688 74099432 73613536 73149448 72722672 72332440 71963128 
1469.548 71579168 71124104 70524672 69701184 68600752 67227288 65661928 
1472.923 64039944 62506720 61169072 60072476 59218348 58588580 58165300 
1476.299 57938596 57901528 58040116 58325464 58713240 59153532 59594308 
1479.674 59994520 60330452 60595932 60803636 60979604 61160908 61388004 
1483.049 61704888 62162296 62812284 63707972 64894736 66396200 68201248 
1486.424 70249816 72438056 74608600 76561912 78087240 78963400 79006080 
1489.800 78114488 76298464 73692448 70512752 67009568 63394680 59806744 
1493.175 56328628 52990280 49801608 46786232 43988684 41480108 39344776 
1496.550 37651564 36432604 35676776 35345504 35387340 35752864 36401008 
1499.925 37292604 38386592 39639584 41000740 42416912 43838196 45204652 
1503.301 46448256 47485144 48192812 48415780 47979168 46739404 44675064 
1506.676 41950924 38886344 35809024 32936294 30344552 28014974 25898640 
1510.051 23955906 22167624 20536892 19076650 17794556 16689500 15749246 
1513.426 14956035 14291187 13737872 13280259 12899850 12576663 12293560 
1516.802 12040175 11818466 11639546 11516020 11452739 11441308 11459849 
1520.177 11481554 11484072 11463659 11439029 11442703 11502001 11624537 
1523.552 11799569 12005873 12224100 12442641 12662111 12892376 13145815 
1526.927 13429029 13739856 14069900 14411292 14761969 15127646 15518905 
1530.302 15946092 16414439 16921910 17459982 18016922 18583292 19154764 
1533.678 19733510 20322610 20923810 21533850 22146110 22751170 23340636 
1537.053 23909412 24451590 24960894 25427546 25835338 26164396 26397920 
1540.428 26533396 26584646 26576120 26532972 26468734 26382356 26261816 
1543.803 26093068 25868746 25597406 25301686 25012344 24755114 24539580 
1547.179 24359866 24198264 24036060 23861240 23675718 23493910 23336932 
1550.554 23221044 23151490 23122136 23121472 23140064 23175396 23232754 
1553.929 23322246 23452046 23622604 23825958 24045796 24262974 24453974 
1557.304 24590282 24642810 24588388 24428980 24201524 23967986 23782696 
1560.680 23670258 23629112 23641498 23684604 23735380 23775976 23796696 
1564.055 23797608 23788402 23784062 23798340 23836284 23892958 23954576 
1567.430 24004926 24029510 24021002 23981992 23924710 23866772 23824208 
1570.805 23807756 23821372 23864042 23931082 24015224 24106208 24188386 
1574.181 24242478 24249520 24196898 24087926 23944248 23799916 23683556 
1577.556 23606862 23562538 23532246 23494680 23432880 23338330 23210070 
1580.931 23053472 22875208 22680888 22473220 22252992 22021512 21782560 
1584.306 21542138 21306234 21078456 20857960 20640566 20421856 20199990 
1587.682 19977616 19761146 19557608 19372144 19205670 19056154 18921018 
1591.057 18800040 18695666 18611374 18548504 18502826 18464724 18421510 
1594.432 18361260 18277758 18172610 18053844 17932002 17816168 17711786 
1597.807 17620922 17545224 17488714 17459498 17467708 17523626 17633448 
1601.183 17798424 18015402 18279106 18584260 18925344 19295414 19681882 
1604.558 20064742 20418486 20712220 20915882 21007264 20973638 20815724 
1607.933 20545718 20184614 19755978 19281766 18782880 18277896 17785098 
1611.308 17322410 16904374 16538678 16224708 15953688 15710905 15478970 
1614.684 15242320 14989679 14716961 14430610 14146159 13884884 13666095 
1618.059 13502819 13398375 13348009 13341004 13362394 13397112 13430670 
1621.434 13454080 13466520 13476124 13496632 13542093 13621133 13733769 
1624.809 13874074 14034204 14208226 14392865 14586012 14784045 14980488 
1628.185 15166759 15335365 15483468 15614825 15737772 15862606 15996657 
1631.560 16140928 16290167 16433435 16557747 16648665 16693596 16683955 
1634.935 16617129 16499063 16344385 16172945 16002640 15844531 15701938 
1638.310 15570830 15441991 15304680 15150119 14974108 14779794 14576589 
1641.686 14377520 14193196 14027908 13878008 13732708 13577406 13396530 
1645.061 13179421 12923642 12637584 12339203 12052065 11798991 11595747 
1648.436 11449915 11361305 11323450 11324912 11346986 11364706 11342224 
1651.811 11238503 11024102 10705635 10338909 10000092 9742789 9574545 
1655.187 9472431 9404300 9344509 9277651 9197638 9105763 9006567 8904384 
1659.044 8800737 8694139 8581080 8458286 8324042 8178630 8024457 7865379 
1662.901 7706596 7554074 7414380 7293331 7194211 7116905 7056653 7004895 
1666.759 6949136 6876284 6775913 6643365 6481901 6302341 6120067 5949425 
1670.616 5800037 5676180 5576959 5497860 5431188 5366742 5291505 5192036 
1674.474 5059669 4895944 4715431 4540418 4392485 4283216 4210877 4165009 
1678.331 4131457 4099211 4063089 4026334 3996771 3982626 3985970 3999346 
1682.188 4005433 3981021 3904519 3767899 3586084 3394493 3230894 3115342 
1686.046 3047501 3014369 2999788 2990146 2976067 2953015 2918789 2873592 
1689.903 2819128 2759603 2701853 2653878 2623009 2612609 2620542 2637510 
1693.761 2649977 2642810 2605375 2538847 2459033 2390728 2352815 2351349 
1697.618 2376568 2408852 2423713 2397291 2317070 2188374 2038211 1900180 
1701.476 1799621 1742165 1719377 1716184 1717847 1711959 1689273 1645401 
1705.333 1581148 1502674 1419194 1339718 1271024 1215830 1173202 1140113 
1709.190 1112607 1088225 1066202 1048266 1037405 1035977 1044845 1062349 
1713.048 1085268 1110016 1133535 1154199 1170545 1180512 1179681 1161907 
1716.905 1121808 1059160 980780 900721 832528 786352 764943 764179 777158 
1721.245 796344 816427 835051 852712 870972 891690 915065 940433 966866 
1725.584 994629 1024784 1058862 1097359 1138385 1177555 1209916 1231746 
1729.442 1242612 1246035 1247165 1249723 1252880 1248627 1222409 1158551 
1733.299 1045808 888569 708287 537435 402798 314589 268236 250399 246487 
1737.639 243271 232099 208927 174419 133086 90730 53382 24917 7620 1921 6925 
1742.943 20808 40458 62959 85958 107698 128347 148465 168817 188772 206838 
1747.765 220330 226762 223811 209789 183634 145184 95337 36614 -25479 -84086 
1752.586 -131985 -163684 -177330 -175309 -163816 -150667 -144473 -150468 
1756.444 -169149 -195513 -221643 -241082 -250752 -252374 -250984 -253335 
1760.301 -265057 -289064 -324426 -367897 -414375 -458730 -496924 -526247 
1764.159 -544911 -552357 -549478 -538723 -524691 -512148 -505066 -504272 
1768.016 -507383 -508839 -504371 -492390 -476504 -463893 -464092 -483851 
1771.874 -524559 -579723 -638652 -690593 -729991 -756982 -775207 -788867 
1775.731 -799748 -806792 -807189 -798987 -782980 -763531 -746464 -737996 
1779.588 -740940 -754039 -772330 -789363 -800476 -804610 -804312 -802956 
1783.446 -804610 -810563 -820319 -831762 -842741 -852166 -859540 -864566 
1787.303 -865889 -861094 -847701 -824354 -792670 -757346 -725658 -706075 
1791.161 -704189 -721457 -753807 -794026 -833713 -867543 -893500 -912876 
1795.018 -927524 -938897 -947493 -952949 -955329 -954965 -952949 -950899 
1798.875 -949973 -950304 -951626 -953577 -955957 -959197 -963859 -969743 
1802.733 -975727 -979860 -979959 -975231 -965776 -953378 -940716 -929871 
1806.590 -921506 -915125 -909404 -903420 -897369 -892409 -890855 -894095 
1810.448 -902362 -914430 -927887 -940716 -951395 -960090 -967198 -973314 
1814.305 -977446 -979033 -976256 -968388 -956453 -942303 -928350 -916546 
1818.163 -906858 -897468 -886159 -870023 -847668 -818930 -784832 -746266 
1822.020 -705082 -662705 -621216 -583859 -553714 -533196 -522308 -518172 
1825.877 -515392 -508508 -494078 -472069 -446450 -423346 -408251 -404047 
1829.735 -408615 -416030 -418579 -410568 -390408 -360381 -325353 -289726 
1833.592 -256414 -226345 -198195 -170606 -142519 -113568 -83721 -52381 
1837.450 -17593 23625 74425 136865 210849 294827 385785 480510 576749 672412 
1842.271 765540 853708 934257 1004957 1065804 1119815 1171342 1224536 
1846.129 1281093 1339186 1393797 1438142 1466534 1475876 1466234 1440536 
1849.986 1402606 1355207 1298706 1231746 1152704 1061751 961752 858423 
1853.844 757574 664481 580929 506251 437556 371889 307460 244001 181745 
1858.183 121254 62064 3644 -54468 -110786 -163154 -208230 -243466 -269230 
1862.523 -288071 -303633 -319890 -338365 -357700 -375080 -387230 -392560 
1866.380 -392990 -392990 -397525 -411065 -434004 -463231 -493880 -520257 
1870.238 -539021 -549875 -554243 -553979 -551331 -547956 -544911 -544084 
1874.095 -547393 -556196 -571484 -592231 -616154 -640406 -662903 -682951 
1877.953 -702337 -723078 -746894 -773917 -802361 -829116 -851802 -869890 
1881.810 -884671 -899551 -917241 -938996 -963429 -987926 -1008323 -1022008 
1885.667 -1028058 -1027429 -1022240 -1015199 -1008852 -1005744 -1008323 
1889.043 -1019232 -1039891 -1069838 -1105566 -1141325 -1170636 -1188447 
1892.418 -1192842 -1185870 -1172917 -1159533 -1150247 -1145819 -1143473 
1895.793 -1139078 -1128668 -1111416 -1089405 -1066797 -1047626 -1034305 
1899.168 -1026669 -1023463 -1022570 -1023628 -1026967 -1033446 -1043098 
1902.544 -1054204 -1063227 -1067524 -1065244 -1057641 -1048519 -1041709 
1905.919 -1040189 -1044420 -1051923 -1059360 -1064979 -1068979 -1073870 
1909.294 -1083059 -1097998 -1117497 -1137128 -1151470 -1155931 -1149487 
1912.669 -1133823 -1112143 -1088182 -1063657 -1038503 -1012918 -988290 
1916.045 -967528 -956321 -959098 -977380 -1007959 -1043197 -1074234 -1094329 
1919.902 -1101435 -1098295 -1090859 -1085075 -1084513 -1089735 -1098857 
1923.277 -1109466 -1119678 -1129791 -1139904 -1150049 -1158311 -1161813 
1926.653 -1157881 -1146282 -1129295 -1111978 -1099320 -1093503 -1093602 
1930.028 -1095817 -1095618 -1090760 -1083158 -1077473 -1079093 -1090793 
1933.403 -1110325 -1131080 -1145555 -1147306 -1134914 -1111813 -1084315 
1936.778 -1058369 -1036520 -1018405 -1001083 -983133 -965181 -951163 -945576 
1940.636 -951857 -969082 -991893 -1013182 -1026603 -1029545 -1024355 
1944.011 -1014670 -1004455 -994141 -981843 -964388 -941079 -915092 -893169 
1947.868 -883150 -889367 -909967 -937872 -962503 -973975 -968024 -947725 
1951.726 -920349 -896112 -882026 -880836 -891152 -909140 -930698 -954205 
1955.583 -979727 -1008158 -1039230 -1071557 -1101964 -1129064 -1152263 
1958.958 -1172851 -1193239 -1213956 -1233747 -1250102 -1260509 -1263681 
1962.334 -1262987 -1263417 -1268471 -1281058 -1298964 -1316934 -1330346 
1965.709 -1336292 -1335532 -1333055 -1333352 -1338274 -1346102 -1352312 
1969.084 -1352609 -1345541 -1334178 -1322616 -1315712 -1313598 -1311979 
1972.459 -1305108 -1288029 -1260113 -1227172 -1196807 -1174106 -1157980 
1975.835 -1140598 -1109103 -1053047 -970735 -871312 -772429 -692413 -643913 
1979.692 -631307 -650199 -690494 -743851 -804047 -868336 -934731 -999497 
1983.550 -1055592 -1094891 -1110986 -1103616 -1079027 -1048981 -1026768 
1986.925 -1020719 -1032024 -1055162 -1082034 -1104707 -1120505 -1131047 
1990.300 -1140135 -1150809 -1162012 -1168786 -1164688 -1146513 -1115547 
1993.675 -1078729 -1045114 -1022438 -1014438 -1019529 -1032751 -1048882 
1997.051 -1065045 -1079853 -1095717 -1113829 -1134352 -1154841 -1172851 
2000.426 -1185969 -1195155 -1203944 -1216632 -1236192 -1263714 -1296552 
2003.801 -1331502 -1364533 -1391782 -1411401 -1420053 -1414538 -1391815 
2007.176 -1350165 -1291333 -1222282 -1154444 -1096841 -1058236 -1039429 
2010.552 -1035330 -1038801 -1042767 -1043362 -1042668 -1044783 -1052287 
2013.927 -1064351 -1075986 -1079555 -1068912 -1042999 -1006207 -967528 
2017.302 -935393 -913703 -900973 -892310 -880736 -863012 -840856 -818169 
2021.159 -801104 -792273 -789892 -789462 -785659 -775670 -760654 -744678 
2025.017 -732638 -728503 -733001 -745075 -763168 -786849 -816086 -849884 
2028.874 -885366 -915257 -930136 -922200 -888077 -832059 -764160 -697739 
2032.732 -643251 -605102 -579822 -559505 -535050 -500598 -455916 -403583 
2036.589 -347867 -290918 -232770 -171964 -108136 -43535 16401 66438 102429 
2040.929 123607 133849 138025 139947 139218 133815 118437 90962 53448 12326 
2045.750 -22729 -41316 -38168 -11663 34427 93249 157017 218706 272082 312566 
2050.572 336739 343669 335180 317440 298010 285941 288660 308587 343039 
2054.912 386282 429961 468668 500711 527316 551236 574493 595196 610028 
2059.251 615105 609198 594632 577612 565236 562881 571971 588594 606378 
2063.591 619219 623068 617626 605880 590949 574493 556245 533653 504559 
2067.931 469166 429928 391257 358956 336606 325531 325431 333986 349505 
2072.270 370497 396066 424720 454870 484092 510066 531695 549544 565070 
2076.610 580233 595561 610625 623533 632956 638531 642281 646760 654724 
2080.949 667235 682832 698330 709714 714792 713796 709183 704802 704304 
2085.289 709316 719770 733710 748546 762818 775066 784726 790535 791365 
2089.629 785688 773008 754487 732714 711373 694414 683562 679381 680244 
2093.968 685089 693120 705565 723620 748347 779216 813174 845641 872765 
2098.308 892221 904008 911147 916592 922702 931103 940832 951192 962715 
2102.647 976895 996555 1024718 1062349 1108488 1160943 1216063 1270957 
2106.505 1324164 1374817 1422185 1465603 1503006 1532732 1554678 1570207 
2110.362 1582977 1597576 1617397 1643073 1672808 1702213 1726330 1743030 
2114.220 1751646 1754740 1755838 1758300 1763357 1771474 1781222 1791303 
2118.077 1801451 1811566 1821880 1832195 1841113 1847302 1850130 1850530 
2121.935 1851095 1855654 1867567 1888698 1918617 1955061 1995236 2037246 
2125.792 2080424 2125173 2171857 2219845 2266773 2309442 2344420 2369838 
2129.649 2385564 2392660 2393893 2391394 2386663 2382232 2379900 2382965 
2133.507 2394792 2417849 2451435 2492123 2533281 2568877 2594542 2610209 
2137.364 2619909 2630343 2645944 2668747 2695485 2720157 2735995 2738829 
2141.222 2727259 2703687 2672014 2635343 2595009 2551078 2502454 2449269 
2145.079 2394293 2339822 2287791 2239595 2191838 2142088 2088382 2030920 
2148.937 1972335 1916553 1863940 1812331 1755971 1687045 1600303 1495558 
2152.794 1377177 1253279 1131442 1015020 903145 793157 683131 578541 493380 
2157.134 445417 451122 517497 634250 778718 921772 1036409 1107956 1135794 
2161.473 1129881 1104435 1074108 1048598 1032556 1027607 1032523 1045974 
2165.331 1065438 1086232 1102508 1107258 1094469 1061087 1007747 937810 
2169.188 856265 768096 676062 582555 489433 399283 316280 245460 190463 
2173.528 153404 132456 124171 123607 126689 130368 132722 131296 122812 
2177.867 104318 72602 28562 -23955 -77758 -125526 -160670 -182828 -195380 
2182.207 -205746 -220649 -244559 -276846 -314593 -351906 -383886 -408383 
2186.064 -424934 -433640 -435659 -430926 -418314 -398353 -372333 -343265 
2189.922 -314394 -288567 -266084 -246248 -228167 -210085 -194088 -181669 
2193.779 -173985 -171169 -170772 -168387 -160869 -146427 -126354 -104624 
2197.636 -85609 -71497 -61359 -51984 -38765 -20178 2783 25679 41684 45694 
2202.458 36482 16136 -10006 -35783 -56522 -70205 -76466 -76201 -70404 -59073 
2207.280 -42873 -23756 -4771 9741 16070 12591 795 -15108 -30184 -40388 
2212.102 -44463 -43701 -39957 -34988 -27765 -16301 1722 27303 57690 87979 
2216.924 111908 125132 126358 118205 105279 92553 82776 76612 72503 68891 
2221.745 65046 62197 62031 65676 72669 79893 84036 82246 73961 60772 46754 
2227.049 35256 27999 24784 23857 22664 20742 17925 16666 19516 28297 43374 
2232.353 64218 89272 117111 146908 177336 207501 236608 262931 286339 307858 
2237.175 329278 352722 379882 409597 439248 464721 482666 491324 492750 
2241.515 489997 488604 493082 505853 527151 556013 589888 626618 665211 
2245.854 703939 741476 776261 806568 831200 850986 866955 880999 894711 
2250.194 907926 919448 928247 933859 937976 943986 955841 976164 1004891 
2254.533 1037837 1069059 1091779 1100880 1094702 1075270 1046871 1014389 
2258.391 981909 951856 924960 901651 881497 864531 850587 838902 828179 
2262.730 817456 806302 796145 789970 791132 802684 825158 856364 891823 
2267.070 926055 954347 974338 985861 990477 990909 988750 985496 981378 
2271.410 976895 971980 967132 963412 960789 959726 960822 964874 974006 
2275.749 989813 1014256 1047104 1086398 1128021 1167222 1199849 1223971 
2279.607 1240153 1251484 1261719 1274613 1291329 1311767 1334400 1356603 
2283.464 1376612 1393033 1404733 1411282 1412479 1408290 1399448 1387781 
2287.322 1375083 1363549 1354841 1349091 1345269 1341878 1337558 1332007 
2291.179 1326490 1322635 1322103 1325859 1332606 1340383 1347263 1351484 
2295.036 1352946 1352847 1352913 1354708 1358697 1363948 1369333 1373222 
2298.894 1374850 1374285 1372191 1369466 1366541 1363483 1359993 1355905 
2302.751 1351152 1345834 1340084 1333669 1325992 1315955 1303359 1287939 
2306.609 1270758 1253013 1236531 1221878 1209418 1198287 1187157 1175229 
2310.466 1161541 1146491 1130512 1114334 1098389 1082877 1067564 1052119 
2314.323 1036276 1019172 1000606 979552 955243 927450 896537 863369 830038 
2318.663 798269 770021 746289 727503 713033 702346 694182 686781 677589 
2323.003 663286 640024 604354 554354 490262 415401 334617 253648 178330 
2327.342 111742 55271 8382 -30449 -62651 -88525 -108202 -121452 -128739 
2331.682 -131853 -132880 -133774 -135662 -137749 -138411 -135927 -129369 
2335.539 -119266 -107871 -97800 -91175 -88723 -89287 -90943 -91572 -89154 
2339.879 -82562 -71696 -56688 -36976 -12623 16567 50565 89305 133318 184761 
2344.701 247051 324868 421669 538297 670952 811780 948768 1070022 1164299 
2349.040 1223240 1242911 1223506 1169481 1088125 988917 881098 772013 666936 
2353.380 568123 476098 390627 311472 239028 173756 116349 67499 27104 -4870 
2358.202 -28461 -43237 -48803 -44662 -30946 -8117 22664 59214 99976 143394 
2363.023 189402 237967 290085 346289 406645 470625 536904 604221 672246 
2367.363 741211 811946 886278 965106 1049096 1137920 1230816 1326756 1424911 
2371.703 1524951 1626311 1728592 1830898 1932129 2031487 2128702 2223909 
2375.560 2318869 2414550 2512518 2613075 2715923 2819695 2922892 3023844 
2379.417 3121116 3213569 3300399 3380735 3454473 3521676 3583445 3641446 
2383.275 3697583 3753862 3811184 3869683 3928023 3984566 4037571 4085899 
2387.132 4129416 4168488 4204319 4237542 4268627 4297806 4324912 4350280 
2390.990 4374611 4398677 4423413 4449289 4476270 4503655 4530775 4556724 
2394.847 4580966 4603268 4623763 4642685 4660435 4677985 4696540 4717675 
2398.705 4743334 4774555 4811876 4854595 4901138 4949630 4998060 5045188 
2402.562 5090746 5135000 5178321 5221244 5264170 5307537 5352385 5399920 
2406.419 5451454 5508464 5571152 5638886 5710053 5782576 5854641 5925542 
2410.277 5995481 6064892 6134819 6204993 6274708 6342652 6406974 6466935 
2414.134 6522463 6574601 6624693 6674118 6723616 6773119 6822561 6870998 
2417.992 6917691 6961627 7001830 7037255 7067227 7091981 7112392 7131085 
2421.849 7150688 7174403 7204721 7242521 7287468 7338720 7394394 7453379 
2425.707 7515236 7580037 7648016 7719716 7794667 7872870 7954124 8038835 
2429.564 8127751 8222120 8322454 8428994 8541406 8658410 8778996 8902118 
2433.421 9027372 9154355 9282796 9412054 9541350 9670109 9797924 9925133 
2437.279 10052547 10181458 10313122 10448015 10586244 10727506 10871362 
2440.654 11017508 11165505 11314710 11464000 11611843 11756571 11896851 
2444.029 12032238 12163067 12290526 12415500 12538669 12659518 12776887 
2447.405 12889406 12995980 13097013 13193391 13286988 13379581 13472604 
2450.780 13566262 13660590 13755040 13849375 13943662 14038038 14132810 
2454.155 14227808 14322691 14416704 14509538 14601397 14692797 14785039 
2457.530 14879289 14976029 15075329 15176161 15277360 15377210 15474266 
2460.906 15567360 15655907 15739970 15820097 15898177 15976204 16056960 
2464.281 16142821 16235748 16336920 16446717 16564941 16691428 16826354 
2467.656 16970142 17123594 17287722 17462844 17649150 17846580 18054776 
2471.031 18273680 18503274 18743196 18992562 19249690 19511926 19776162 
2474.406 20039410 20299452 20554576 20803870 21046598 21281456 21507286 
2477.782 21721770 21922702 22108072 22275870 22424582 22552996 22660222 
2481.157 22745478 22808644 22850236 22871540 22874930 22863088 22838608 
2484.532 22804070 22761294 22711926 22657116 22597880 22534918 22468894 
2487.907 22399496 22325890 22246890 22160440 22065050 21959192 21841648 
2491.283 21711950 21569924 21415730 21249860 21072858 20885738 20689214 
2494.658 20483920 20269662 20045518 19810042 19561420 19298564 19021674 
2498.033 18732230 18433574 18129668 17824624 17521970 17224248 16932072 
2501.408 16645979 16365098 16088799 15816696 15548850 15285357 15026859 
2504.784 14773967 14527696 14289475 14060899 13843149 13637271 13443451 
2508.159 13261059 13089569 12928011 12776239 12634309 12502724 12381816 
2511.534 12271644 12171620 12080341 11996983 11920656 11851324 11789355 
2514.909 11735260 11689409 11652138 11622937 11601701 11588702 11584448 
2518.285 11589484 11604254 11628076 11659456 11696285 11736077 11777303 
2521.660 11819555 11862969 11908499 11956927 12008360 12061569 12115501 
2525.035 12168212 12218375 12265202 12308218 12346771 12380112 12406431 
2528.410 12424161 12431390 12427025 12410932 12383658 12346395 12300787 
2531.786 12248638 12191316 12130356 12066917 12002398 11937787 11874104 
2535.161 11811656 11750749 11691178 11632773 11575703 11520136 11466313 
2538.536 11414809 11365726 11318757 11273902 11230784 11189474 11149935 
2541.911 11112746 11077768 11045343 11014892 10985699 10956950 10927320 
2545.287 10896231 10863140 10828183 10791904 10755492 10719966 10686515 
2548.662 10655749 10627769 10602066 10577621 10553584 10529039 10504225 
2552.037 10479276 10455312 10433150 10412956 10394935 10378747 10363884 
2555.412 10350345 10338298 10327983 10319432 10312375 10306335 10299956 
2558.788 10292390 10282891 10271321 10258022 10243129 10226675 10208425 
2562.163 10187631 10164397 10138721 10111962 10085509 10060923 10038712 
2565.538 10018673 9999719 9980664 9960661 9940625 9921675 9906318 9896318 
2569.396 9892860 9895403 9902623 9912488 9923471 9935065 9947541 9961847 
2573.253 9979138 9999583 10022504 10046715 10070350 10091817 10110503 
2576.628 10126273 10140044 10153441 10168331 10186308 10208799 10236344 
2580.003 10268641 10304639 10342506 10380241 10416621 10450290 10481584 
2583.379 10511251 10540446 10570593 10602440 10636495 10672728 10711103 
2586.754 10751925 10795402 10842417 10893242 10948116 11007041 11068965 
2590.129 11133006 11197770 11261762 11323790 11382766 11437839 11488937 
2593.504 11536571 11581760 11626204 11671335 11718036 11766239 11815129 
2596.880 11863207 11909179 11952159 11992077 12029615 12065896 12101463 
2600.255 12137000 12172710 12208356 12244549 12281733 12321034 12363748 
2603.630 12410864 12462452 12518377 12577414 12638812 12701720 12766070 
2607.005 12831965 12900123 12970750 13044257 13120918 13200837 13284256 
2610.381 13371381 13462248 13556553 13653785 13753057 13853515 13954371 
2613.756 14054909 14154717 14253556 14351012 14446504 14539756 14630388 
2617.131 14718538 14804752 14889713 14974142 15058348 15142159 15224990 
2620.506 15306259 15385311 15461665 15535492 15606617 15675316 15741585 
2623.882 15805528 15867246 15927222 15985794 16043551 16100936 16157642 
2627.257 16213253 16266879 16317654 16365476 16410585 16453978 16496722 
2630.632 16540054 16584700 16630417 16676862 16722830 16767461 16809684 
2634.007 16848776 16884532 16916812 16946336 16973934 17000636 17027718 
2637.383 17056252 17087096 17120356 17156236 17194222 17233834 17274758 
2640.758 17316548 17359032 17402036 17445218 17488300 17531422 17574514 
2644.133 17618714 17664850 17714444 17767734 17825556 17887632 17952964 
2647.508 18020824 18090078 18160138 18230622 18301398 18372286 18442908 
2650.884 18512542 18580870 18647412 18712200 18775476 18837998 18900530 
2654.259 18963832 19028944 19096316 19166330 19239128 19314396 19391374 
2657.634 19469234 19546724 19622704 19696582 19768254 19837718 19905770 
2661.009 19973072 20040416 20108050 20176180 20244736 20313548 20382578 
2664.385 20451862 20521296 20590846 20660338 20729526 20797684 20864600 
2667.760 20929964 20993736 21056094 21117448 21178362 21239354 21301084 
2671.135 21363728 21427354 21491828 21556866 21622054 21687672 21753612 
2674.510 21820640 21889492 21960900 22035140 22112430 22192104 22274128 
2677.885 22358086 22443912 22531776 22621928 22714402 22808924 22905002 
2681.261 23001940 23099770 23198498 23298858 23401794 23508112 23618126 
2684.636 23731740 23848080 23966272 24085754 24206358 24328536 24452956 
2688.011 24580358 24711444 24846220 24985074 25127692 25274046 25424066 
2691.386 25577620 25734498 25894278 26056300 26220072 26385280 26551500 
2694.762 26719088 26888080 27058654 27230884 27404944 27580840 27759140 
2698.137 27940552 28125574 28314778 28508026 28704902 28904558 29105934 
2701.512 29308362 29511628 29715770 29921038 30127504 30335170 30543326 
2704.887 30751582 30959048 31165296 31370040 31573276 31774826 31974256 
2708.263 32171604 32366398 32559068 32749924 32939688 33129144 33319038 
2711.638 33509552 33700436 33891296 34081380 34270112 34456668 34640792 
2715.013 34821944 34999468 35172864 35341476 35504548 35661776 35812624 
2718.388 35957188 36095748 36228920 36357304 36482300 36605096 36727460 
2721.764 36851156 36977776 37109192 37246788 37392052 37546136 37709780 
2725.139 37883756 38068252 38263324 38468364 38682920 38906096 39137112 
2728.514 39374704 39617732 39864524 40113164 40361696 40608404 40851864 
2731.889 41091420 41326988 41558420 41785924 42008844 42226176 42436276 
2735.265 42637448 42828368 43008060 43176556 43333920 43481304 43619944 
2738.640 43750936 43875840 43996236 44113220 44228804 44344488 44461712 
2742.015 44582236 44707416 44838996 44978512 45127588 45287536 45459276 
2745.390 45643268 45838640 46044672 46259356 46480340 46704388 46928108 
2748.766 47147436 47357496 47554420 47734120 47893956 48032384 48149160 
2752.141 48244832 48320184 48376148 48412892 48430600 48428820 48406816 
2755.516 48364072 48299408 48211692 48099452 47961332 47796512 47603996 
2758.891 47384100 47137652 46865692 46569888 46251876 45913688 45557888 
2762.267 45187336 44805928 44417964 44028324 43641524 43261988 42893312 
2765.642 42538620 42200760 41882172 41585292 41312192 41064612 40843420 
2769.017 40649116 40481156 40338932 40221476 40127956 40057240 40008120 
2772.392 39978948 39967684 39971572 39987700 40012952 40044852 40080500 
2775.768 40118072 40155360 40190288 40220492 40243464 40257096 40258988 
2779.143 40247864 40222676 40183380 40130904 40067056 39994168 39915520 
2782.518 39834708 39754928 39679224 39609600 39547064 39491828 39442772 
2785.893 39398144 39355624 39312568 39266032 39213480 39152376 39080952 
2789.269 38998084 38903268 38797172 38680964 38555804 38423944 38287132 
2792.644 38147940 38008400 37871464 37739636 37615936 37502928 37402736 
2796.019 37317736 37249568 37199572 37169216 37159652 37171992 37206828 
2799.394 37264300 37343912 37444632 37564816 37702988 37857544 38026984 
2802.770 38210280 38406316 38613960 38831740 39058004 39291056 39528628 
2806.145 39768796 40009464 40248772 40484540 40714976 40937492 41149116 
2809.520 41346704 41526480 41684740 41818396 41924900 42003040 42052792 
2812.895 42075496 42073048 42047900 42002380 41938840 41859296 41766188 
2816.271 41662712 41552368 41439392 41328920 41226056 41136256 41064176 
2819.646 41014320 40990324 40994768 41029324 41094080 41187804 41308440 
2823.021 41451892 41614572 41791688 41978732 42171624 42366280 42559232 
2826.396 42746972 42926340 43094592 43249944 43390856 43516976 43629140 
2829.771 43728872 43818516 43901356 43980836 44060296 44143040 44232180 
2833.147 44329296 44436388 44554624 44685272 44829588 44989644 45167072 
2836.522 45364404 45583680 45827300 46097948 46399036 46735160 47112684 
2839.897 47539040 48023428 48576016 49206744 49925700 50742956 51667884 
2843.272 52710292 53880060 55185512 56632628 58222128 59945980 61782808 
2846.648 63695656 65632060 67519160 69273432 70806720 72029144 72868624 
2850.023 73275224 73228584 72740696 71853728 70635416 69162872 67521288 
2853.398 65793112 64047164 62342220 60722656 59216984 57842168 56604240 
2856.773 55500760 54522600 53657116 52890268 52207232 51594592 51040652 
2860.149 50535168 50069872 49637760 49232944 48850348 48486164 48137056 
2863.524 47800844 47476568 47164540 46866688 46586632 46329244 46100488 
2866.899 45906620 45753220 45644592 45582984 45568372 45598660 45669360 
2870.274 45774056 45904852 46052004 46204736 46352504 46484800 46593456 
2873.650 46673804 46724128 46746676 46746376 46730068 46704352 46675756 
2877.025 46649160 46627540 46613008 46606364 46607732 46617320 46635216 
2880.400 46661664 46697860 46744752 46803980 46876728 46963252 47062540 
2883.775 47172408 47289804 47410932 47532240 47651468 47767296 47879936 
2887.151 47990676 48101596 48215432 48334704 48462752 48602884 48758624 
2890.526 48934264 49134424 49364452 49631000 49942164 50307720 50739756 
2893.901 51251328 51855720 52564936 53386772 54322384 55363172 56489016 
2897.276 57667204 58850228 59984248 61008548 61863760 62503732 62897028 
2900.652 63035412 62932992 62625276 62163328 61602084 60999700 60408012 
2904.027 59867628 59411872 59063628 58838276 58746352 58794456 58986764 
2907.402 59326740 59817164 60461936 61265936 62234448 63371988 64679868 
2910.777 66154012 67781248 69537248 71388464 73288320 75180528 77006520 
2914.153 78702136 80206920 81471560 82456528 83139872 83517176 83600112 
2917.528 83413216 82988792 82364552 81576664 80657792 79637576 78538264 
2920.903 77377896 76170464 74926144 73654168 72364024 71065760 69772264 
2924.278 68498200 67258280 66067548 64938672 63880392 62897600 61990896 
2927.654 61156940 60389544 59680404 59020396 58399744 57809120 57239868 
2931.029 56684308 56136132 55590416 55043508 54493228 53938092 53377968 
2934.404 52812988 52244600 51674564 51105276 50539224 49979264 49428196 
2937.779 48888984 48365332 47861584 47382880 46935196 46524076 46154508 
2941.155 45829692 45550892 45316404 45122884 44964288 44832748 44719428 
2944.530 44614108 44505616 44383940 44239624 44065984 43860628 43625328 
2947.905 43367016 43095796 42824596 42567200 42335192 42138284 41982200 
2951.280 41868856 41796140 41759368 41751380 41763524 41787276 41814492 
2954.656 41838096 41852944 41855460 41843460 41816388 41774728 41719500 
2958.031 41652972 41577892 41497316 41414680 41333328 41256076 41184852 
2961.406 41120920 41064720 41016032 40974084 40937744 40905888 40877272 
2964.781 40850736 40825436 40801192 40778300 40757556 40740308 40727748 
2968.156 40721564 40723200 40734228 40756572 40792860 40845384 40916956 
2971.532 41009220 41123144 41258080 41411908 41580920 41760100 41942380 
2974.907 42120108 42283368 42422172 42526856 42589020 42603640 42569832 
2978.282 42491592 42376400 42234724 42078672 41918844 41764620 41623656 
2981.657 41500304 41397364 41315472 41252944 41205948 41168276 41131996 
2985.033 41087632 41025716 40938476 40819832 40667308 40481120 40264584 
2988.408 40022944 39761972 39488276 39207276 38923528 38640360 38359988 
2991.783 38083516 37811672 37545196 37284336 37029768 36781696 36539604 
2995.158 36302184 36067160 35831624 35592396 35347012 35093612 34831852 
2998.534 34562532 34287468 34008704 33728652 33449530 33173166 32901086 
3001.909 32634712 32375216 32123722 31881038 31647898 31424712 31211436 
3005.284 31007904 30813398 30627014 30447782 30274806 30107368 29945426 
3008.659 29789364 29639638 29496982 29361570 29233006 29110080 28990942 
3012.035 28873782 28757046 28639846 28522074 28404406 28287794 28173124 
3015.410 28061348 27953024 27848548 27748156 27652342 27561106 27474792 
3018.785 27393476 27317146 27245630 27179134 27117548 27061334 27010698 
3022.160 26965882 26927034 26894178 26867634 26847578 26834714 26829814 
3025.536 26834184 26848424 26873028 26907996 26952204 27003576 27059464 
3028.911 27115996 27168762 27212960 27243934 27257978 27252472 27226650 
3032.286 27181426 27119170 27043280 26957704 26866400 26772614 26679588 
3035.661 26589646 26504128 26423412 26347182 26273786 26201666 26129662 
3039.037 26057250 25985166 25915028 25848876 25788324 25733828 25684964 
3042.412 25639900 25597372 25555902 25515630 25477224 25442020 25411526 
3045.787 25386126 25365928 25350018 25337372 25327292 25319564 25314436 
3049.162 25311872 25312048 25314752 25319494 25325642 25333368 25342640 
3052.538 25353916 25367720 25384370 25403762 25425720 25450102 25477014 
3055.913 25506706 25539456 25575336 25614136 25654872 25696986 25739806 
3059.288 25783122 25827462 25873458 25921430 25972010 26024988 26080190 
3062.663 26137510 26197582 26261148 26329228 26402532 26480954 26563826 
3066.039 26649676 26736388 26822412 26906092 26986192 27061898 27131904 
3069.414 27195324 27251274 27299186 27339518 27373394 27402332 27428132 
3072.789 27452698 27477300 27502574 27529086 27557010 27586454 27617456 
3076.164 27650118 27683736 27718206 27752606 27786796 27820462 27853846 
3079.540 27887128 27920374 27953556 27986456 28018864 28050920 28083014 
3082.915 28115712 28149224 28183694 28219052 28254802 28290906 28328394 
3086.290 28368574 28413568 28465536 28525752 28593978 28668762 28747346 
3089.665 28826864 28904876 28979960 29051694 29120746 29187894 29254132 
3093.041 29320626 29387876 29457088 29529148 29604518 29684052 29767220 
3096.416 29853172 29941096 30029888 30118876 30208236 30298184 30389288 
3099.791 30481690 30574894 30668546 30761966 30855054 30948266 31042070 
3103.166 31137316 31234542 31333216 31432622 31531978 31630184 31726952 
3106.542 31822100 31916268 32009818 32102886 32195724 32288368 32380928 
3109.917 32473862 32567636 32663148 32760788 32860662 32962672 33066638 
3113.292 33172130 33278826 33385944 33492908 33598500 33701760 33801892 
3116.667 33898672 33992652 34084820 34176684 34269252 34363204 34458032 
3120.042 34553024 34647108 34739632 34830628 34920676 35010928 35102700 
3123.418 35196504 35292812 35391620 35492644 35595564 35700156 35805928 
3126.793 35912592 36019604 36126068 36231332 36335072 36437216 36538200 
3130.168 36638660 36739540 36841488 36945344 37051200 37159076 37268740 
3133.543 37379736 37491012 37601956 37711624 37819624 37926168 38032192 
3136.919 38138648 38246712 38357020 38469592 38583976 38698856 38813516 
3140.294 38927300 39040236 39152668 39265520 39379312 39494588 39611452 
3143.669 39729508 39848544 39968192 40088272 40208604 40329408 40450608 
3147.044 40572456 40694856 40818268 40942480 41067416 41192576 41317220 
3150.420 41440484 41561408 41679524 41795044 41908152 42020264 42132372 
3153.795 42245788 42361276 42479168 42599252 42720536 42841896 42962040 
3157.170 43079992 43195408 43308404 43420368 43533128 43648556 43768084 
3160.545 43892264 44020472 44151252 44282588 44412420 44539864 44664488 
3163.921 44786868 44908324 45030216 45153216 45277828 45403508 45529220 
3167.296 45653900 45776560 45896160 46012552 46126024 46237536 46348192 
3170.671 46459208 46571436 46685240 46800068 46915044 47029416 47142712 
3174.046 47254560 47365880 47477160 47588688 47700540 47811792 47921520 
3177.422 48029128 48134284 48237648 48340556 48444488 48549964 48657544 
3180.797 48766188 48875152 48983520 49091056 49198028 49304912 49412156 
3184.172 49519800 49627396 49734240 49839736 49943952 50047268 50150940 
3187.547 50255792 50362752 50471896 50583484 50696968 50811972 50928048 
3190.923 51044452 51160516 51275080 51386732 51494232 51596908 51694680 
3194.298 51788444 51879504 51969648 52060256 52152720 52247852 52346296 
3197.673 52448052 52552748 52659676 52767532 52874812 52979872 53081288 
3201.048 53178612 53271724 53361556 53448976 53535172 53620936 53706908 
3204.424 53793604 53881184 53970092 54060296 54150896 54241100 54329628 
3207.799 54415628 54499012 54581020 54663388 54748060 54836656 54929296 
3211.174 55024172 55118996 55210908 55298208 55380672 55459724 55537584 
3214.549 55617080 55699564 55785836 55874984 55965584 56056016 56145068 
3217.925 56231916 56316368 56398684 56479280 56558720 56638064 56718136 
3221.300 56800080 56884752 56972504 57063220 57156484 57251360 57347088 
3224.675 57442988 57538796 57633644 57727524 57819836 57910692 58000580 
3228.050 58090680 58182120 58276200 58373364 58472944 58573788 58674248 
3231.426 58773060 58869732 58964868 59059568 59154444 59249828 59344900 
3234.801 59438392 59529436 59617648 59704164 59790812 59879800 59972456 
3238.176 60068860 60168560 60270076 60372524 60475492 60579324 60684284 
3241.551 60790336 60896800 61001988 61104188 61202756 61297832 61391516 
3244.927 61486788 61586548 61692820 61806528 61927188 62053420 62183668 
3248.302 62316592 62450936 62585660 62719284 62850572 62978068 63101204 
3251.677 63220144 63336024 63450316 63564608 63679880 63796036 63912600 
3255.052 64028388 64143256 64257264 64371452 64486980 64604932 64725748 
3258.427 64848720 64972608 65095804 65216532 65333680 65446652 65555608 
3261.803 65661236 65764732 65867068 65969764 66073412 66178240 66284144 
3265.178 66389756 66493852 66594996 66691920 66784108 66872104 66956528 
3268.553 67038724 67120392 67202528 67285856 67370744 67456768 67542536 
3271.928 67627088 67708904 67787480 67862752 67936240 68010088 68086632 
3275.304 68167920 68254872 68347432 68444208 68543408 68643520 68743648 
3278.679 68843536 68943720 69044736 69147032 69250816 69355864 69462000 
3282.054 69569208 69677688 69787168 69897496 70008040 70118416 70228592 
3285.429 70339344 70452024 70568600 70690664 70818768 70952568 71090552 
3288.805 71230792 71371904 71513536 71656336 71802040 71952528 72109056 
3292.180 72272560 72443216 72620832 72805376 72996976 73195608 73400832 
3295.555 73611848 73827408 74046728 74269112 74495416 74727080 74965680 
3298.930 75212560 75467864 75730304 75997904 76267888 76538672 76809344 
3302.306 77080152 77352552 77628528 77910192 78199656 78498792 78808720 
3305.681 79129944 79462040 79803256 80151528 80504904 80862152 81223648 
3309.056 81591328 81967328 82353864 82751720 83159704 83574888 83994176 
3312.431 84415032 84836344 85259064 85685472 86117824 86558016 87006184 
3315.807 87461904 87923944 88391272 88863128 89339320 89819464 90302824 
3319.182 90788272 91274720 91760776 92246264 92731432 93216288 93701392 
3322.557 94185968 94669064 95149648 95626976 96101176 96572840 97042280 
3325.932 97509032 97972264 98429416 98878280 99317360 99745752 100162960 
3329.308 100568848 100961888 101339680 101699136 102036960 102351304 
3332.201 102641880 102909504 103155704 103381520 103586176 103768368 
3335.094 103925808 104057112 104162480 104243096 104300888 104337408 
3337.987 104352544 104344744 104311712 104250920 104161168 104042040 
3340.880 103894496 103719104 103516616 103286736 103028616 102741608 
3343.773 102425176 102079248 101703616 101297848 100861320 100393240 
3346.666 99893648 99364256 98808176 98229840 97632896 97020736 96394544 
3350.041 95753976 95098256 94427224 93741688 93044784 92339944 91631168 
3353.417 90921432 90212352 89504728 88798768 88094616 87393296 86695984 
3356.792 86004152 85319064 84641976 83974072 83316704 82672072 82041960 
3360.167 81428192 80831976 80252760 79689232 79140080 78603488 78078512 
3363.542 77564984 77062896 76572736 76094384 75628264 75174504 74734128 
3366.917 74308784 73899680 73508040 73133216 72773056 72424464 72083472 
3370.293 71746696 71412408 71079776 70749312 70421432 70095840 69771336 
3373.668 69445984 69117696 68784568 68445952 68101472 67751432 67395896 
3377.043 67034812 66667812 66294408 65914340 65527560 65134300 64734712 
3380.418 64328380 63914976 63493384 63063188 62623932 62175560 61718560 
3383.794 61253344 60780200 60299652 59812640 59320360 58824500 58327164 
3387.169 57830168 57335028 56842940 56354620 55870424 55391100 54917524 
3390.544 54450704 53991404 53539896 53096004 52658480 52226440 51798412 
3393.919 51373308 50950176 50528208 50106572 49684900 49263636 48843896 
3397.295 48427968 48018840 47618672 47229180 46849896 46478532 46111432 
3400.670 45745012 45375956 45003204 44627324 44250264 43874632 43502988 
3404.045 43136268 42774868 42418264 42065640 41715780 41368244 41022116 
3407.420 40676916 40332136 39987808 39644084 39301940 38962668 38627652 
3410.796 38298100 37974876 37657780 37346656 37041244 36741164 36446624 
3414.171 36157796 35874660 35596784 35323076 35052264 34783532 34516324 
3417.546 34251000 33988388 33729224 33473906 33222344 32973540 32726452 
3420.921 32480076 32234370 31989594 31747092 31508322 31274314 31045520 
3424.297 30821936 30602802 30387262 30174208 29963142 29753382 29544860 
3427.672 29337428 29131374 28927186 28724972 28525116 28327546 28132434 
3431.047 27939456 27748438 27559128 27371630 27185694 27001988 26820686 
3434.422 26642102 26466338 26293180 26122940 25955196 25789662 25626016 
3437.798 25463944 25302704 25141596 24979704 24816400 24651228 24484470 
3441.173 24316866 24149292 23983254 23819868 23659972 23503668 23349798 
3444.548 23196856 23042850 22886384 22726064 22562522 22396950 22231510 
3447.923 22069026 21911098 21758800 21612130 21469824 21330352 21192834 
3451.299 21055918 20919290 20783190 20646924 20510320 20372714 20234010 
3454.674 20093994 19953436 19813268 19674532 19538060 19404090 19271858 
3458.049 19140774 19009870 18878902 18747902 18617530 18487854 18359426 
3461.424 18231834 18104760 17977792 17851138 17725178 17600634 17478020 
3464.800 17357480 17238384 17120356 17002496 16885116 16768562 16653933 
3468.175 16541673 16432367 16325360 16219618 16114106 16007865 15900893 
3471.550 15793605 15686790 15581133 15476669 15373193 15270256 15167754 
3474.925 15066341 14966941 14870889 14778800 14690912 14606710 14524817 
3478.301 14443832 14362348 14279716 14195490 14109465 14021337 13930968 
3481.676 13838805 13745464 13652828 13563151 13479098 13401793 13331847 
3485.051 13267858 13207327 13147659 13086701 13023532 12958665 12893911 
3488.426 12831317 12772144 12716663 12663885 12612375 12560360 12507157 
3491.802 12453041 12399578 12347998 12300378 12257432 12219124 12184262 
3495.177 12151720 12120271 12089334 12060036 12033464 12011732 11996438 
3498.552 11988228 11986559 11989932 11996267 12003454 12010369 12016603 
3501.927 12023211 12031625 12043786 12060956 12083951 12112911 12147495 
3505.302 12187534 12232995 12283846 12340124 12401693 12467942 12538089 
3508.678 12611591 12687936 12767605 12850975 12938729 13031214 13128431 
3512.053 13229120 13332326 13436445 13540624 13643733 13745499 13845407 
3515.428 13942567 14036258 14125553 14209800 14288618 14362315 14431193 
3518.803 14495937 14556133 14611199 14659792 14699824 14729027 14745034 
3522.179 14745960 14730089 14696567 14645159 14576349 14491004 14389817 
3525.554 14273552 14142531 13996562 13836000 13661957 13476124 13281591 
3528.929 13081408 12878894 12675826 12473431 12272019 12070938 11869813 
3532.304 11668407 11466347 11263462 11059143 10852948 10644407 10433828 
3535.680 10222367 10011823 9804160 9600898 9402269 9207622 9015701 8825251 
3539.537 8636372 8450177 8268755 8094903 7930232 7775068 7628019 7486616 
3543.395 7347684 7208090 7065409 6918128 6766052 6609823 6450926 6291886 
3547.252 6135525 5985066 5842853 5710221 5586792 5470579 5358792 5248139 
3551.109 5136241 5021623 4904489 4785912 4667535 4551233 4438476 4330367 
3554.967 4227873 4132059 4043256 3961125 3885396 3814259 3746008 3678803 
3558.824 3611275 3542688 3472676 3401573 3329347 3256264 3182894 3110503 
3562.682 3040794 2975834 2917021 2864520 2815393 2765005 2706887 2634343 
3566.539 2543679 2435075 2313173 2185644 2061448 1947406 1847302 1761859 
3570.396 1689672 1627840 1573333 1523122 1474313 1424313 1371493 1314293 
3574.254 1252780 1187854 1121509 1055540 991773 930903 872167 814535 756877 
3578.594 698098 638697 579669 522506 468668 418950 373912 333290 297413 
3582.933 266214 239393 216783 196595 176772 153305 122281 79893 24387 -44430 
3587.755 -122876 -205481 -285952 -358527 -419142 -467104 -503610 -531641 
3591.612 -555170 -578896 -606393 -639744 -679742 -724963 -773256 -822039 
3595.470 -869295 -913736 -954800 -992224 -1025777 -1055328 -1080679 -1103055 
3599.327 -1123644 -1144266 -1167398 -1194296 -1224992 -1258461 -1292026 
3602.702 -1322814 -1348844 -1368695 -1382237 -1390494 -1395085 -1398223 
3606.078 -1402417 -1410575 -1425569 -1450304 -1485803 -1531303 -1583699 
3609.453 -1638135 -1689593 -1734808 -1772627 -1804173 -1832681 -1860725 
3612.828 -1890384 -1921394 -1951775 -1978756 -2000558 -2016850 -2029382 
3616.203 -2041849 -2057711 -2080531 -2111725 -2151588 -2198568 -2249334 
3619.579 -2301049 -2350386 -2394972 -2433293 -2464791 -2489336 -2507521 
3622.954 -2520270 -2527649 -2529592 -2525442 -2514142 -2495727 -2471479 
3626.329 -2445583 -2425056 -2419059 -2436160 -2481528 -2552552 -2639109 
3629.704 -2725617 -2799630 -2854506 -2891141 -2914904 -2933038 -2951205 
3633.080 -2972760 -2996848 -3020112 -3038703 -3048903 -3049824 -3043737 
3636.455 -3034031 -3024982 -3019520 -3019586 -3024818 -3034129 -3045711 
3639.830 -3058444 -3071605 -3084633 -3097431 -3109143 -3118189 -3122696 
3643.205 -3120953 -3111610 -3093976 -3068874 -3037518 -3002015 -2965191 
3646.581 -2930438 -2901673 -2883834 -2881892 -2899764 -2939687 -3000402 
3649.956 -3076178 -3157960 -3234596 -3296553 -3336833 -3353635 -3349032 
3653.331 -3328942 -3300992 -3273074 -3253342 -3246830 -3255512 -3277546 
3656.706 -3308029 -3340483 -3369581 -3392332 -3407948 -3417712 -3423399 
3660.082 -3427147 -3430960 -3436088 -3443649 -3454102 -3467119 -3481253 
3663.457 -3494729 -3504951 -3509060 -3504393 -3489208 -3462550 -3425141 
3666.832 -3379083 -3328317 -3277184 -3230387 -3190721 -3157861 -3126150 
3670.207 -3085554 -3024126 -2931557 -2801440 -2633412 -2432140 -2207172 
3673.583 -1972588 -1750154 -1567720 -1454531 -1433693 -1511228 -1673981 
3676.958 -1896356 -2151687 -2418499 -2680011 -2924613 -3142039 -3323845 
3680.333 -3465771 -3568546 -3637027 -3680003 -3706285 -3722415 -3731679 
3683.708 -3734570 -3729938 -3717422 -3698368 -3676783 -3657365 -3645701 
3687.083 -3645964 -3659731 -3685325 -3718900 -3755660 -3791398 -3823520 
3690.459 -3851929 -3876099 -3896065 -3911302 -3921350 -3925783 -3925980 
3693.834 -3923156 -3919249 -3915768 -3913765 -3912845 -3911926 -3909004 
3697.209 -3902272 -3890319 -3873604 -3853275 -3832683 -3815506 -3805915 
3700.584 -3807459 -3821418 -3846707 -3879547 -3914651 -3945977 -3969124 
3703.960 -3980911 -3980780 -3969584 -3949063 -3921481 -3889104 -3853899 
3707.335 -3818232 -3784336 -3754773 -3732369 -3719492 -3718079 -3729643 
3710.710 -3752933 -3785879 -3823520 -3859843 -3888972 -3906179 -3909004 
3714.085 -3898495 -3877840 -3852159 -3827034 -3808280 -3799478 -3802401 
3717.461 -3816228 -3837840 -3863128 -3888315 -3910547 -3928738 -3942759 
3720.836 -3953430 -3961113 -3966005 -3967909 -3967088 -3964265 -3961638 
3724.211 -3961933 -3967745 -3980714 -4000412 -4024542 -4048342 -4066265 
3727.586 -4073815 -4068070 -4048670 -4017714 -3978941 -3936750 -3895310 
3730.962 -3857840 -3825885 -3799478 -3778358 -3762426 -3753492 -3754937 
3734.337 -3770704 -3803353 -3851666 -3909496 -3967482 -4014529 -4043057 
3737.712 -4050673 -4039676 -4015251 -3982618 -3945977 -3907197 -3866214 
3741.087 -3823454 -3780197 -3740976 -3713020 -3703657 -3718802 -3757138 
3744.463 -3808379 -3855443 -3882831 -3884112 -3861847 -3824735 -3782693 
3747.838 -3746166 -3721890 -3713151 -3720083 -3739958 -3768536 -3802302 
3751.213 -3838398 -3873997 -3905720 -3929329 -3941051 -3939278 -3924765 
3754.588 -3901155 -3873341 -3846510 -3824538 -3809758 -3802302 -3801251 
3757.964 -3805291 -3813437 -3825622 -3840861 -3857676 -3872783 -3882372 
3761.339 -3883225 -3873997 -3856001 -3832913 -3809922 -3791628 -3781281 
3764.714 -3779671 -3784763 -3792416 -3798624 -3800759 -3798361 -3793073 
3768.089 -3787062 -3783547 -3784106 -3789591 -3799182 -3811597 -3825063 
3771.465 -3838299 -3850287 -3861026 -3870221 -3878365 -3884670 -3888414 
3774.840 -3888644 -3884276 -3874621 -3860237 -3842503 -3823618 -3806375 
3778.215 -3793073 -3785190 -3782693 -3784237 -3787949 -3791956 -3795503 
3781.590 -3798065 -3800463 -3802992 -3804667 -3804667 -3801481 -3793992 
3784.966 -3782759 -3769522 -3756744 -3747185 -3743046 -3744589 -3751258 
3788.341 -3761211 -3772741 -3784204 -3794715 -3803846 -3811400 -3816524 
3791.716 -3818528 -3816261 -3809463 -3798427 -3784861 -3771065 -3759142 
3795.091 -3750897 -3746429 -3743965 -3740319 -3732303 -3716535 -3692586 
3798.467 -3661768 -3628451 -3599140 -3580968 -3580606 -3600685 -3638374 
3801.842 -3683682 -3724058 -3748696 -3751751 -3734505 -3702901 -3666959 
3805.217 -3636731 -3621025 -3624409 -3646161 -3679083 -3713381 -3739991 
3808.592 -3754280 -3756087 -3748104 -3734406 -3718178 -3700635 -3681448 
3811.968 -3660027 -3635909 -3610115 -3586193 -3567921 -3559804 -3564011 
3815.343 -3579489 -3600126 -3617509 -3623226 -3612087 -3584155 -3544292 
3818.718 -3500744 -3463733 -3442959 -3446114 -3475534 -3526019 -3585634 
3822.093 -3640838 -3680462 -3699288 -3698926 -3685193 -3665678 -3647443 
3825.469 -3635844 -3633215 -3638867 -3649775 -3661571 -3671591 -3677571 
3828.844 -3679477 -3678163 -3674614 -3669062 -3661373 -3649972 -3633379 
3832.219 -3610181 -3580048 -3543701 -3503210 -3462123 -3424056 -3393286 
3835.594 -3373526 -3367148 -3374809 -3394436 -3421920 -3452064 -3479643 
3838.969 -3501303 -3516554 -3526677 -3534038 -3541828 -3552114 -3566541 
3842.345 -3585338 -3608472 -3634201 -3660552 -3684635 -3703263 -3713841 
3845.720 -3714137 -3703361 -3682006 -3651812 -3614551 -3571766 -3524737 
3849.095 -3473792 -3419816 -3364222 -3311054 -3266694 -3239891 -3240253 
3852.470 -3274422 -3342094 -3432636 -3528024 -3609918 -3666433 -3695707 
3855.846 -3702376 -3694064 -3677078 -3656281 -3633741 -3610805 -3587376 
3859.221 -3564635 -3543438 -3525296 -3511755 -3503571 -3500810 -3503210 
3862.596 -3510342 -3521812 -3537226 -3555696 -3574757 -3590728 -3599239 
3865.971 -3597136 -3583432 -3560593 -3534038 -3510243 -3495551 -3493448 
3869.347 -3503078 -3518427 -3530653 -3532987 -3522667 -3502914 -3480990 
3872.722 -3465771 -3464555 -3480300 -3510933 -3549288 -3586061 -3612843 
3876.097 -3624409 -3620795 -3605515 -3583794 -3561612 -3543701 -3533052 
3879.472 -3529700 -3531836 -3535485 -3536175 -3530686 -3517605 -3498016 
3882.848 -3475534 -3454891 -3442005 -3441939 -3456830 -3484869 -3518986 
3886.223 -3549551 -3566936 -3565720 -3545738 -3512314 -3473266 -3437666 
3889.598 -3414063 -3407389 -3418994 -3445194 -3479380 -3513530 -3540973 
3892.973 -3558227 -3564372 -3560330 -3547842 -3528418 -3503407 -3474252 
3896.349 -3442498 -3410348 -3380200 -3354260 -3334236 -3320557 -3312402 
3899.724 -3307931 -3305695 -3304379 -3303919 -3305760 -3311581 -3323549 
3903.099 -3342949 -3369483 -3401209 -3434806 -3466790 -3493415 -3512347 
3906.474 -3522437 -3524080 -3518558 -3507942 -3494269 -3479840 -3466100 
3909.850 -3454332 -3444832 -3437666 -3431880 -3426292 -3419651 -3410709 
3913.225 -3398710 -3384376 -3368693 -3353898 -3342818 -3337097 -3337984 
3916.600 -3344692 -3354917 -3365110 -3372244 -3374283 -3370173 -3361460 
3919.975 -3349427 -3336242 -3323484 -3312172 -3302735 -3295698 -3291686 
3923.351 -3291325 -3295007 -3302867 -3313981 -3326575 -3338576 -3347684 
3926.726 -3352451 -3351794 -3345678 -3334367 -3318453 -3299085 -3277414 
3930.101 -3255545 -3235780 -3221243 -3214073 -3214929 -3223348 -3236635 
3933.476 -3251796 -3265937 -3277151 -3285011 -3290437 -3294909 -3299184 
3936.852 -3303294 -3305925 -3305234 -3299578 -3288332 -3272613 -3254625 
3940.227 -3237688 -3224664 -3217691 -3217494 -3223184 -3232491 -3243081 
3943.602 -3252026 -3258012 -3260182 -3258998 -3255512 -3250777 -3246041 
3946.977 -3241996 -3238740 -3236602 -3235320 -3234859 -3235221 -3236800 
3950.353 -3239727 -3244002 -3248869 -3253046 -3255184 -3254164 -3249330 
3953.728 -3241009 -3230222 -3218546 -3207265 -3197398 -3188945 -3182038 
3957.103 -3175854 -3170196 -3164736 -3159506 -3154375 -3149901 -3145986 
3960.478 -3142796 -3140756 -3140559 -3142796 -3148157 -3156216 -3166052 
3963.854 -3175558 -3183057 -3186018 -3183781 -3176248 -3164177 -3149276 
3967.229 -3133190 -3117170 -3102398 -3089436 -3078612 -3070025 -3063643 
3970.604 -3059365 -3056766 -3055022 -3053476 -3051502 -3049034 -3046303 
3973.979 -3043737 -3041697 -3040085 -3038341 -3035775 -3031497 -3025509 
3977.354 -3018336 -3011096 -3005502 -3002607 -3003199 -3007082 -3013827 
3980.730 -3022218 -3031003 -3039328 -3045810 -3049758 -3050383 -3047192 
3984.105 -3039887 -3029391 -3016493 -3002870 -2989971 -2978848 -2970621 
3987.480 -2965751 -2964204 -2965817 -2970522 -2977631 -2986581 -2995993 
3990.855 -3004713 -3011820 -3016361 -3018401 -3018665 -3017842 -3017118 
3994.231 -3016921 -3017282 -3017579 -3017315 -3016295 -3014847 -3013564 
3997.606 -3013169 -3014716 -3018006 -3022712 -3028733 -3034919 -3040710 
##END=
