
##TITLE=Z413_2_b
##JCAMP-DX=5.01  $$ Nicolet v. 1
##DATATYPE=INFRARED SPECTRUM
##ORIGIN=UniL
##OWNER=Nicolet
##LONGDATE=2011/09/21
##TIME=15:20:43
##SPECTROMETER/DATA SYSTEM=Nicolet iS5
##DATA PROCESSING=
Ratio against background
%Transmittance->Absorbance
Truncated
ElementMultiply or ElementDivide
##COMMENTS=
Number of sample scans: 32
Collection length: 51.19 sec
Sample gain: 2.0
Background collected on: Mer Sep 21 15:15:46 2011 (GMT+02:00);
Number of background scans: 32
Background gain: 2.0
Sample spacing:  1.000
Number of scan points: 12415
Resolution points: 8192
Number of FFT points: 65536
Apodization: N-B fort;
Phase correction: Mertz;
Laser frequency: 15798.0 cm-1
Number of rejected sample scans: 0
Number of rejected background scans: 0
Bench serial number: ASB1000141;
##RESOLUTION=4.000
##XUNITS=1/CM
##YUNITS=ABSORBANCE
##FIRSTX=649.893372
##LASTX=4000.122314
##FIRSTY=0.120654
##MAXX=4000.122314
##MINX=649.893372
##MAXY=0.285801
##MINY=-0.006262
##XFACTOR=1.000000
##YFACTOR=1.000000E-009
##NPOINTS=6950
##DELTAX=0.482117
##ZPD=6100
##XYDATA=(X++(Y..Y))
649.893 120653536 120103088 119656688 119344304 119153584 119047224 
652.786 118982984 118940152 118924208 118963112 119086664 119310024 
655.679 119625832 120008784 120430712 120874768 121343680 121852848 
658.571 122417504 123041480 123710984 124402696 125098080 125792312 
661.464 126498472 127237424 128024072 128855016 129707008 130541232 
664.357 131319864 132014648 132603168 133065344 133376808 133505480 
667.250 133431048 133171496 132796912 132396456 132034872 131718472 
670.142 131406304 131031472 130529824 129863232 129027840 128057968 
673.035 127008032 125935720 124877064 123838272 122805072 121759768 
675.928 120697464 119631024 118585968 117583720 116632368 115721368 
678.820 114829544 113937040 113038512 112143808 111274104 110447624 
681.713 109672224 108941312 108239712 107551688 106869664 106196072 
684.606 105539536 104906056 104294568 103695752 103098560 102497288 
687.498 101897968 101316256 100771176 100277112 99835888 99437192 99063960 
690.873 98702992 98350704 98015736 97713096 97457776 97257352 97109360 
694.248 97005200 96936312 96900736 96904872 96960960 97079944 97267880 
697.623 97521392 97830672 98183440 98570968 98990216 99442152 99928136 
700.998 100445352 100984760 101533712 102079288 102612040 103128976 
703.890 103629248 104110760 104567384 104986728 105354992 105663344 
706.783 105912464 106114384 106287016 106450536 106618640 106797928 
709.676 106989824 107197328 107429720 107704688 108043568 108462960 
712.569 108966728 109541088 110155288 110766832 111335024 111826744 
715.461 112221368 112512392 112702672 112801512 112821920 112784120 
718.354 112717144 112656976 112647784 112732784 112941208 113281912 
721.247 113732064 114238016 114713536 115057712 115171168 114968160 
724.139 114403824 113482424 112263624 110847872 109360168 107926720 
727.032 106638976 105550400 104670888 103979056 103437776 103011064 
729.925 102675456 102418376 102233056 102112072 102040648 101998152 
732.817 101964456 101925120 101876808 101826160 101784656 101760656 
735.710 101755080 101761408 101769824 101773008 101771120 101770752 
738.603 101782272 101814272 101868432 101940120 102020864 102103600 
741.496 102185976 102269992 102359904 102457976 102561896 102665424 
744.388 102761256 102845560 102919584 102989176 103060592 103136296 
747.281 103212976 103282904 103338056 103374504 103395272 103408600 
750.174 103423648 103446016 103474104 103501352 103520400 103527544 
753.066 103526456 103526160 103537176 103566152 103612680 103668744 
755.959 103723648 103769216 103802872 103828760 103854720 103887840 
758.852 103931160 103982728 104038080 104093072 104146888 104201976 
761.744 104262048 104330208 104407232 104492184 104586192 104695808 
764.637 104834224 105024080 105294104 105672184 106183376 106839320 
767.530 107631664 108523016 109445032 110302792 110976584 111352624 
770.423 111344912 110917296 110101952 108995600 107746256 106504304 
773.315 105398960 104507792 103844080 103367568 103003712 102675624 
776.208 102315872 101879448 101343248 100691744 99909664 98978312 97875120 
779.583 96581944 95092816 93415544 91571928 89592312 87514792 85378584 
782.958 83225112 81098872 79040576 77086720 75265240 73591048 72067704 
786.332 70690816 69451384 68341384 67354832 66488212 65739056 65103584 
789.707 64576088 64149284 63816412 63572392 63415460 63346224 63367232 
793.082 63482144 63695496 64012000 64437516 64978456 65639772 66424384 
796.457 67332128 68360392 69507648 70778128 72186560 73762656 75546048 
799.832 77584472 79918824 82566272 85501704 88640704 91838464 94875504 
803.206 97490288 99420448 100424896 100355504 99185984 97030384 94118024 
806.581 90750584 87248344 83856176 80719632 77865032 75221072 72662032 
809.956 70062192 67348728 64515888 61627440 58783188 56097108 53660300 
813.331 51522768 49697348 48164156 46886544 45820596 44926880 44173884 
816.706 43535144 42990540 42524372 42124192 41781512 41490280 41246060 
820.081 41044436 40880876 40751076 40652864 40586900 40556708 40566928 
823.455 40621172 40719272 40857324 41028340 41225108 41443180 41681932 
826.830 41944136 42234612 42558176 42918808 43319824 43767316 44270772 
830.205 44846084 45516892 46311368 47262540 48404480 49763372 51350780 
833.580 53149364 55104740 57109888 59005440 60606140 61705080 62125476 
836.955 61763444 60604808 58741348 56342584 53637432 50853280 48180816 
840.329 45765184 43682484 41955008 40565292 39474812 38636632 38004132 
843.704 37538008 37203504 36970560 36815992 36720968 36672476 36663100 
847.079 36687652 36741704 36819960 36915832 37022912 37137236 37257584 
850.454 37385656 37525108 37679320 37850280 38038920 38245700 38472092 
853.829 38721132 38997248 39304512 39645500 40021016 40430496 40874216 
857.204 41355012 41878960 42456260 43099820 43823680 44644400 45580812 
860.578 46653144 47884708 49295484 50895672 52676212 54600596 56601788 
863.953 58577660 60410904 61980880 63179292 63938512 64238244 64114868 
867.328 63651764 62974356 62232000 61564896 61102244 60941860 61140848 
870.703 61724024 62683956 63989728 65587744 67406304 69359056 71334256 
874.078 73207168 74848080 76125104 76935192 77215296 76953040 76188784 
877.452 75007464 73527152 71869088 70151400 68472096 66893868 65448692 
880.827 64136988 62937088 61815356 60739880 59692000 58671404 57696872 
884.202 56799588 56017112 55380672 54909596 54609048 54471928 54483044 
887.577 54624832 54882368 55244284 55702616 56251716 56886264 57602276 
890.952 58398000 59275580 60241904 61307560 62485672 63789932 65232092 
894.327 66821284 68561984 70451168 72471208 74583728 76725840 78799576 
897.701 80684688 82251296 83369848 83944168 83924264 83314296 82170336 
901.076 80591728 78709136 76655592 74563280 72550112 70701896 69081368 
904.451 67723352 66638224 65820872 65256192 64926476 64814752 64907856 
907.826 65197824 65679660 66351688 67213672 68267200 69514496 70957560 
911.201 72593808 74412984 76392080 78490544 80656080 82825736 84933912 
914.575 86929104 88776616 90467368 92017152 93464152 94861120 96260576 
917.950 97709320 99230240 100811624 102396440 103882376 105135704 105996872 
921.325 106324088 106023560 105074424 103550088 101616688 99528568 97571496 
924.700 96043304 95211536 95250312 96227944 98074992 100600008 103489280 
928.075 106354608 108820144 110541288 111287288 110971152 109637424 
930.967 107435488 104560976 101226640 97612280 93853984 90058504 86304600 
934.342 82660688 79198296 75984840 73084360 70553048 68428224 66732220 
937.717 65472500 64644760 64234904 64217732 64556488 65193012 66046676 
941.092 67022980 68008152 68889392 69572128 69982968 70086640 69887296 
944.467 69426664 68773184 68009240 67222608 66485972 65853028 65356128 
947.841 65005288 64795172 64711092 64735980 64852840 65045656 65300828 
951.216 65603124 65937868 66291472 66653444 67018456 67386760 67762968 
954.591 68153336 68562880 68994712 69449448 69926832 70427088 70951552 
957.966 71501968 72078624 72679856 73301072 73936368 74580984 75232856 
961.341 75893128 76564712 77251360 77953920 78671680 79401880 80142560 
964.716 80893880 81659184 82442824 83248912 84079096 84932496 85806808 
968.090 86700960 87616984 88560296 89538392 90557968 91622952 92734016 
971.465 93889568 95088688 96333032 97627704 98979936 100396920 101883008 
974.840 103439712 105066528 106763224 108531488 110375456 112299376 
977.733 114305776 116393832 118559408 120797608 123106536 125488984 
980.625 127953112 130508888 133164016 135920800 138774176 141711856 
983.518 144714896 147758864 150807584 153806336 156682736 159337456 
986.411 161652928 163514640 164816752 165486720 165498128 164872192 
989.304 163676864 162014608 160022560 157851696 155652560 153575408 
992.196 151742080 150242272 149132304 148430208 148126304 148192672 
995.089 148595792 149303152 150286672 151524944 152997152 154680864 
997.982 156553424 158589824 160765296 163056992 165436624 167866592 
1000.874 170296496 172655056 174858752 176823888 178471008 179745760 
1003.767 180623616 181112464 181249952 181100288 180753072 180308992 
1006.660 179880224 179582256 179512768 179752288 180353712 181339024 
1009.552 182706928 184439824 186514656 188905328 191586224 194532080 
1012.445 197710064 201082304 204609744 208252096 211976816 215755792 
1015.338 219555120 223325280 226987840 230423328 233490048 236034192 
1018.231 237915600 239046224 239403296 239045536 238101536 236771200 
1021.123 235303712 233952192 232977136 232601872 232981024 234204784 
1024.016 236281840 239154448 242706688 246794544 251268208 255969472 
1026.909 260752256 265474768 269985312 274139168 277797568 280839872 
1029.802 283185952 284794240 285659840 285801152 285247680 284031680 
1032.695 282186016 279749792 276771808 273305440 269407584 265128400 
1035.588 260507104 255580240 250389936 244992928 239472784 233931072 
1038.481 228476448 223220640 218255584 213652992 209465968 205722576 
1041.374 202429344 199564128 197073840 194867264 192817264 190786608 
1044.267 188635744 186255472 183593760 180658976 177522144 174293440 
1047.160 171113712 168123328 165441920 163170336 161374064 160084288 
1050.053 159302032 158999984 159129584 159625440 160420848 161451520 
1052.947 162659584 163998864 165424496 166885152 168321696 169656880 
1055.840 170800544 171665504 172167760 172242128 171850480 170980096 
1058.733 169649376 167904144 165824624 163517840 161108224 158738928 
1061.626 156544976 154642752 153128288 152062208 151475120 151371104 
1064.519 151730000 152509616 153642752 155044400 156604496 158194256 
1067.412 159687984 160962096 161914912 162479984 162619312 162324192 
1070.305 161606192 160490704 159011024 157203056 155107392 152764128 
1073.198 150211552 147490144 144640880 141710848 138761776 135864800 
1076.091 133103784 130571216 128350552 126516000 125122952 124200344 
1078.984 123751952 123753496 124155624 124877640 125811648 126834912 
1081.877 127805488 128587992 129077048 129204616 128961936 128396736 
1084.770 127610520 126734864 125912072 125287056 124977920 125074696 
1087.663 125634672 126674128 128171864 130066320 132268576 134661280 
1090.556 137112320 139499232 141706576 143641552 145239312 146453280 
1093.449 147254160 147626656 147566704 147083408 146199504 144954752 
1096.343 143400848 141600016 139626752 137557808 135471024 133442000 
1099.236 131528304 129764584 128152672 126661224 125228120 123773096 
1102.129 122223136 120522976 118653888 116637960 114536008 112435560 
1105.022 110430736 108619088 107083176 105883240 105060960 104634544 
1107.915 104602120 104943696 105625144 106601584 107816664 109211016 
1110.808 110720064 112271992 113794272 115206600 116423208 117365544 
1113.701 117961912 118159680 117933480 117284624 116240304 114844176 
1116.594 113154752 111235744 109149024 106956928 104713816 102461504 
1119.487 100231576 98040776 95894152 93790528 91727624 89707008 87738136 
1122.862 85836488 84022192 82316328 80735912 79293888 77998528 76854944 
1126.238 75868144 75044200 74390920 73917240 73630776 73535784 73630496 
1129.613 73904824 74340072 74905048 75558384 76250232 76921072 77513568 
1132.988 77978344 78280624 78410592 78384240 78243648 78045800 77857104 
1136.363 77742368 77750416 77911976 78233016 78695072 79255832 79854272 
1139.739 80422824 80887224 81180392 81250936 81061488 80594120 79846504 
1143.114 78828816 77560472 76067968 74386672 72556760 70623568 68637616 
1146.489 66646144 64693676 62820056 61055372 59423612 57942532 56622700 
1149.864 55470492 54487064 53669672 53011356 52501852 52130076 51884132 
1153.240 51753468 51730552 51809500 51986116 52257008 52618532 53066728 
1156.615 53597692 54208248 54895908 55658808 56494640 57400252 58370444 
1159.990 59398232 60475380 61592464 62737392 63895600 65046384 66162340 
1163.365 67211424 68155008 68953664 69571656 69975920 70141160 70050168 
1166.740 69692904 69069096 68187528 67067756 65736940 64228988 62583132 
1170.116 60836380 59025672 57185436 55344764 53530676 51767128 50073440 
1173.491 48466752 46960780 45565172 44287356 43131804 42101376 41197564 
1176.866 40421040 39772208 39251052 38857176 38589952 38449212 38435420 
1180.241 38550520 38797972 39182184 39707944 40379256 41198220 42164720 
1183.617 43275820 44525512 45901944 47384472 48943576 50533680 52095968 
1186.992 53564632 54865452 55929212 56700732 57140348 57232648 56986368 
1190.367 56434152 55626644 54626408 53504964 52328432 51157348 50043992 
1193.742 49026844 48135428 47390608 46804980 46385612 46132840 46041208 
1197.118 46097064 46278044 46554764 46887876 47232432 47541956 47767000 
1200.493 47862656 47792336 47528800 47060028 46390588 45542504 44550548 
1203.868 43458892 42316712 41167984 40050376 38992464 38011036 37114428 
1207.243 36304636 35579628 34935796 34369296 33876928 33455652 33103432 
1210.619 32819104 32602352 32454368 32376784 32371466 32439586 32580208 
1213.994 32790910 33067532 33404764 33796088 34234508 34711132 35214508 
1217.369 35732208 36249992 36753676 37231700 37674692 38076540 38434080 
1220.744 38746092 39013196 39238468 39427496 39589420 39735756 39880432 
1224.120 40037620 40218672 40432568 40683684 40972264 41295028 41646044 
1227.495 42017532 42399848 42783788 43161336 43527744 43883284 44234744 
1230.870 44594828 44979832 45409100 45902016 46475252 47144672 47924476 
1234.245 48827692 49867980 51058016 52408832 53929088 55623712 57493820 
1237.621 59536728 61746100 64111032 66613348 69229280 71927080 74668560 
1240.996 77416504 80134512 82791456 85363464 87829872 90170968 92366376 
1244.371 94391192 96217072 97813896 99147472 100181696 100881672 101212048 
1247.746 101144408 100661496 99759128 98448328 96752240 94703472 92337936 
1251.122 89694752 86818576 83756800 80565568 77308960 74050896 70857888 
1254.497 67792712 64905620 62239072 59821840 57667732 55777320 54137156 
1257.872 52722372 51495948 50413764 49428752 48490428 47555044 46587920 
1261.247 45565172 44477532 43328872 42134124 40915028 39697632 38509168 
1264.623 37372440 36306616 35325304 34435792 33640248 32936114 32317780 
1267.998 31777322 31306292 30897708 30546276 30248696 30003684 29810158 
1271.373 29666988 29572418 29524182 29520460 29560890 29646200 29778434 
1274.748 29959556 30189978 30467296 30784518 31128702 31482742 31822670 
1278.124 32120510 32349050 32482538 32502894 32403238 32188658 31875190 
1281.499 31485378 31045734 30580370 30108398 29644320 29198028 28776764 
1284.874 28388028 28040104 27741198 27500244 27324204 27218536 27187634 
1288.249 27234976 27364430 27580028 27884796 28279978 28763278 29328566 
1291.625 29965128 30657452 31387206 32129750 32857128 33539690 34146108 
1295.000 34650660 35037540 35303088 35457948 35525292 35538200 35531512 
1298.375 35539640 35593584 35716132 35923640 36224956 36619660 37097536 
1301.750 37637148 38208576 38773480 39290692 39724392 40045252 40236560 
1305.125 40295124 40230708 40063164 39818840 39529100 39224760 38933384 
1308.501 38678500 38475748 38333748 38253880 38233076 38265024 38342868 
1311.876 38461268 38615732 38802284 39017040 39255440 39512476 39784084 
1315.251 40067492 40361768 40667816 40986792 41319552 41666212 42026108 
1318.626 42398756 42784448 43184096 43598440 44025788 44460608 44892008 
1322.002 45303680 45673780 45979580 46198248 46312252 46313652 46207792 
1325.377 46015828 45771556 45521972 45318392 45206304 45222816 45387244 
1328.752 45699656 46143048 46689260 47306580 47963664 48636792 49309996 
1332.127 49973948 50625032 51263300 51891076 52512252 53130976 53750476 
1335.503 54371312 54989236 55594484 56173576 56708848 57181280 57573488 
1338.878 57869348 58056252 58126472 58077232 57911940 57639580 57275028 
1342.253 56836708 56346016 55827092 55303252 54796884 54328352 53912468 
1345.628 53559384 53273936 53055156 52896780 52785752 52704340 52628560 
1349.004 52531396 52388572 52180068 51896644 51541688 51133864 50704380 
1352.379 50293364 49948600 49716220 49634824 49732196 50017932 50481052 
1355.754 51088952 51793932 52536368 53251720 53884072 54385356 54721708 
1359.129 54876996 54850680 54660456 54338080 53932688 53505376 53120456 
1362.505 52842216 52719232 52773444 52997204 53353164 53783068 54211140 
1365.880 54559984 54756140 54735880 54460808 53922408 53147528 52191016 
1369.255 51128084 50039792 48992904 48038860 47208052 46511024 45947464 
1372.630 45511852 45200052 45010848 44944592 44999088 45164504 45423112 
1376.006 45752116 46126612 46526624 46939256 47359748 47791632 48245684 
1379.381 48739976 49296856 49943096 50705460 51602320 52635288 53777288 
1382.756 54971300 56124180 57117220 57829828 58140676 57956124 57229812 
1386.131 55981188 54308716 52374104 50382992 48520988 46916632 45631892 
1389.507 44663972 43971672 43494488 43172496 42950412 42778232 42614972 
1392.882 42424328 42177792 41860608 41473840 41034896 40568600 40099648 
1396.257 39642668 39200680 38770292 38349276 37944100 37573952 37267548 
1399.632 37052932 36950788 36966732 37093024 37313472 37610916 37970460 
1403.008 38381412 38838228 39337524 39876256 40450460 41054160 41680656 
1406.383 42324420 42982016 43652956 44338988 45042164 45763456 46501912 
1409.758 47254376 48016840 48786244 49560356 50337820 51116012 51888392 
1413.133 52645428 53375048 54066600 54715772 55326360 55911200 56488864 
1416.509 57081016 57708752 58389360 59135152 59949860 60824108 61735292 
1419.884 62648504 63524484 64324388 65017788 65586628 66025460 66346324 
1423.259 66578276 66765560 66955440 67186216 67477824 67828584 68221608 
1426.634 68633576 69045704 69445592 69829392 70200160 70567472 70946992 
1430.010 71359448 71832536 72396744 73077064 73889112 74831824 75889848 
1433.385 77036152 78242776 79489568 80763928 82064416 83396104 84765608 
1436.760 86172248 87608304 89062024 90516344 91951056 93337576 94639976 
1440.135 95808544 96783216 97505880 97918544 97972352 97632808 96877952 
1443.510 95705736 94137608 92226640 90052880 87710808 85308704 82946432 
1446.886 80709344 78668744 76870568 75332744 74041944 72961936 72044512 
1450.261 71246288 70545448 69947008 69481440 69185992 69089136 69188560 
1453.636 69446840 69786272 70100272 70273120 70191360 69789616 69089296 
1457.011 68218816 67364744 66691652 66298188 66207380 66402532 66855872 
1460.387 67540216 68427840 69481288 70652144 71871240 73047704 74086616 
1463.762 74894536 75406960 75610040 75544704 75289520 74926184 74523776 
1467.137 74124736 73748008 73398984 73070600 72742416 72373456 71900680 
1470.512 71242888 70312656 69053360 67471672 65658888 63764220 61943924 
1473.888 60309436 58904524 57727032 56757256 55981188 55397648 55010184 
1477.263 54812936 54780456 54866768 55017440 55175992 55299604 55365616 
1480.638 55371148 55331140 55271188 55223400 55220200 55295160 55487208 
1484.013 55837268 56387364 57173684 58214364 59498540 60976596 62564536 
1487.389 64137220 65537536 66600060 67152520 67052060 66223124 64677948 
1490.764 62527224 59943584 57123304 54227696 51358052 48569380 45876240 
1494.139 43280872 40801704 38479768 36382808 34592208 33174812 32162610 
1497.514 31547050 31293790 31356864 31693052 32267846 33048116 33998636 
1500.890 35081396 36251072 37459732 38661948 39803620 40822888 41643820 
1504.265 42158076 42231652 41721288 40522404 38645144 36259788 33656144 
1507.640 31108234 28780234 26710278 24862044 23181408 21630378 20194402 
1511.015 18880942 17705850 16678240 15797282 15050218 14419170 13886595 
1514.391 13438872 13065496 12755765 12498257 12282380 12101225 11955122 
1517.766 11849757 11791194 11779108 11804234 11847782 11890279 11919396 
1521.141 11940716 11976546 12056118 12198336 12401829 12649250 12917054 
1524.516 13187687 13454490 13725048 14016170 14346184 14724708 15149261 
1527.892 15608781 16090689 16587935 17100848 17635726 18200390 18799278 
1531.267 19432432 20095834 20783954 21493114 22223384 22976610 23750568 
1534.642 24538844 25328870 26105946 26853816 27557858 28207314 28792096 
1538.017 29305312 29741246 30096750 30368500 30554524 30659834 30696210 
1541.393 30680742 30630392 30554524 30451764 30311436 30121966 29878124 
1544.768 29589266 29278694 28975816 28704336 28471090 28266400 28069404 
1548.143 27859958 27627802 27380558 27140968 26938948 26796050 26717148 
1551.518 26691110 26699390 26725960 26764440 26820828 26908560 27039506 
1554.894 27215114 27422590 27636558 27826114 27956136 27992356 27910058 
1558.269 27708528 27426368 27133702 26904330 26778078 26752950 26803098 
1561.644 26895658 27001318 27094590 27158816 27186752 27182624 27161354 
1565.019 27143012 27145976 27177298 27231412 27291494 27338284 27354372 
1568.395 27332670 27279110 27212008 27155112 27127106 27136878 27181742 
1571.770 27253286 27339518 27427354 27503138 27549348 27546912 27479206 
1575.145 27339448 27140510 26915786 26710102 26556712 26465598 26422144 
1578.520 26398940 26366546 26301804 26193324 26040714 25851690 25636244 
1581.896 25402568 25153884 24889658 24609392 24316026 24016378 23719632 
1585.271 23432846 23158026 22891728 22628038 22362378 22094580 21829386 
1588.646 21573998 21334388 21112858 20908198 20717050 20538698 20374660 
1592.021 20229010 20104544 19999612 19906326 19813788 19710210 19589080 
1595.396 19451388 19304870 19159856 19025240 18905410 18800630 18710126 
1598.772 18635100 18580732 18555662 18568768 18625832 18727594 18870770 
1602.147 19050650 19263408 19505932 19775086 20062138 20350630 20617078 
1605.522 20831958 20966056 20998328 20918246 20729840 20447624 20094168 
1608.897 19691694 19259112 18812496 18365752 17932934 17529180 17166680 
1612.273 16851050 16579192 16339913 16115619 15887558 15640484 15366327 
1615.648 15067473 14757684 14459830 14197988 13990128 13844279 13757948 
1619.023 13722654 13724330 13747448 13776109 13795878 13798648 13785275 
1622.398 13767353 13762873 13789618 13858303 13967476 14107412 14265334 
1625.774 14431227 14599958 14770196 14941768 15113271 15280620 15439005 
1629.149 15585494 15721316 15851885 15983595 16120158 16260307 16395651 
1632.524 16512863 16596576 16631933 16609451 16528249 16398886 16241526 
1635.899 16080616 15936742 15819961 15728803 15654841 15586593 15511557 
1639.275 15418371 15299669 15152863 14982785 14799335 14615551 14441811 
1642.650 14281805 14131065 13978118 13807473 13603560 13357201 13069286 
1646.025 12754332 12437117 12146405 11906250 11728724 11614055 11552801 
1649.400 11530956 11529732 11525002 11487338 11380318 11169517 10842213 
1652.776 10432980 10024199 9700230 9502064 9414729 9396479 9402879 9402879 
1656.633 9380803 9332660 9263163 9180683 9092432 9001595 8906311 8801886 
1660.490 8683220 8547725 8396023 8232723 8064287 7898344 7741674 7599795 
1664.348 7475761 7370432 7281066 7201420 7122193 7031295 6917051 6771336 
1668.205 6592935 6389993 6178105 5976096 5798795 5653622 5539505 5449542 
1672.063 5373921 5301433 5221177 5122126 4996484 4842164 4667669 4491201 
1675.920 4333513 4209940 4123797 4066366 4021886 3974635 3913814 3837357 
1679.778 3752157 3669647 3600316 3546396 3499564 3441248 3350048 3209597 
1683.635 3021709 2811324 2618675 2476794 2395359 2363109 2358511 2362542 
1687.492 2361476 2348850 2324032 2288956 2246756 2200396 2153343 2110156 
1691.350 2075664 2053625 2044369 2042971 2038644 2017106 1965146 1877617 
1695.207 1763390 1646599 1555676 1507694 1500679 1515275 1524419 1499947 
1699.065 1421787 1287540 1119118 956937 837142 775432 762486 777622 798568 
1703.404 809821 802750 775597 732282 680509 629107 584844 551136 527482 
1707.744 511658 499351 486249 469133 446014 417490 385884 354712 326658 
1712.083 303216 283421 264987 245161 221524 192949 158707 117575 67267 5400 
1716.905 -68449 -150005 -229127 -292475 -329856 -337306 -318599 -282938 
1720.763 -241181 -202832 -173521 -154045 -141061 -129203 -113535 -91175 
1724.620 -62950 -31409 695 31577 60407 86919 109820 126921 135870 135075 
1729.442 125563 110018 91327 69918 41585 -3512 -78421 -193691 -349820 
1733.781 -530350 -705248 -842278 -924482 -954668 -949444 -929540 -912182 
1737.639 -909206 -924945 -957081 -998207 -1039528 -1073804 -1097634 -1111052 
1741.496 -1115580 -1112870 -1103815 -1088810 -1068549 -1045015 -1020620 
1744.872 -997744 -978273 -963197 -952949 -948452 -951097 -962371 -983794 
1748.729 -1015926 -1057641 -1106855 -1160095 -1213328 -1263152 -1306264 
1752.104 -1340156 -1363609 -1376853 -1381874 -1382733 -1384813 -1393731 
1755.479 -1413811 -1445450 -1484779 -1524238 -1555438 -1573663 -1578879 
1758.855 -1576238 -1573498 -1578186 -1595253 -1624865 -1662561 -1701475 
1762.230 -1734940 -1758602 -1772297 -1778038 -1779061 -1778599 -1779061 
1765.605 -1782889 -1792261 -1808825 -1832384 -1861088 -1890417 -1915324 
1768.980 -1933302 -1944683 -1954380 -1969784 -1997952 -2041420 -2096656 
1772.356 -2152676 -2197018 -2221084 -2223457 -2209776 -2189238 -2169919 
1775.731 -2156237 -2148027 -2142521 -2135564 -2125606 -2113835 -2103514 
1779.106 -2098535 -2100975 -2109581 -2120891 -2130321 -2135663 -2137509 
1782.481 -2139125 -2143807 -2154093 -2169424 -2186601 -2201766 -2211787 
1785.857 -2215677 -2214787 -2211095 -2205919 -2199194 -2189898 -2177534 
1789.232 -2163424 -2151225 -2146016 -2152610 -2172754 -2203974 -2238884 
1792.607 -2269638 -2289777 -2297127 -2294523 -2286580 -2277681 -2270462 
1795.982 -2266078 -2264035 -2264167 -2266870 -2272934 -2283548 -2298215 
1799.358 -2315221 -2331502 -2343894 -2350452 -2351408 -2348705 -2344322 
1802.733 -2340104 -2336380 -2332359 -2327482 -2321648 -2315749 -2311200 
1806.108 -2309190 -2309520 -2310541 -2310805 -2308564 -2304411 -2300489 
1809.483 -2299632 -2304510 -2316144 -2332985 -2351935 -2370225 -2386372 
1812.859 -2400903 -2415665 -2432832 -2452733 -2474115 -2493454 -2506500 
1816.234 -2509926 -2502678 -2485481 -2461101 -2432832 -2402847 -2373092 
1819.609 -2344157 -2316441 -2290766 -2267957 -2248740 -2233808 -2223325 
1822.984 -2216963 -2214029 -2213205 -2212282 -2208656 -2199227 -2182018 
1826.360 -2157028 -2127354 -2098206 -2076574 -2068956 -2077959 -2101569 
1829.735 -2132201 -2159665 -2174139 -2171205 -2151851 -2122276 -2089599 
1833.110 -2059624 -2034824 -2014278 -1994786 -1972720 -1946233 -1915060 
1836.485 -1880322 -1843239 -1803876 -1760549 -1711574 -1655662 -1593207 
1839.861 -1526747 -1459848 -1395845 -1337118 -1284791 -1238340 -1196510 
1843.236 -1156956 -1116572 -1072383 -1021083 -960553 -891582 -817739 -744777 
1847.093 -680272 -631572 -603514 -597393 -610992 -639479 -677724 -721821 
1850.951 -770874 -825445 -886887 -954701 -1026768 -1099948 -1171000 -1238373 
1854.808 -1303225 -1367737 -1434155 -1503271 -1573795 -1642888 -1708307 
1858.183 -1769525 -1828095 -1886821 -1947322 -2008803 -2068330 -2120990 
1861.559 -2162764 -2192370 -2212117 -2226523 -2240302 -2256289 -2274582 
1864.934 -2293271 -2310278 -2325109 -2340137 -2358987 -2384592 -2417115 
1868.309 -2451876 -2481067 -2497341 -2496089 -2478134 -2448417 -2414084 
1871.684 -2381033 -2352693 -2330579 -2314035 -2303488 -2299929 -2305136 
1875.060 -2320363 -2345344 -2377277 -2411711 -2444133 -2471545 -2493421 
1878.435 -2511540 -2527912 -2544317 -2560721 -2575774 -2588587 -2599555 
1881.810 -2610654 -2624750 -2644148 -2668715 -2695092 -2719064 -2736120 
1885.185 -2744022 -2744549 -2741619 -2740005 -2743495 -2752813 -2765950 
1888.561 -2779580 -2790016 -2795613 -2796601 -2794198 -2789819 -2784716 
1891.936 -2779514 -2774938 -2772370 -2773489 -2779415 -2789589 -2801440 
1895.311 -2810757 -2813621 -2808288 -2795975 -2780667 -2767497 -2759563 
1898.686 -2757620 -2759102 -2760024 -2756896 -2749290 -2739051 -2730128 
1902.062 -2726012 -2727757 -2733782 -2741454 -2748204 -2753175 -2758542 
1905.437 -2767234 -2781358 -2801243 -2823661 -2844137 -2858390 -2864249 
1908.812 -2862439 -2856283 -2848975 -2842853 -2838508 -2835183 -2831694 
1912.187 -2828764 -2827710 -2830410 -2838113 -2850193 -2864907 -2880443 
1915.563 -2896177 -2913094 -2933203 -2958083 -2986581 -3014716 -3036597 
1918.938 -3047488 -3046468 -3037518 -3026923 -3022416 -3028009 -3043079 
1922.313 -3062261 -3078152 -3084140 -3078415 -3063906 -3045908 -3030444 
1925.688 -3020836 -3016690 -3016098 -3016921 -3018336 -3021494 -3028437 
1929.063 -3040348 -3055878 -3071868 -3084830 -3092331 -3095523 -3097266 
1932.439 -3101214 -3109175 -3120196 -3130065 -3135657 -3135986 -3133387 
1935.814 -3133650 -3142039 -3160690 -3187366 -3215784 -3238444 -3251204 
1939.189 -3254723 -3254033 -3256137 -3265905 -3283498 -3304478 -3321642 
1942.564 -3329665 -3327660 -3320360 -3312896 -3310528 -3314343 -3320919 
1945.940 -3324963 -3323385 -3315789 -3305497 -3296915 -3291719 -3287378 
1949.315 -3278993 -3260709 -3230123 -3191379 -3152763 -3124407 -3113880 
1952.690 -3121742 -3143947 -3173650 -3205917 -3239891 -3280440 -3333249 
1956.065 -3401570 -3482930 -3567921 -3642974 -3698171 -3728033 -3736377 
1959.441 -3732008 -3725339 -3722514 -3725569 -3732041 -3738611 -3745049 
1962.816 -3754379 -3769784 -3793598 -3823750 -3853998 -3877380 -3889957 
1966.191 -3891796 -3889760 -3891862 -3903093 -3924141 -3950048 -3973031 
1969.566 -3988166 -3994207 -3994207 -3993026 -3993814 -3994503 -3990925 
1972.942 -3978974 -3957370 -3929099 -3899874 -3871633 -3839383 -3790511 
1976.317 -3708651 -3580409 -3406041 -3199996 -2988984 -2802362 -2662985 
1979.692 -2579891 -2549192 -2557592 -2589213 -2632523 -2680603 -2730852 
1983.067 -2782543 -2833109 -2877185 -2910066 -2928727 -2933730 -2930899 
1986.443 -2926687 -2925436 -2928431 -2933203 -2936955 -2938041 -2939950 
1989.818 -2946071 -2961374 -2986318 -3015176 -3038769 -3047652 -3037156 
1993.193 -3009616 -2974899 -2943603 -2924679 -2922210 -2932940 -2950086 
1996.568 -2967034 -2979737 -2987569 -2993788 -3000929 -3008892 -3017677 
1999.944 -3025180 -3031629 -3041236 -3059694 -3092430 -3142565 -3206542 
2003.319 -3275409 -3339891 -3390360 -3421953 -3435332 -3434083 -3421492 
2006.694 -3400551 -3370962 -3332164 -3285570 -3235714 -3188090 -3148815 
2010.069 -3120821 -3102826 -3091147 -3082462 -3074895 -3071342 -3076244 
2013.445 -3092957 -3121972 -3159111 -3195589 -3223842 -3238740 -3238872 
2016.820 -3227130 -3208449 -3184340 -3154769 -3117827 -3072065 -3019224 
2020.195 -2965487 -2917866 -2883208 -2864282 -2859048 -2861221 -2865368 
2023.570 -2867178 -2865895 -2863656 -2862899 -2862866 -2862537 -2858159 
2026.946 -2848383 -2834722 -2820929 -2810197 -2804403 -2799992 -2788996 
2030.321 -2764798 -2723147 -2664961 -2597315 -2529131 -2465879 -2408581 
2033.696 -2352396 -2290865 -2219270 -2140444 -2059920 -1988849 -1935150 
2037.071 -1900776 -1881873 -1870887 -1859274 -1841721 -1818559 -1792228 
2040.447 -1766027 -1742761 -1721211 -1699693 -1677942 -1657742 -1643119 
2043.822 -1639983 -1649226 -1667776 -1687382 -1696458 -1682695 -1640049 
2047.197 -1566069 -1466188 -1349835 -1228791 -1115184 -1020984 -955064 
2050.572 -922630 -923721 -951857 -994240 -1036421 -1062566 -1062500 -1034404 
2054.430 -985645 -929044 -879281 -846775 -833614 -835432 -842509 -845023 
2058.287 -837086 -816813 -786419 -749441 -709383 -667436 -625683 -587069 
2062.145 -555666 -537730 -538624 -558843 -594878 -638718 -680205 -711070 
2066.002 -727246 -729594 -722813 -711798 -700120 -688575 -676765 -663565 
2069.859 -649669 -637891 -631109 -630480 -635079 -640737 -642225 -636469 
2073.717 -622109 -601529 -579095 -558876 -542165 -528332 -514267 -496461 
2077.574 -473558 -445490 -413779 -380477 -346940 -314030 -282276 -253798 
2081.432 -230882 -216907 -214489 -222703 -238300 -255620 -268700 -273104 
2085.289 -268037 -255951 -241049 -228366 -220550 -218927 -223663 -234293 
2089.146 -251348 -276581 -310686 -353561 -403120 -454824 -503147 -544051 
2093.004 -573966 -591569 -596930 -590047 -570723 -540146 -499870 -453864 
2096.861 -408019 -368393 -338829 -320453 -310057 -301878 -290753 -273269 
2100.719 -249162 -221775 -194983 -170871 -149640 -128375 -103465 -72822 
2104.576 -36710 2352 40524 74856 105279 133285 161425 192054 224839 257892 
2109.398 289124 316877 341381 364826 390627 419845 451918 483728 511161 
2113.738 531132 542875 547653 549278 551269 555416 561919 569184 574957 
2118.077 577612 576351 571507 563843 554222 542875 530700 518990 509204 
2122.417 503365 502901 507180 514744 522473 527482 527947 523999 516634 
2126.756 507180 496698 484524 469000 449264 424654 395999 365655 335943 
2131.096 308885 286173 269297 259550 259682 271883 296949 333423 376167 
2135.436 417059 449132 467408 471123 463626 451089 436826 423792 410592 
2139.775 393280 370497 342708 312566 284747 261241 240089 215822 181645 
2144.115 132125 67333 -6626 -81336 -147355 -199652 -239592 -272640 -305189 
2148.454 -342040 -383423 -426225 -468659 -511089 -558611 -620554 -706836 
2152.312 -822436 -968719 -1141159 -1332262 -1534506 -1741639 -1946464 
2155.687 -2138861 -2302565 -2415270 -2451777 -2394346 -2239115 -2003460 
2159.062 -1721112 -1432174 -1173214 -967066 -818996 -722846 -666608 -636832 
2162.920 -621811 -614499 -608113 -597360 -579988 -555401 -528696 -508376 
2166.777 -504272 -523268 -568042 -634616 -713849 -797267 -877463 -951560 
2170.635 -1021149 -1088645 -1155138 -1218879 -1275508 -1319676 -1349934 
2174.010 -1367935 -1377679 -1385111 -1393962 -1404630 -1415463 -1424908 
2177.385 -1432504 -1441156 -1456017 -1480288 -1514332 -1554514 -1593669 
2180.760 -1624403 -1643449 -1650315 -1648862 -1644769 -1640280 -1634768 
2184.135 -1626779 -1612122 -1590632 -1566003 -1542892 -1526648 -1520308 
2187.511 -1521101 -1523412 -1520573 -1507266 -1481774 -1448125 -1411136 
2190.886 -1376556 -1347655 -1325094 -1306628 -1290705 -1275277 -1259089 
2194.261 -1242668 -1225785 -1207315 -1187522 -1165878 -1143539 -1122091 
2197.636 -1104244 -1088909 -1076448 -1063888 -1048353 -1029545 -1009711 
2201.012 -991959 -981843 -982670 -994538 -1013909 -1036255 -1055790 -1069640 
2204.869 -1077010 -1079721 -1079820 -1078894 -1076415 -1070830 -1060550 
2208.244 -1045213 -1025016 -1002604 -979364 -956883 -935922 -916315 -898261 
2212.102 -883316 -872106 -864236 -859077 -853025 -842344 -824552 -799913 
2215.959 -771403 -744612 -724765 -715172 -715470 -723475 -734655 -746629 
2219.817 -758636 -771635 -787511 -806329 -825147 -839698 -844626 -837086 
2223.674 -817078 -789264 -758735 -731248 -710144 -695258 -684506 -676136 
2227.531 -668130 -661249 -657147 -656750 -659529 -664822 -669057 -670181 
2231.389 -668031 -662374 -654434 -645335 -633855 -617808 -596202 -568075 
2235.246 -534950 -501128 -470546 -447178 -432184 -424637 -421591 -420697 
2239.104 -419307 -415533 -409277 -399479 -384383 -363129 -334690 -299858 
2242.961 -261216 -222404 -186074 -154211 -125990 -99125 -71397 -41945 -11331 
2247.301 17031 39862 54840 61965 63025 60738 57458 54276 50863 46688 40889 
2252.605 35719 33665 37675 49737 69885 95767 123872 150421 172430 189037 
2257.427 200242 206407 208098 205976 200009 191689 182772 174618 168651 
2261.766 165038 162254 158575 152841 145515 138920 136865 142532 157547 
2266.106 181513 211446 242708 271154 293733 308388 315252 314754 308090 
2270.445 297148 284383 273110 266777 268866 280305 300364 325829 352457 
2274.785 376433 396066 411355 424986 440010 458220 480211 504991 530136 
2279.125 554354 577114 598979 621177 645466 671682 699957 729063 758138 
2283.464 786319 813107 837441 858024 873562 882393 884253 880434 872599 
2287.804 863934 856895 852347 850090 848662 846504 842387 837275 832362 
2292.143 829772 831432 837773 848695 863071 879870 898430 918385 939238 
2296.483 960191 980216 997784 1011699 1021430 1027475 1030796 1032888 
2300.340 1035313 1038800 1044015 1051455 1061486 1074739 1091513 1111344 
2304.198 1133735 1157189 1180545 1203005 1225068 1247730 1272719 1301066 
2308.055 1332905 1367206 1402539 1437145 1469659 1499947 1527943 1553647 
2311.913 1577257 1598175 1615967 1631066 1644237 1657442 1672575 1691269 
2315.770 1713922 1740102 1768247 1796926 1825540 1854190 1883607 1915089 
2319.627 1949635 1987380 2028091 2070770 2112887 2151744 2182580 2200063 
2323.485 2198931 2175187 2127337 2058285 1974765 1885537 1800719 1729324 
2327.342 1676101 1642341 1625645 1620756 1622419 1626144 1629204 1630701 
2331.200 1631066 1630634 1630102 1630601 1632962 1638716 1649326 1665590 
2335.057 1687144 1713057 1741034 1768646 1795229 1820084 1843841 1867434 
2338.915 1891028 1913991 1935291 1954195 1970438 1984884 1998930 2013444 
2342.772 2028157 2041540 2050362 2052459 2046633 2034216 2019203 2007585 
2346.629 2005255 2017272 2046766 2094308 2158837 2237164 2325198 2417582 
2350.487 2508152 2591042 2661412 2716123 2754835 2780144 2796284 2807456 
2354.344 2817227 2827399 2838138 2848344 2857449 2864820 2870523 2875493 
2358.202 2879796 2883298 2885533 2885666 2883398 2879229 2873759 2868022 
2362.059 2862986 2859450 2857649 2857983 2860617 2865187 2871724 2878862 
2365.917 2885433 2890336 2892804 2892938 2891970 2891203 2891470 2893004 
2369.774 2895206 2896540 2896273 2894005 2890303 2886467 2884332 2884099 
2373.631 2885933 2889102 2892804 2896173 2899542 2902811 2906380 2910350 
2377.489 2914119 2917221 2919756 2921991 2925360 2931332 2940805 2953716 
2381.346 2969462 2985976 3001957 3016637 3030651 3045399 3063051 3084507 
2385.204 3110003 3138170 3167206 3195077 3220712 3244013 3265912 3287746 
2389.061 3310482 3334822 3360900 3388516 3417502 3447526 3478421 3509584 
2392.918 3540116 3568712 3594202 3616220 3634964 3651303 3666740 3682980 
2396.776 3700858 3721043 3743702 3768601 3795674 3824554 3854573 3884828 
2400.633 3914148 3941598 3967044 3991221 4015933 4043357 4075832 4114263 
2404.491 4158586 4207464 4259191 4312028 4364906 4417689 4470512 4523644 
2408.348 4576948 4630394 4683980 4738309 4794488 4853891 4917558 4985525 
2412.206 5056619 5128731 5198675 5264807 5325214 5379355 5427666 5470613 
2416.063 5508329 5541384 5570515 5596593 5621935 5648821 5679302 5714653 
2419.920 5754707 5797620 5841174 5882987 5921377 5956076 5988426 6020005 
2423.778 6053637 6091303 6134450 6184155 6240387 6302677 6369752 6440299 
2427.635 6512507 6585433 6658472 6732163 6807751 6886989 6970954 7060088 
2431.493 7154428 7252460 7353076 7454929 7557075 7658740 7759484 7859138 
2435.350 7957363 8055071 8153442 8254537 8360419 8473050 8592807 8718682 
2439.208 8848110 8977780 9104850 9227489 9345050 9458547 9568786 9676480 
2443.065 9781454 9882895 9979918 10072147 10160191 10245843 10331512 
2446.440 10419404 10510844 10606310 10704819 10804879 10903910 10999599 
2449.815 11089835 11172815 11247684 11314744 11375317 11431987 11487780 
2453.191 11545758 11608507 11676917 11751021 11829736 11911495 11995041 
2456.566 12079659 12165044 12251365 12338828 12427365 12516297 12605383 
2459.941 12693737 12780640 12865923 12949483 13031385 13112142 13192845 
2463.316 13274451 13358328 13445775 13537616 13634707 13737326 13846330 
2466.692 13962720 14088348 14224522 14372657 14532870 14704108 14884158 
2470.067 15070903 15262431 15458369 15659720 15867900 16084397 16309638 
2473.442 16541913 16778136 17015142 17249278 17477574 17699328 17913426 
2476.817 18119614 18316880 18504106 18679616 18842080 18990554 19124674 
2480.193 19244322 19349454 19439120 19512414 19567694 19603846 19620312 
2483.568 19618094 19598924 19565892 19522498 19472144 19417880 19362098 
2486.943 19305632 19249034 19191022 19129902 19063598 18990242 18908420 
2490.318 18817894 18718774 18611720 18497328 18375570 18245932 18107350 
2493.694 17958696 17798906 17627546 17444598 17250244 17045190 16830040 
2497.069 16605631 16373321 16134772 15891820 15646495 15400347 15154407 
2500.444 14909361 14665722 14424033 14185048 13950436 13721252 13498273 
2503.819 13281830 13071573 12866470 12666239 12471147 12281733 12099760 
2507.195 11926582 11763141 11609529 11465258 11329436 11201476 11081439 
2510.570 10969422 10865790 10770811 10684036 10605291 10534335 10471299 
2513.945 10417402 10373861 10341318 10319500 10307251 10302060 10301721 
2517.320 10304673 10310271 10319535 10334125 10355095 10382853 10416723 
2520.696 10455279 10496418 10539054 10581593 10623457 10664171 10703495 
2524.071 10741057 10777298 10812319 10847173 10882472 10918656 10954741 
2527.446 10989199 11019140 11042012 11055947 11060162 11054656 11040687 
2530.821 11019173 10990933 10956339 10915462 10868814 10817381 10762591 
2534.197 10705804 10648211 10590556 10532977 10475237 10417673 10360728 
2537.572 10305759 10253917 10206254 10163243 10124849 10090698 10060415 
2540.947 10033524 10010264 9989819 9971375 9953677 9934658 9913437 9889064 
2544.804 9862117 9833985 9805651 9778302 9751870 9725846 9698942 9670957 
2548.662 9641821 9612484 9584470 9559235 9537524 9519572 9505247 9493765 
2552.519 9484656 9477443 9471381 9465692 9459393 9451638 9442123 9431524 
2556.377 9420756 9411614 9404943 9400846 9398341 9395700 9390791 9382293 
2560.234 9370002 9354191 9336045 9316343 9295220 9272878 9249049 9224037 
2564.092 9198992 9175912 9155911 9140041 9128232 9119298 9111786 9104918 
2567.949 9098421 9093346 9091281 9093651 9100857 9112530 9127419 9144169 
2571.806 9161596 9179092 9196352 9213579 9230332 9246307 9260896 9273995 
2575.664 9285945 9297995 9310858 9325652 9342714 9361538 9381310 9401625 
2579.521 9422381 9443579 9465996 9490108 9515712 9542366 9569227 9595682 
2583.379 9621732 9648223 9676513 9707989 9743805 9784233 9829002 9877336 
2587.236 9928116 9980494 10033761 10087442 10141061 10194518 10247708 
2590.611 10300838 10353941 10407017 10459759 10511897 10562615 10611641 
2593.987 10659008 10705295 10751450 10798561 10847003 10896367 10945499 
2597.362 10992631 11036167 11075254 11110026 11141300 11170708 11199844 
2600.737 11229765 11261456 11295461 11332123 11372052 11415659 11462809 
2604.112 11513093 11565494 11618683 11671879 11724741 11777712 11832187 
2607.488 11889632 11950660 12015990 12085348 12157990 12233506 12311626 
2610.863 12392079 12475001 12560053 12646555 12733382 12819816 12905004 
2614.238 12988913 13072120 13155104 13238514 13322350 13405927 13488702 
2617.613 13569851 13649101 13726553 13802650 13877495 13950950 14022569 
2620.989 14091599 14157628 14220721 14281736 14341732 14402283 14464249 
2624.364 14527730 14592386 14656982 14719944 14780274 14837322 14890845 
2627.739 14941562 14990296 15037904 15085037 15132038 15178734 15224922 
2631.114 15270153 15314119 15356750 15398425 15439348 15480241 15521000 
2634.490 15561420 15600984 15638663 15673941 15706439 15736602 15764983 
2637.865 15792986 15821919 15852675 15885977 15921963 15960632 16001573 
2641.240 16044376 16088558 16133362 16178655 16224055 16269699 16315762 
2644.615 16362965 16411686 16462170 16514620 16568212 16622568 16677137 
2647.990 16731612 16786540 16842542 16900412 16960702 17023584 17088406 
2651.366 17154684 17221148 17287136 17352134 17415970 17478194 17538978 
2654.741 17598148 17655464 17711440 17766424 17821068 17876066 17931830 
2658.116 17988222 18044830 18101098 18156336 18210304 18263314 18316016 
2661.491 18369210 18423412 18478760 18534914 18590830 18645788 18698986 
2664.867 18750254 18799694 18847860 18895304 18942962 18991732 19041580 
2668.242 19092854 19145208 19198122 19250556 19301958 19351498 19399030 
2671.617 19444872 19489644 19534560 19580760 19628874 19679700 19733128 
2674.992 19789060 19846944 19906638 19967832 20030562 20095104 20161532 
2678.368 20230052 20300666 20373374 20447798 20523726 20600956 20679588 
2681.743 20759798 20842108 20927008 21014776 21105170 21197672 21291304 
2685.118 21384958 21478040 21570586 21662942 21756362 21852206 21951558 
2688.493 22054802 22161836 22271896 22384110 22497996 22613168 22730114 
2691.869 22849118 22970638 23094844 23221602 23350426 23481180 23613894 
2695.244 23748888 23886482 24027164 24171080 24317812 24466872 24617422 
2698.619 24769146 24922116 25076122 25232222 25390836 25552422 25717024 
2701.994 25884396 26053696 26223874 26393976 26563052 26730468 26896118 
2705.370 27059854 27222064 27382992 27542994 27702348 27861124 28019038 
2708.745 28176660 28334054 28491856 28650782 28811320 28973868 29138178 
2712.120 29303754 29469854 29635556 29800506 29964526 30127612 30290048 
2715.495 30451870 30612472 30771072 30926208 31076626 31221156 31359356 
2718.871 31491648 31618994 31742990 31865488 31988308 32112874 32240440 
2722.246 32372002 32508322 32650072 32797914 32952056 33112694 33279862 
2725.621 33453218 33632444 33817112 34006876 34202032 34402292 34607740 
2728.996 34817776 35031256 35246996 35463304 35678356 35890892 36099676 
2732.372 36304308 36504248 36699228 36888600 37071880 37248128 37416100 
2735.747 37575144 37724524 37863544 37992268 38110828 38219832 38320644 
2739.122 38414860 38504748 38592376 38680020 38769784 38863264 38961872 
2742.497 39066704 39178520 39298380 39426880 39564304 39710484 39865068 
2745.873 40027012 40195268 40368640 40545684 40724872 40904176 41080640 
2749.248 41251048 41411688 41559040 41690724 41804932 41901364 41980628 
2752.623 42043520 42090756 42122916 42139200 42138764 42120508 42082976 
2755.998 42024940 41945924 41845172 41722492 41577708 41411068 41222884 
2759.374 41013552 40783796 40534336 40266256 39981160 39681296 39369552 
2762.749 39049340 38725044 38400560 38080044 37767176 37464608 37174700 
2766.124 36899308 36639848 36397832 36174648 35971872 35790852 35632716 
2769.499 35498432 35388136 35301836 35238764 35197296 35176100 35172216 
2772.875 35183068 35205596 35236896 35273980 35314556 35356396 35398164 
2776.250 35438208 35475352 35508320 35535792 35556544 35569236 35573084 
2779.625 35567364 35551940 35527200 35494260 35454280 35409452 35362036 
2783.000 35314448 35269092 35228124 35193092 35164636 35142720 35126448 
2786.375 35113728 35101908 35088440 35070300 35044796 35010172 34965064 
2789.751 34908936 34841832 34764648 34678040 34583880 34484004 34381024 
2793.126 34277428 34176544 34081236 33994516 33918700 33855868 33807296 
2796.501 33774348 33757516 33757300 33774240 33808228 33859376 33927440 
2799.876 34012320 34113600 34230996 34364312 34513092 34676824 34854288 
2803.252 35044436 35245052 35454604 35670768 35892152 36116996 36343792 
2806.627 36571536 36798500 37022656 37242064 37453952 37655684 37844240 
2810.002 38017368 38172504 38308052 38422460 38514924 38585348 38633808 
2813.377 38661044 38668396 38656912 38628448 38585132 38529516 38464600 
2816.753 38393792 38321552 38251996 38189872 38139948 38106416 38093068 
2820.128 38103268 38138680 38200256 38287640 38399584 38533788 38687412 
2823.503 38857612 39040892 39233968 39433660 39636532 39839536 40039656 
2826.878 40234412 40421804 40600908 40770732 40931556 41084064 41229264 
2830.254 41368936 41505520 41641340 41779796 41923916 42076296 42239432 
2833.629 42414904 42604184 42808580 43029864 43269964 43531552 43817304 
2837.004 44130272 44473496 44850784 45266280 45726048 46237572 46809884 
2840.379 47453360 48179444 48998912 49923324 50964000 52131460 53437544 
2843.755 54893612 56509584 58292452 60242056 62348260 64584972 66907936 
2847.130 69255320 71541976 73670584 75538312 77040344 78091800 78633040 
2850.505 78638040 78119048 77122768 75726160 74017648 72095400 70055344 
2853.880 67977856 65933124 63975676 62141916 60456564 58931052 57566488 
2857.256 56355488 55284852 54338752 53498816 52748600 52073856 51461928 
2860.631 50903680 50391812 49920272 49484040 49078924 48701060 48347780 
2864.006 48017248 47709824 47426636 47170600 46945680 46755936 46605372 
2867.381 46497452 46434208 46416400 46443168 46512132 46618728 46757116 
2870.757 46919324 47095404 47274324 47444744 47595344 47717848 47806464 
2874.132 47860104 47881264 47876124 47853076 47820744 47787416 47759788 
2877.507 47742108 47736784 47744736 47765964 47800032 47846488 47905536 
2880.882 47977796 48064804 48167820 48288228 48426448 48581796 48751544 
2884.258 48931892 49118064 49304800 49487940 49664764 49834420 49998264 
2887.633 50159192 50321860 50490392 50669940 50864864 51079264 51317256 
2891.008 51583440 51882900 52222776 52611728 53059724 53579176 54183436 
2894.383 54884968 55695460 56622132 57665312 58815324 60050944 61337056 
2897.759 62623480 63853144 64962528 65889776 66587584 67025028 67195224 
2901.134 67114704 66821940 66370912 65819100 65227436 64650224 64130000 
2904.509 63702404 63392572 63217312 63188836 63314936 63600852 64051008 
2907.884 64669408 65460868 66431224 67586664 68932456 70470144 72194968 
2911.260 74092280 76133824 78280512 80477376 82657880 84752320 86685592 
2914.635 88387944 89803688 90890880 91628712 92016576 92072608 91828400 
2918.010 91322640 90599728 89700456 88661064 87512608 86277800 84972792 
2921.385 83608472 82191920 80729816 79230064 77703536 76165216 74633936 
2924.760 73128976 71670440 70275688 68957352 67724048 66579088 65521428 
2928.136 64545916 63643968 62805504 62018184 61270128 60550296 59849264 
2931.511 59159452 58475976 57794512 57112420 56426868 55735768 55037716 
2934.886 54332448 53621272 52906884 52193072 51483864 50783216 50094676 
2938.261 49421696 48767708 48137132 47535120 46966912 46438044 45952952 
2941.637 45514172 45122552 44776616 44472648 44205064 43966868 43749540 
2945.012 43543456 43339488 43129132 42905896 42666984 42413368 42150408 
2948.387 41885892 41630800 41396236 41191592 41024732 40899772 40817100 
2951.762 40773388 40762360 40775752 40803888 40837376 40868352 40889832 
2955.138 40897476 40887904 40859220 40809928 40739724 40648712 40538192 
2958.513 40411076 40271496 40124432 39974732 39827044 39683944 39546992 
2961.888 39416284 39291236 39171124 39055720 38944948 38838948 38738340 
2965.263 38643444 38554536 38471948 38395712 38325640 38261984 38204632 
2968.639 38153624 38109960 38075052 38051868 38043696 38054580 38087640 
2972.014 38144724 38225548 38327592 38446644 38576480 38709436 38838044 
2975.389 38952848 39044880 39105604 39127032 39104080 39035200 38923236 
2978.764 38774892 38600528 38412832 38223664 38044204 37882888 37745016 
2982.140 37633028 37546496 37482340 37435568 37398836 37364024 37322028 
2985.515 37264336 37183544 37074584 36934844 36764604 36566456 36344800 
2988.890 36104932 35853108 35595060 35335544 35078812 34827580 34583344 
2992.265 34346704 34117828 33896812 33683924 33479664 33284266 33097390 
2995.641 32917634 32742030 32566566 32386746 32198328 31998436 31786054 
2999.016 31562406 31330078 31093214 30856086 30622250 30394476 30174562 
3002.391 29963034 29760054 29565252 29378198 29198452 29025584 28859442 
3005.766 28699804 28546984 28401470 28263784 28134730 28014834 27904334 
3009.142 27802586 27708564 27620492 27536286 27454214 27372652 27291000 
3012.517 27209294 27127882 27047370 26968246 26890688 26814554 26739384 
3015.892 26665038 26591726 26519800 26449964 26382778 26318948 26258682 
3019.267 26202370 26150460 26103764 26063196 26029666 26003564 25984708 
3022.643 25972292 25965116 25962160 25963218 25968740 25980206 25999870 
3026.018 26028964 26068790 26118860 26177874 26243618 26313000 26382708 
3029.393 26449400 26509410 26559600 26596974 26619378 26625756 26616350 
3032.768 26592466 26556466 26511206 26459224 26402672 26343804 26284098 
3036.144 26225176 26168442 26115164 26065940 26020874 25979434 25940670 
3039.519 25903704 25868044 25833614 25800842 25770392 25742864 25718536 
3042.894 25697478 25679584 25665102 25654064 25647070 25644538 25646754 
3046.269 25653468 25664258 25678144 25694314 25712068 25731298 25751936 
3049.645 25774226 25798698 25825808 25856086 25889916 25927444 25968598 
3053.020 26012570 26058200 26104046 26148594 26190860 26230560 26268434 
3056.395 26305642 26343946 26384786 26429434 26478594 26532444 26591056 
3059.770 26654328 26722048 26793900 26869398 26947974 27029280 27113034 
3063.146 27199274 27288424 27380806 27476134 27574026 27673036 27771502 
3066.521 27867908 27961082 28050566 28136710 28220184 28301268 28379962 
3069.896 28455560 28526744 28592492 28651914 28704512 28751062 28792946 
3073.271 28831928 28870136 28909728 28952086 28998414 29048928 29103030 
3076.646 29159792 29217554 29275114 29331332 29385750 29438152 29489038 
3080.022 29539044 29588272 29637296 29686288 29735604 29785816 29837842 
3083.397 29892500 29950430 30012134 30077254 30145370 30215766 30287704 
3086.772 30361038 30435486 30511014 30588012 30666554 30746816 30829120 
3090.147 30913576 31000326 31089404 31180392 31272498 31364768 31456240 
3093.523 31546302 31634924 31722992 31811796 31902824 31997618 32097176 
3096.898 32201648 32310572 32422732 32536316 32649252 32759644 32866310 
3100.273 32968786 33067998 33165872 33264730 33367336 33475012 33588192 
3103.648 33705700 33825420 33944748 34061488 34174536 34283592 34389668 
3107.024 34493612 34596512 34698928 34801300 34903840 35007156 35112328 
3110.399 35220328 35332348 35449032 35570132 35694940 35822156 35950100 
3113.774 36077172 36201908 36323076 36439956 36552540 36661516 36767956 
3117.149 36874276 36982396 37094072 37210004 37329616 37451100 37571896 
3120.525 37689580 37802348 37909608 38011872 38110972 38209228 38308848 
3123.900 38411856 38519268 38631708 38748920 38870224 38994128 39119052 
3127.275 39243868 39367232 39488996 39609276 39728568 39847816 39967536 
3130.650 40087584 40208024 40328316 40448496 40568784 40689720 40811860 
3134.026 40935708 41060900 41186600 41311940 41435964 41558532 41680364 
3137.401 41802412 41926252 42053120 42183344 42316788 42452244 42588360 
3140.776 42723500 42856340 42986108 43112408 43235668 43356584 43476908 
3144.151 43598184 43722024 43849816 43981828 44117216 44254448 44391496 
3147.527 44526356 44658208 44786792 44913136 45039076 45166156 45295588 
3150.902 45427820 45562488 45698592 45835104 45971368 46106864 46241888 
3154.277 46376840 46512240 46648236 46784536 46920728 47056000 47190136 
3157.652 47322688 47454208 47584880 47715148 47845604 47976392 48107072 
3161.028 48237684 48367888 48497764 48627228 48756512 48885608 49014492 
3164.403 49142624 49269760 49395860 49520656 49644964 49769316 49894104 
3167.778 50019416 50144988 50270372 50394864 50518196 50640448 50762104 
3171.153 50884272 51007712 51132932 51260204 51389604 51520460 51652064 
3174.529 51783480 51913296 52039900 52162132 52278756 52389956 52496620 
3177.904 52601216 52706288 52814188 52926236 53042540 53161500 53281124 
3181.279 53399212 53514296 53625996 53735176 53842736 53950132 54058268 
3184.654 54167748 54278792 54391328 54505396 54620964 54737344 54854024 
3188.030 54970244 55085028 55197964 55308784 55417860 55525348 55631656 
3191.405 55736860 55841068 55944704 56048776 56154344 56262504 56373556 
3194.780 56486900 56600392 56711680 56818392 56919652 57016100 57110192 
3198.155 57204716 57301832 57401992 57504752 57607572 57708524 57806548 
3201.531 57902096 57996868 58092916 58192084 58294576 58399856 58506376 
3204.906 58612924 58718436 58822796 58925932 59027304 59125888 59219984 
3208.281 59308284 59390636 59468180 59543420 59619392 59698500 59781840 
3211.656 59869152 59958648 60048772 60138192 60227060 60316292 60406984 
3215.031 60500020 60595436 60692364 60789536 60886012 60981512 61075928 
3218.407 61170028 61264292 61358888 61453616 61548288 61642448 61736396 
3221.782 61830788 61926308 62023836 62123872 62226684 62331968 62439036 
3225.157 62547200 62655204 62761968 62866308 62967420 63064956 63159248 
3228.532 63251228 63341848 63431984 63522108 63612708 63703784 63795952 
3231.908 63890524 63988960 64092284 64201140 64314812 64431056 64547680 
3235.283 64662336 64773864 64882772 64990276 65098308 65207868 65319316 
3238.658 65431892 65544432 65656148 65767088 65878400 65990940 66105740 
3242.033 66222312 66339144 66454932 66567920 66678284 66787392 66897808 
3245.409 67012236 67132568 67258968 67390712 67525784 67662168 67798720 
3248.784 67934840 68070856 68207224 68344296 68481480 68618056 68752544 
3252.159 68884032 69011608 69135408 69256096 69374920 69493424 69613160 
3255.534 69735496 69861104 69989664 70120448 70251496 70380872 70506704 
3258.910 70627504 70742800 70852816 70958384 71060536 71160448 71259176 
3262.285 71357416 71455720 71554472 71653800 71753024 71851576 71948544 
3265.660 72043072 72135264 72225296 72314120 72403136 72492632 72582920 
3269.035 72673432 72762944 72850432 72934888 73015872 73093376 73167648 
3272.411 73238936 73307856 73375328 73442736 73511848 73584488 73661944 
3275.786 73744432 73831024 73919088 74005912 74089208 74167656 74241664 
3279.161 74313032 74384112 74457072 74533144 74612768 74695480 74780528 
3282.536 74867408 74956344 75047552 75141728 75239200 75339648 75442720 
3285.912 75547344 75652752 75758032 75862784 75967120 76071608 76177136 
3289.287 76285072 76397056 76514136 76637048 76766168 76901176 77041608 
3292.662 77187240 77338136 77494752 77657688 77826824 78001424 78180016 
3296.037 78361064 78543584 78727368 78913880 79104976 79302680 79508352 
3299.413 79721680 79941096 80164712 80390256 80617504 80846744 81079784 
3302.788 81318424 81564384 81818208 82079544 82347048 82619368 82895584 
3306.163 83174704 83456824 83742288 84032168 84327712 84630752 84943136 
3309.538 85265552 85598296 85940056 86288792 86641904 86997720 87355496 
3312.914 87716600 88083168 88456944 88839344 89229560 89625872 90025440 
3316.289 90425824 90825600 91224600 91623312 92022272 92421752 92821608 
3319.664 93221128 93620080 94019144 94419440 94821960 95227128 95633992 
3323.039 96040656 96445064 96845288 97240488 97631320 98018560 98402576 
3326.415 98782888 99157584 99524392 99880848 100225104 100556440 100874520 
3329.790 101179000 101468624 101741848 101996984 102232344 102447864 
3332.683 102643856 102820952 102979600 103119232 103238232 103334736 
3335.576 103408088 103458544 103487688 103497992 103491088 103467504 
3338.469 103425792 103363400 103277320 103165328 103026224 102859544 
3341.362 102666184 102446440 102200480 101928136 101629368 101304120 
3344.255 100953280 100577824 100178408 99755920 99310280 98841792 98351248 
3347.630 97839760 97309792 96763592 96203920 95632592 95050872 94459136 
3351.006 93857608 93246464 92626264 91997696 91362264 90721472 90077096 
3354.381 89431480 88787392 88146768 87512040 86884544 86264872 85653144 
3357.756 85049600 84454272 83868720 83295072 82734968 82190480 81661744 
3361.131 81148472 80648664 80160656 79682824 79214512 78755840 78307136 
3364.507 77869008 77441408 77024208 76617288 76221248 75836744 75464904 
3367.882 75106512 74761208 74427616 74103512 73786136 73472640 73161216 
3371.257 72850752 72540632 72230264 71919064 71606088 71290408 70971224 
3374.632 70648400 70321768 69991416 69656688 69316768 68970128 68615376 
3378.008 68251544 67878360 67496512 67106740 66709884 66306064 65894716 
3381.383 65475232 65047076 64609848 64164264 63710956 63251152 62785744 
3384.758 62315484 61840492 61361136 60878080 60392400 59905700 59420308 
3388.133 58937844 58460472 57988956 57523664 57063600 56607752 56154536 
3391.509 55703072 55253576 54807032 54365564 53931412 53506052 53089716 
3394.884 52680812 52276104 51872632 51467372 51059248 50649532 50240576 
3398.259 49835608 49437480 49047168 48664068 48286268 47911124 47536672 
3401.634 47161732 46786564 46412196 46039736 45670136 45303716 44940288 
3405.010 44579260 44220144 43862900 43507636 43154200 42803024 42453996 
3408.385 42107072 41762504 41420508 41081660 40746564 40415840 40089908 
3411.760 39768980 39452784 39141100 38833188 38528756 38227140 37928264 
3415.135 37632452 37340156 37051924 36768496 36489936 36215452 35943976 
3418.510 35674076 35404704 35135212 34866856 34601716 34342152 34090552 
3421.886 33847772 33613356 33385120 33160542 32937008 32712910 32487788 
3425.261 32262530 32038354 31815894 31595546 31377022 31159350 30941862 
3428.636 30724588 30508134 30293210 30081018 29872198 29666846 29465066 
3432.011 29266608 29071532 28880404 28693750 28511990 28334796 28160856 
3435.387 27988716 27816010 27641290 27463674 27283732 27102770 26922308 
3438.762 26743930 26568302 26394962 26222992 26050918 25877818 25703594 
3442.137 25529266 25356200 25185906 25019012 24854746 24691068 24525066 
3445.512 24354258 24177282 23994878 23809298 23624564 23444808 23272534 
3448.888 23108996 22953484 22803512 22657044 22511920 22366842 22221360 
3452.263 22075718 21929848 21783466 21636334 21487858 21338286 21187826 
3455.638 21037694 20888866 20742280 20598072 20456202 20316116 20177186 
3459.013 20038786 19900326 19761354 19621040 19479074 19335284 19190018 
3462.389 19044836 18901498 18762016 18627838 18499368 18375742 18255158 
3465.764 18135540 18015090 17892638 17768082 17641454 17513760 17385310 
3469.139 17256896 17129110 17002980 16879364 16758990 16641986 16527802 
3472.514 16414646 16301071 16185293 16066724 15946401 15825974 15707470 
3475.890 15592981 15483262 15377930 15276467 15177225 15079343 14981996 
3479.265 14885221 14788707 14692112 14596018 14500665 14407216 14317452 
3482.640 14233082 14155060 14083043 14015075 13948075 13878863 13804565 
3486.015 13724398 13639118 13550537 13461667 13374319 13290166 13209547 
3489.391 13132529 13059008 12989664 12925178 12866095 12812206 12762487 
3492.766 12715026 12668115 12620255 12571172 12521617 12473227 12427570 
3496.141 12386248 12350419 12320727 12297378 12281017 12271099 12267281 
3499.516 12268406 12272325 12277165 12281256 12283710 12285517 12288550 
3502.892 12295435 12309001 12331055 12362520 12403397 12452904 12509920 
3506.267 12572980 12640858 12711750 12783950 12856572 12928660 13000999 
3509.642 13074715 13151756 13233492 13320470 13412044 13506646 13602602 
3513.017 13698648 13794167 13889400 13984859 14080168 14174298 14265301 
3516.393 14351287 14430610 14502618 14567852 14626859 14680802 14728684 
3519.768 14769064 14799369 14817059 14819699 14806226 14776641 14731564 
3523.143 14672371 14599958 14514985 14417937 14308412 14185527 14048509 
3526.518 13896311 13728400 13545341 13348795 13141818 12928353 12711955 
3529.894 12494949 12278767 12062727 11845808 11626340 11403685 11177439 
3533.269 10948320 10716332 10481753 10244248 10003584 9760003 9515305 
3536.644 9271964 9033123 8801819 8580100 8368660 8166880 7973596 7787212 
3540.501 7606607 7431368 7260513 7093800 6930046 6767566 6604776 6439728 
3544.359 6271481 6099838 5925710 5751350 5580013 5415152 5259877 5116292 
3548.216 4984686 4862804 4746584 4631030 4510820 4382176 4244502 4099847 
3552.074 3953368 3810883 3677734 3557253 3449597 3352119 3260604 3171545 
3555.931 3081504 2989379 2895072 2799419 2703520 2608308 2514318 2421914 
3559.789 2331727 2244058 2159836 2079559 2003458 1930864 1860612 1790338 
3563.646 1716916 1636687 1545999 1441932 1323200 1191808 1053149 915264 
3567.503 787846 678850 592608 529075 483960 450226 420707 388836 349970 
3571.843 301823 243901 177303 104219 26806 -52116 -130197 -205448 -276382 
3576.183 -342868 -405702 -466674 -527438 -589683 -653904 -719406 -784468 
3580.040 -847404 -906396 -960718 -1010802 -1057443 -1101799 -1145588 
3583.415 -1189373 -1234673 -1283239 -1337481 -1400237 -1473915 -1559268 
3586.791 -1653649 -1752200 -1846868 -1928981 -1993038 -2036341 -2060943 
3590.166 -2072089 -2076837 -2082048 -2093589 -2114692 -2147104 -2189996 
3593.541 -2240796 -2296336 -2353517 -2409668 -2462979 -2512298 -2557328 
3596.916 -2597809 -2633544 -2664961 -2691404 -2713763 -2732399 -2747677 
3600.292 -2760814 -2772831 -2785144 -2798872 -2815135 -2834459 -2856744 
3603.667 -2881628 -2908223 -2936132 -2965586 -2997638 -3034458 -3078251 
3607.042 -3130525 -3191214 -3257617 -3325194 -3388321 -3442926 -3487696 
3610.417 -3524212 -3557142 -3591451 -3631540 -3679017 -3732139 -3786339 
3613.792 -3836329 -3877544 -3907756 -3928443 -3943514 -3958158 -3977234 
3617.168 -4004943 -4042433 -4088684 -4139196 -4188128 -4229408 -4258021 
3620.543 -4272523 -4274360 -4267962 -4258152 -4249949 -4246176 -4247193 
3623.918 -4250835 -4254149 -4254411 -4251819 -4249949 -4255560 -4278363 
3627.293 -4326097 -4401839 -4499769 -4604954 -4698052 -4762390 -4791884 
3630.669 -4791360 -4772779 -4749117 -4731550 -4726338 -4735057 -4754721 
3634.044 -4779300 -4803813 -4823048 -4835664 -4841594 -4842839 -4841070 
3637.419 -4838285 -4835205 -4832944 -4832419 -4834320 -4839563 -4848967 
3640.794 -4862237 -4878521 -4896410 -4914035 -4930154 -4944142 -4956066 
3644.170 -4966745 -4978308 -4992819 -5012111 -5038314 -5072375 -5114554 
3647.545 -5163670 -5217429 -5272426 -5324471 -5368622 -5400628 -5416891 
3650.920 -5415451 -5397257 -5365513 -5326075 -5285553 -5251869 -5231703 
3654.295 -5230001 -5248530 -5285062 -5332162 -5379454 -5416630 -5436362 
3657.671 -5436427 -5419542 -5391563 -5359360 -5328922 -5304963 -5289906 
3661.046 -5284800 -5288433 -5298875 -5313474 -5328889 -5342243 -5350622 
3664.421 -5352454 -5346793 -5334257 -5316714 -5296780 -5278351 -5265356 
3667.796 -5260282 -5263425 -5270823 -5273867 -5258776 -5210980 -5119760 
3671.172 -4981813 -4802010 -4590594 -4361395 -4129350 -3908807 -3717126 
3674.547 -3573147 -3493875 -3491147 -3565292 -3705760 -3895244 -4116321 
3677.922 -4354211 -4595053 -4826390 -5034973 -5209408 -5343716 -5438292 
3681.297 -5500721 -5541778 -5572496 -5600463 -5627938 -5653253 -5673235 
3684.673 -5686579 -5695049 -5703977 -5719837 -5748710 -5792949 -5849802 
3688.048 -5911485 -5967505 -6009336 -6032668 -6037765 -6028648 -6010055 
3691.423 -5985185 -5956393 -5924820 -5891676 -5859086 -5829206 -5804326 
3694.798 -5785233 -5771729 -5761364 -5751522 -5738835 -5721602 -5700118 
3698.174 -5676048 -5652991 -5635199 -5626532 -5629377 -5644815 -5671045 
3701.549 -5704696 -5740372 -5772906 -5798049 -5813873 -5820738 -5820411 
3704.924 -5816325 -5811290 -5807955 -5807432 -5809852 -5814429 -5820183 
3708.299 -5826754 -5834764 -5845552 -5860916 -5882425 -5909948 -5941326 
3711.675 -5971917 -5996460 -6010251 -6010676 -5998094 -5975773 -5948974 
3715.050 -5922892 -5902234 -5890467 -5888211 -5894030 -5905470 -5918708 
3718.425 -5930703 -5939495 -5944333 -5945706 -5944496 -5940345 -5933089 
3721.800 -5921911 -5906483 -5887591 -5867716 -5850292 -5839079 -5836856 
3725.176 -5844211 -5858824 -5876967 -5892853 -5901417 -5900208 -5889519 
3728.551 -5872586 -5854509 -5840942 -5836660 -5844277 -5863368 -5890663 
3731.926 -5921519 -5951327 -5978290 -6003421 -6031034 -6064788 -6106479 
3735.301 -6152543 -6195401 -6225615 -6235642 -6222904 -6190959 -6146663 
3738.677 -6097037 -6047470 -6000251 -5955314 -5912726 -5874417 -5845257 
3742.052 -5833848 -5850194 -5901483 -5986199 -6089816 -6186680 -6249033 
3745.427 -6262358 -6229698 -6168354 -6099552 -6041948 -6008682 -6004957 
3748.802 -6028518 -6070506 -6118861 -6162605 -6194486 -6211994 -6215326 
3752.177 -6204612 -6179754 -6140684 -6089293 -6029465 -5967047 -5908576 
3755.553 -5858791 -5820837 -5795074 -5780001 -5773004 -5771696 -5774868 
3758.928 -5781342 -5789581 -5797166 -5799782 -5793701 -5777189 -5752078 
3762.303 -5723041 -5697043 -5680529 -5677716 -5688541 -5709241 -5733015 
3765.678 -5753092 -5765157 -5768786 -5767609 -5766073 -5768100 -5775620 
3769.054 -5787227 -5799717 -5808740 -5811650 -5807040 -5795760 -5780263 
3772.429 -5762541 -5744917 -5728469 -5714310 -5702766 -5694068 -5688083 
3775.804 -5684715 -5684224 -5686252 -5691419 -5700150 -5712609 -5727783 
3779.179 -5743478 -5756917 -5764928 -5766007 -5759828 -5748383 -5734813 
3782.555 -5722485 -5714212 -5711661 -5715030 -5723401 -5735205 -5748710 
3785.930 -5762280 -5774541 -5783859 -5788895 -5788600 -5782355 -5771075 
3789.305 -5756525 -5741287 -5727227 -5715586 -5705579 -5696422 -5686350 
3792.680 -5674707 -5662443 -5651454 -5644095 -5642002 -5644880 -5650604 
3796.056 -5654627 -5653286 -5643932 -5627938 -5609491 -5595328 -5592940 
3799.431 -5608935 -5646188 -5703028 -5770781 -5836398 -5885237 -5906451 
3802.806 -5898475 -5867062 -5823681 -5781178 -5751195 -5741549 -5754563 
3806.181 -5785723 -5824106 -5856144 -5870004 -5860426 -5829991 -5786540 
3809.557 -5738639 -5693610 -5655052 -5622901 -5594837 -5568407 -5542236 
3812.932 -5518715 -5502160 -5498365 -5511975 -5543479 -5588001 -5634938 
3816.307 -5671960 -5690340 -5687789 -5669802 -5646156 -5629574 -5630261 
3819.682 -5655052 -5704042 -5770552 -5840092 -5896155 -5926552 -5926422 
3823.058 -5899685 -5854967 -5802332 -5751097 -5706593 -5671731 -5645894 
3826.433 -5626270 -5608935 -5591010 -5571024 -5549433 -5528038 -5508998 
3829.808 -5494177 -5484525 -5479814 -5479519 -5481908 -5485703 -5489596 
3833.183 -5492999 -5496435 -5500982 -5509619 -5525061 -5550971 -5589276 
3836.559 -5639647 -5698875 -5760187 -5815148 -5856144 -5878699 -5882229 
3839.934 -5870363 -5847611 -5819659 -5790595 -5762966 -5737560 -5714212 
3843.309 -5691779 -5669148 -5645110 -5619304 -5592024 -5563860 -5536446 
3846.684 -5511320 -5489793 -5472452 -5459004 -5447977 -5438161 -5429457 
3850.060 -5424058 -5427690 -5448239 -5494700 -5573608 -5683701 -5812565 
3853.435 -5936424 -6029236 -6074035 -6068611 -6023518 -5954955 -5878045 
3856.810 -5802953 -5735500 -5677716 -5628887 -5587510 -5552149 -5521790 
3860.185 -5495878 -5474644 -5457892 -5446276 -5440713 -5442349 -5452460 
3863.561 -5471372 -5496631 -5523524 -5545050 -5554766 -5549401 -5530623 
3866.936 -5504908 -5482170 -5472877 -5484591 -5519140 -5570860 -5626891 
3870.311 -5671895 -5695212 -5693577 -5671960 -5639386 -5605827 -5578318 
3873.686 -5559051 -5546391 -5535039 -5520154 -5498070 -5468918 -5435805 
3877.062 -5404096 -5379094 -5365447 -5365546 -5379192 -5402918 -5430013 
3880.437 -5453082 -5464992 -5461557 -5443331 -5414895 -5384789 -5361880 
3883.812 -5355007 -5369243 -5404260 -5452460 -5501538 -5538049 -5552247 
3887.187 -5541877 -5512237 -5473368 -5435903 -5409169 -5398337 -5403704 
3890.563 -5420458 -5439993 -5453802 -5455732 -5443822 -5420426 -5390352 
3893.938 -5358476 -5328791 -5303523 -5283425 -5268433 -5258154 -5252458 
3897.313 -5251738 -5255863 -5264603 -5277369 -5292820 -5309807 -5327613 
3900.688 -5346662 -5367738 -5391694 -5418528 -5446702 -5473139 -5493686 
3904.063 -5504156 -5502258 -5487994 -5463814 -5433973 -5402722 -5373694 
3907.439 -5348461 -5327711 -5309971 -5293802 -5277795 -5261101 -5244045 
3910.814 -5227055 -5211046 -5196313 -5183249 -5171659 -5161509 -5153749 
3914.189 -5149230 -5149754 -5156303 -5169203 -5187113 -5207313 -5226171 
3917.564 -5240150 -5247090 -5246239 -5238709 -5226629 -5212617 -5198899 
3920.940 -5187146 -5178240 -5172707 -5170578 -5171331 -5174213 -5178600 
3924.315 -5183151 -5186785 -5188586 -5188324 -5186393 -5183249 -5179681 
3927.690 -5175981 -5172379 -5168679 -5164848 -5161247 -5158791 -5158562 
3931.065 -5161411 -5167403 -5175522 -5183839 -5189896 -5191893 -5189045 
3934.441 -5181776 -5171593 -5160494 -5149754 -5140324 -5132138 -5124770 
3937.816 -5117730 -5110853 -5105024 -5101258 -5100996 -5104991 -5113539 
3941.191 -5125589 -5139866 -5153847 -5165307 -5172216 -5173525 -5169203 
3944.566 -5160297 -5149132 -5138032 -5129911 -5126866 -5129191 -5136231 
3947.942 -5145760 -5154568 -5159872 -5159774 -5153683 -5142943 -5129453 
3951.317 -5115405 -5102666 -5092089 -5083968 -5077975 -5073783 -5070966 
3954.692 -5069165 -5068150 -5066741 -5064351 -5059635 -5052135 -5041785 
3958.067 -5029766 -5017582 -5007395 -5001040 -4999468 -5002482 -5009557 
3961.443 -5018597 -5027408 -5033696 -5035792 -5032156 -5022757 -5008279 
3964.818 -4990624 -4972019 -4955444 -4942963 -4935985 -4934445 -4937033 
3968.193 -4941816 -4946140 -4948172 -4947156 -4943257 -4937230 -4930612 
3971.568 -4924584 -4920063 -4917246 -4915968 -4915674 -4915379 -4914297 
3974.944 -4911644 -4906926 -4899588 -4890185 -4879340 -4868167 -4857781 
3978.319 -4849262 -4843036 -4839071 -4836843 -4835336 -4833828 -4831928 
3981.694 -4829569 -4826751 -4824555 -4823310 -4823540 -4825636 -4829831 
3985.069 -4836024 -4843888 -4853030 -4862368 -4871247 -4878815 -4884353 
3988.445 -4887891 -4889464 -4889529 -4888088 -4885106 -4880159 -4872820 
3991.820 -4862860 -4850802 -4837597 -4825178 -4815577 -4810072 -4809350 
3995.195 -4813086 -4819902 -4828127 -4836057 -4842774 -4848508 -4853947 
3998.570 -4860140 -4868069 -4878062 -4889366 -4900374 
##END=
