
##TITLE=Z413_2_d
##JCAMP-DX=5.01  $$ Nicolet v. 1
##DATATYPE=INFRARED SPECTRUM
##ORIGIN=UniL
##OWNER=Nicolet
##LONGDATE=2011/09/21
##TIME=15:24:21
##SPECTROMETER/DATA SYSTEM=Nicolet iS5
##DATA PROCESSING=
Ratio against background
%Transmittance->Absorbance
Truncated
ElementMultiply or ElementDivide
##COMMENTS=
Number of sample scans: 32
Collection length: 51.20 sec
Sample gain: 2.0
Background collected on: Mer Sep 21 15:15:46 2011 (GMT+02:00);
Number of background scans: 32
Background gain: 2.0
Sample spacing:  1.000
Number of scan points: 12415
Resolution points: 8192
Number of FFT points: 65536
Apodization: N-B fort;
Phase correction: Mertz;
Laser frequency: 15798.0 cm-1
Number of rejected sample scans: 0
Number of rejected background scans: 0
Bench serial number: ASB1000141;
##RESOLUTION=4.000
##XUNITS=1/CM
##YUNITS=ABSORBANCE
##FIRSTX=649.893372
##LASTX=4000.122314
##FIRSTY=0.110980
##MAXX=4000.122314
##MINX=649.893372
##MAXY=0.276566
##MINY=-0.007062
##XFACTOR=1.000000
##YFACTOR=1.000000E-009
##NPOINTS=6950
##DELTAX=0.482117
##ZPD=6100
##XYDATA=(X++(Y..Y))
649.893 110979624 110391472 109906288 109532728 109247616 109015832 
652.786 108809880 108629000 108497408 108455472 108535024 108744160 
655.679 109061912 109449344 109863568 110277120 110685808 111099896 
658.571 111532624 111989144 112463760 112946968 113439440 113957976 
661.464 114535104 115203056 115979176 116850432 117776400 118697392 
664.357 119558624 120323392 120970672 121492544 121882016 122128280 
667.250 122223800 122183064 122053448 121895088 121752576 121629536 
670.142 121493952 121293256 120975840 120511392 119898984 119171936 
673.035 118381128 117581680 116807280 116062232 115328912 114584056 
675.928 113814432 113024584 112231880 111453896 110697656 109954504 
678.820 109206112 108435480 107639432 106829664 106029400 105259400 
681.713 104530288 103838816 103172888 102520488 101877688 101250400 
684.606 100649336 100080680 99541064 99015888 98487488 97944488 97389480 
687.981 96839152 96317400 95846344 95434536 95076736 94756760 94459104 
691.355 94175344 93909960 93674992 93484816 93348416 93265408 93229752 
694.730 93234848 93279448 93370312 93519088 93735808 94024040 94377432 
698.105 94783424 95227992 95702920 96208432 96751080 97338064 97970768 
701.480 98641648 99336312 100037416 100730888 101410400 102074384 102721880 
704.855 103348352 103941848 104486288 104968080 105381344 105731608 
707.747 106033072 106304448 106561176 106813352 107067064 107329208 
710.640 107611792 107933600 108314800 108768760 109295640 109878208 
713.533 110484240 111073880 111612520 112076552 112456072 112752712 
716.425 112973824 113127840 113222960 113271424 113293952 113320064 
719.318 113389664 113543488 113810552 114200952 114695672 115247160 
722.211 115779632 116203448 116430576 116383008 116016744 115329216 
725.104 114366312 113212424 111978000 110779664 109706648 108815112 
727.996 108120272 107605000 107233384 106967568 106780680 106656936 
730.889 106589168 106572440 106596624 106646264 106705480 106762080 
733.782 106812928 106863352 106923112 106998648 107089704 107188552 
736.674 107285256 107372904 107452888 107533432 107626656 107741464 
739.567 107878976 108032552 108190872 108344736 108490312 108630448 
742.460 108770800 108915888 109065152 109213488 109354368 109484680 
745.352 109606504 109726744 109852264 109984552 110117792 110240816 
748.245 110342048 110415832 110465952 110504408 110545736 110599464 
751.138 110667008 110740792 110810368 110867464 110911176 110947496 
754.031 110985824 111033272 111090992 111153696 111213744 111266824 
756.923 111314168 111362256 111419160 111489568 111571520 111657808 
759.816 111739056 111810712 111874840 111939752 112015352 112108160 
762.709 112218368 112340184 112467616 112599856 112746096 112927544 
765.601 113173712 113513584 113971888 114558312 115262624 116048120 
768.494 116851120 117586624 118148768 118437264 118376472 117935224 
771.387 117144192 116094176 114924472 113776496 112771448 111979496 
774.279 111407088 111006536 110696112 110393360 110027544 109552736 
777.172 108946968 108195888 107283520 106188672 104884160 103347760 
780.065 101571264 99564520 97354320 94979112 92486032 89922728 87337584 
783.440 84780872 82297832 79928704 77705200 75645464 73756136 72035208 
786.815 70475096 69068160 67807816 66689604 65709032 64860188 64135380 
790.189 63524948 63020052 62614292 62304584 62090728 61974420 61958028 
793.564 62044364 62235820 62535876 62948272 63475744 64118556 64872920 
796.939 65731356 66685820 67733496 68882320 70156856 71595656 73249568 
800.314 75167568 77377296 79868528 82573160 85363824 88040184 90359976 
803.689 92077560 92965688 92881432 91794872 89804592 87116840 84006000 
807.063 80766008 77623456 74715272 72068800 69621640 67259784 64867532 
810.438 62376144 59777808 57127608 54514336 52040052 49786704 47800032 
813.813 46092272 44647080 43433400 42414244 41555940 40830932 40214640 
817.188 39686996 39230596 38831740 38480892 38172688 37904364 37674184 
820.563 37480284 37320188 37192676 37098188 37039188 37019776 37042832 
823.938 37108364 37212676 37348968 37509580 37689292 37886036 38101456 
827.312 38338920 38601940 38893016 39213552 39566952 39960236 40406892 
830.687 40928972 41554592 42317588 43254228 44393372 45750496 47314008 
834.062 49037156 50824860 52534088 53997180 55026128 55458596 55196496 
837.437 54221312 52609256 50507660 48118956 45646652 43263672 41103476 
840.812 39238212 37690988 36448172 35475312 34729296 34165824 33747416 
844.186 33441052 33219234 33062096 32955312 32890364 32863128 32871030 
847.561 32910236 32974828 33056732 33148132 33243772 33342290 33445810 
850.936 33558984 33686292 33830544 33992652 34172600 34370840 34589264 
854.311 34831600 35102164 35404780 35742356 36116816 36530484 36986976 
857.686 37491732 38052232 38677236 39375760 40159468 41043088 42044760 
861.060 43187612 44493612 45976560 47633572 49435324 51323704 53207376 
864.435 54979984 56531168 57762036 58610236 59057100 59136028 58924032 
867.810 58537660 58117040 57795008 57695396 57913868 58506984 59499452 
871.185 60882656 62622368 64658180 66907668 69270824 71617848 73803296 
874.560 75676336 77083832 77906144 78070664 77564032 76435104 74785448 
877.935 72756912 70496376 68149424 65840764 63655516 61645044 59824352 
881.309 58181020 56686160 55307692 54022884 52823396 51717560 50725344 
884.684 49872776 49181180 48662028 48315040 48129948 48091272 48182628 
888.059 48392148 48712884 49141368 49676616 50317284 51062120 51910684 
891.434 52865420 53933100 55124264 56453016 57934504 59582712 61409188 
894.809 63419724 65610364 67959448 70419760 72914824 75325888 77507464 
898.183 79302680 80554072 81145920 81018248 80178544 78699320 76706384 
901.558 74364064 71837272 69287152 66852972 64632996 62694864 61072500 
904.933 59772864 58786036 58091852 57668904 57496244 57556764 57838384 
908.308 58331600 59030416 59931376 61033904 62339352 63849688 65562548 
911.683 67466680 69535408 71720704 73958952 76171256 78273680 80197152 
915.058 81891984 83340024 84555904 85585304 86496792 87363272 88257024 
918.432 89226920 90285320 91397880 92481192 93415464 94051320 94250552 
921.807 93915640 93014288 91601016 89816936 87886344 86065912 84626280 
925.182 83813576 83790912 84627088 86267496 88546240 91186512 93841520 
928.557 96171008 97857520 98679616 98542568 97467648 95573536 93026680 
931.932 90015656 86706784 83231528 79698512 76190920 72781160 69542224 
935.306 66540196 63835716 61480032 59506252 57932840 56764316 55994608 
938.681 55608908 55582396 55880260 56448564 57213448 58088444 58970560 
942.056 59757540 60364108 60724444 60807148 60616428 60190104 59590128 
945.431 58890944 58171896 57499228 56922224 56470940 56155212 55970708 
948.806 55904076 55939088 56059068 56247528 56489732 56769300 57070096 
952.181 57377984 57681812 57976308 58262632 58546872 58837176 59141040 
955.555 59463736 59808040 60175104 60566636 60984636 61431668 61909040 
958.930 62415584 62947272 63497908 64061800 64635576 65219156 65814780 
962.305 66425852 67054072 67699344 68359336 69031720 69715816 70413448 
965.680 71128288 71864360 72624352 73409192 74218008 75050464 75907768 
969.055 76793168 77711816 78667792 79663480 80699448 81774728 82889848 
972.429 84047768 85254744 86518624 87846752 89243880 90711592 92249496 
975.804 93857400 95536832 97292096 99128152 101049064 103056304 105149296 
979.179 107327128 109592520 111953088 114423056 117019024 119756560 
982.072 122646704 125692456 128888456 132218616 135656816 139158608 
984.964 142653792 146048928 149216048 152003856 154264128 155857088 
987.857 156683488 156700784 155926544 154439136 152362576 149865920 
990.750 147135712 144356944 141712592 139349904 137376560 135860944 
993.643 134826672 134264800 134144696 134428176 135076576 136056064 
996.535 137340464 138906000 140728528 142784224 145046688 147487904 
999.428 150080368 152787872 155562400 158341408 161037552 163549216 
1002.321 165773472 167611264 168991584 169879392 170279584 170236528 
1005.213 169829376 169170912 168387264 167617312 167001216 166655744 
1008.106 166675488 167122144 168021264 169372288 171154608 173341344 
1010.999 175902096 178807664 182030720 185538464 189293824 193258976 
1013.891 197393360 201661264 206028096 210447920 214853920 219143632 
1016.784 223164624 226737536 229667040 231772640 232937712 233126336 
1019.677 232406784 230937168 228966576 226805120 224764704 223161376 
1022.570 222260544 222242336 223208624 225166544 228047280 231715936 
1025.462 236004464 240737472 245728176 250803824 255798992 260542096 
1028.355 264874672 268651168 271751104 274100960 275672704 276481184 
1031.249 276566432 275982944 274786816 273028800 270760384 268032432 
1034.142 264890816 261374736 257509168 253305072 248767008 243907088 
1037.035 238757120 233380400 227866224 222319200 216853504 211568736 
1039.928 206548144 201857888 197539248 193611744 190067328 186867456 
1042.821 183939536 181179888 178477504 175721808 172831568 169775104 
1045.714 166573664 163300224 160057616 156972032 154164784 151736720 
1048.607 149769280 148312112 147384720 146979744 147066160 147595376 
1051.500 148504560 149730496 151212160 152892672 154724448 156657968 
1054.393 158633776 160582768 162415056 164026736 165317424 166190288 
1057.286 166569968 166412704 165704992 164470624 162766624 160690304 
1060.179 158369744 155951200 153601504 151476288 149709024 148409648 
1063.072 147646992 147455344 147836320 148763360 150182464 152010624 
1065.965 154145184 156456176 158794528 161016048 162979424 164568096 
1068.858 165703424 166336640 166449744 166046416 165145008 163773808 
1071.751 161967248 159768448 157224224 154383920 151302928 148039264 
1074.645 144659872 141248464 137898000 134714656 131813032 129295288 
1077.538 127251936 125751376 124830288 124495232 124718560 125440536 
1080.431 126562368 127949504 129448416 130879920 132071960 132888336 
1083.324 133238672 133105680 132543816 131675840 130663784 129685520 
1086.217 128922704 128523576 128600688 129223448 130409552 132128728 
1089.110 134300592 136812144 139516192 142248336 144856272 147197088 
1092.003 149156544 150656720 151645488 152097056 152006672 151387872 
1094.896 150271120 148700960 146738448 144452544 141917392 139214704 
1097.789 136424528 133625032 130891784 128283056 125836136 123559640 
1100.682 121431368 119402264 117407184 115386992 113298472 111130240 
1103.575 108905664 106681672 104537712 102558408 100830976 99429696 98408848 
1106.950 97806384 97639240 97905672 98586928 99650632 101053160 102738712 
1110.326 104647536 106712432 108856192 110998144 113046160 114898128 
1113.219 116457080 117630720 118346048 118561056 118264600 117477048 
1116.112 116241560 114621416 112689536 110518936 108185768 105757304 
1119.005 103287360 100818016 98374144 95967504 93602360 91281712 89012608 
1122.380 86810528 84697104 82698928 80843792 79154272 77648456 76338944 
1125.755 75233680 74339296 73662104 73208552 72984512 72993176 73233136 
1129.131 73695632 74363040 75208616 76192304 77263752 78363688 79422336 
1132.506 80372752 81157624 81736728 82099240 82264672 82283296 82222672 
1135.881 82161496 82176624 82325544 82644416 83139552 83788176 84538352 
1139.256 85315760 86037312 86612128 86957768 87011120 86726568 86082520 
1142.632 85077528 83726136 82054976 80099608 77906984 75528896 73023400 
1146.007 70453584 67877816 65350892 62921308 60625988 58494168 56546908 
1149.382 54796284 53248536 51903216 50755136 49794508 49008668 48384296 
1152.757 47907904 47568204 47356648 47267268 47295496 47438128 47691664 
1156.133 48052628 48517656 49084376 49751740 50519648 51388484 52357920 
1159.508 53426416 54590416 55844424 57180524 58586988 60047936 61539584 
1162.883 63029364 64478876 65840960 67066288 68108760 68923528 69474176 
1166.258 69733200 69681312 69311168 68627288 67647336 66399328 64919896 
1169.634 63252576 61440064 59525140 57549652 55550012 53561296 51615304 
1173.009 49737956 47951600 46273548 44714800 43282852 41981540 40812736 
1176.384 39777112 38874716 38105800 37469700 36965724 36592408 36348080 
1179.759 36232088 36244876 36388900 36667572 37085304 37645708 38350828 
1183.135 39200680 40192432 41320284 42573304 43932112 45369260 46842588 
1186.510 48297892 49674500 50904388 51924348 52684252 53148540 53303564 
1189.885 53157904 52741640 52101160 51293312 50383252 49430868 48491612 
1193.260 47612980 46830812 46172896 45659756 45304488 45115164 45093588 
1196.635 45234620 45523960 45937112 46440884 46990056 47531940 48011844 
1200.011 48370852 48555228 48520988 48235908 47687116 46882264 45851344 
1203.386 44639920 43305400 41910852 40512656 39159484 37888528 36722376 
1206.761 35673180 34744512 33934320 33237222 32646250 32154728 31755146 
1210.136 31440814 31206558 31048440 30964456 30954208 31017798 31155008 
1213.512 31364128 31641696 31983030 32381854 32830716 33321184 33842508 
1216.887 34381096 34922256 35449712 35947828 36403996 36808452 37155140 
1220.262 37440768 37664356 37826924 37931736 37985472 37998524 37984132 
1223.637 37958712 37939004 37939908 37974188 38050204 38172360 38341416 
1227.013 38554648 38806488 39088636 39391576 39705728 40023196 40340824 
1230.388 40660540 40990432 41342660 41732776 42177504 42692132 43292112 
1233.763 43992276 44806848 45751160 46839412 48084012 49495032 51078556 
1237.138 52836940 54769292 56871380 59135080 61545540 64082228 66716492 
1240.514 69412392 72133384 74842328 77504776 80092592 82579176 84938424 
1243.889 87144824 89169912 90984752 92562128 93874264 94894760 95599096 
1247.264 95963200 95967952 95602528 94865944 93768448 92329496 90575608 
1250.639 88535312 86239568 83724488 81029704 78204056 75305824 72394752 
1254.015 69534792 66787200 64202248 61822464 59677324 57781076 56134548 
1257.390 54723704 53521900 52488804 51575528 50729368 49893808 49020312 
1260.765 48071280 47022624 45867656 44614948 43286364 41911288 40523788 
1264.140 39158976 37846628 36611656 35471896 34436940 33510230 32689154 
1267.516 31967300 31335636 30784338 30305254 29891400 29537944 29241868 
1270.891 29000434 28810966 28670496 28575790 28524798 28516412 28551230 
1274.266 28630748 28756124 28927222 29141296 29391812 29667024 29951710 
1277.641 30224860 30462106 30639388 30734084 30730136 30621078 30410858 
1281.017 30112874 29745682 29331474 28890144 28437586 27986632 27546806 
1284.392 27126682 26735754 26384010 26081950 25839698 25665208 25564512 
1287.767 25542900 25604506 25754642 25998816 26342150 26787840 27335636 
1291.142 27980800 28712938 29515352 30366154 31234826 32085046 32877676 
1294.518 33571332 34131844 34537636 34783028 34880500 34858096 34756468 
1297.893 34618112 34485220 34395048 34374676 34443180 34610436 34876192 
1301.268 35230284 35650912 36108676 36565592 36981488 37321128 37555640 
1304.643 37668148 37654816 37524024 37293872 36988888 36638836 36273292 
1308.019 35918928 35599336 35330588 35122024 34976592 34892528 34865420 
1311.394 34890448 34964128 35084020 35248180 35454496 35699872 35980548 
1314.769 36293356 36636028 37008264 37410720 37844424 38309608 38805580 
1318.144 39330704 39883556 40463192 41069164 41700168 42351740 43014136 
1321.520 43671748 44302328 44877164 45366868 45742360 45981056 46072488 
1324.895 46022904 45857788 45618092 45360652 45146888 45030844 45055468 
1328.270 45242524 45590932 46079560 46674504 47338428 48034716 48736680 
1331.645 49427492 50099396 50752456 51392028 52027236 52668728 53326900 
1335.021 54009900 54720732 55455016 56200388 56938504 57644612 58291660 
1338.396 58853568 59305016 59624908 59798760 59819104 59687852 59415328 
1341.771 59019976 58524616 57954688 57338052 56700240 56064912 55452760 
1345.146 54878612 54352012 53877204 53453324 53075224 52732960 52414104 
1348.521 52102616 51781948 51438388 51062976 50655824 50226444 49796812 
1351.897 49398012 49067016 48846344 48775568 48886612 49199920 49718040 
1355.272 50422176 51270496 52205364 53156180 54046372 54809248 55387148 
1358.647 55739984 55849284 55717684 55370924 54852444 54226792 53571792 
1362.022 52966844 52489968 52199276 52121524 52249308 52541828 52935068 
1365.398 53346008 53690104 53887636 53869256 53593084 53048980 52264556 
1368.773 51297004 50225324 49134500 48094856 47160700 46364636 45718764 
1372.148 45223552 44873672 44663824 44590420 44650092 44836348 45135644 
1375.523 45527932 45989860 46497600 47032408 47582180 48140688 48708324 
1378.899 49291140 49901468 50556464 51278028 52088872 53004280 54024012 
1382.274 55121820 56244776 57308372 58206824 58833836 59083332 58874700 
1385.649 58169352 56988972 55426408 53632108 51796248 50089988 48631196 
1389.024 47475500 46618284 46018664 45617504 45356348 45179944 45037424 
1392.400 44885468 44683656 44399204 44014020 43528220 42962188 42346848 
1395.775 41714028 41084392 40464208 39851412 39244016 38649816 38091984 
1399.150 37604916 37223216 36972868 36861796 36881600 37013784 37238164 
1402.525 37537684 37900204 38319448 38791852 39313872 39880760 40485524 
1405.901 41120668 41779868 42459036 43157088 43874704 44612784 45370620 
1409.276 46146032 46934604 47731528 48533032 49336204 50138740 50937140 
1412.651 51724464 52491760 53228836 53927736 54586580 55211060 55813944 
1416.026 56411588 57022148 57662888 58347860 59088004 59888320 60742320 
1419.402 61630764 62521144 63374512 64150900 64817756 65355436 65756604 
1422.777 66031672 66207880 66327408 66436128 66571788 66755824 66989116 
1426.152 67258472 67544512 67831872 68110856 68380168 68644520 68914240 
1429.527 69204880 69535496 69930576 70416296 71013120 71732624 72571608 
1432.903 73514472 74535856 75610040 76718488 77849264 79000120 80174160 
1436.278 81376960 82608792 83865184 85138040 86413776 87673864 88889672 
1439.653 90024952 91029976 91846288 92419088 92695216 92632056 92200656 
1443.028 91384096 90182704 88617464 86737576 84616136 82339080 80004624 
1446.404 77703576 75514312 73503920 71718360 70179872 68883216 67801576 
1449.779 66896072 66130476 65486564 64968692 64601504 64414032 64424256 
1453.154 64621076 64961532 65365604 65726920 65930844 65863632 65458016 
1456.529 64732708 63814112 62889284 62125668 61624960 61411972 61470028 
1459.905 61770816 62287104 62992968 63855216 64831756 65862588 66869324 
1463.280 67769936 68484784 68959672 69184048 69193768 69055304 68835424 
1466.655 68588024 68342240 68106784 67878128 67642736 67376856 67040264 
1470.030 66574952 65909056 64968920 63711808 62155796 60397388 58582472 
1473.406 56858160 55324740 54017140 52927244 52031536 51313600 50770332 
1476.781 50404576 50211340 50168492 50235108 50362752 50501188 50612336 
1480.156 50676640 50691756 50671164 50637356 50618556 50643424 50742436 
1483.531 50951408 51308640 51854004 52621524 53628544 54865380 56286116 
1486.906 57813212 59331224 60695140 61751600 62339504 62322708 61625796 
1490.282 60253364 58302268 55929892 53318624 50621684 47937280 45321296 
1493.657 42790996 40350644 38018812 35833856 33858552 32168214 30824284 
1497.032 29856260 29255796 28990588 29017260 29295388 29792344 30477460 
1500.407 31318292 32280266 33322326 34401360 35476932 36501184 37419608 
1503.783 38165416 38642284 38729972 38297884 37246752 35577796 33436074 
1507.158 31077626 28750708 26608354 24691664 22972942 21406538 19959922 
1510.533 18620746 17395690 16298939 15338454 14513066 13811133 13216447 
1513.908 12712774 12287663 11931179 11632841 11381814 11167954 10984884 
1517.284 10833210 10718370 10645969 10615681 10618499 10636869 10652659 
1520.659 10654798 10649704 10659043 10710864 10822272 10991476 11201068 
1524.034 11427905 11654725 11874513 12094105 12328977 12596583 12906165 
1527.409 13255730 13635186 14033109 14443353 14866293 15308077 15775394 
1530.785 16271453 16794530 17338994 17898510 18469876 19055808 19662294 
1534.160 20292022 20941924 21600950 22254074 22884010 23475128 24016378 
1537.535 24497792 24913940 25260948 25538506 25747154 25888546 25970252 
1540.910 26003986 26003810 25981824 25942322 25879964 25781784 25635788 
1544.286 25437418 25196404 24935768 24683492 24461860 24276990 24119272 
1547.661 23969142 23808036 23626034 23429628 23238416 23078282 22967422 
1551.036 22909368 22893370 22902136 22921172 22944682 22978462 23035584 
1554.411 23128250 23259426 23419768 23587866 23737200 23837088 23857706 
1557.787 23777376 23595910 23347946 23095614 22903708 22806338 22800368 
1561.162 22861342 22958410 23064512 23156034 23217618 23243380 23237788 
1564.537 23215452 23195528 23195040 23220450 23266416 23317772 23357350 
1567.912 23370464 23351790 23307284 23253762 23211606 23196158 23213738 
1571.288 23261104 23330534 23411514 23492826 23562924 23606792 23607876 
1574.663 23552078 23434386 23267010 23079782 22912022 22791672 22726030 
1578.038 22701346 22692898 22675408 22629468 22546400 22426744 22277684 
1581.413 22107550 21922598 21724384 21511220 21282152 21039712 20790072 
1584.789 20541654 20301116 20070570 19847326 19626588 19404470 19180876 
1588.164 18959574 18746414 18545944 18359808 18186914 18025522 17875998 
1591.539 17741192 17625580 17531666 17456876 17392380 17326202 17245694 
1594.914 17143862 17021276 16885668 16747797 16617473 16500646 16398989 
1598.290 16312528 16242353 16192721 16170366 16182644 16233753 16324362 
1601.665 16451845 16612688 16804138 17024342 17270620 17535286 17803324 
1605.040 18053324 18258302 18391538 18433542 18374048 18215384 17969710 
1608.415 17656396 17295376 16903892 16497513 16090071 15695171 15327505 
1611.791 14998288 14712814 14467948 14253419 14053199 13849922 13629715 
1615.166 13385049 13117981 12841658 12577482 12348645 12172097 12055369 
1618.541 11995586 11983733 12005771 12046137 12089710 12123064 12138738 
1621.916 12137886 12131413 12135842 12166985 12234426 12336885 12466237 
1625.292 12611693 12765626 12924427 13087588 13255355 13426022 13595252 
1628.667 13757742 13910030 14052514 14189225 14325328 14463632 14602392 
1632.042 14734134 14847265 14929114 14967901 14957097 14897634 14799678 
1635.417 14680733 14560690 14455684 14372760 14310054 14260610 14214799 
1638.792 14162660 14094953 14005664 13892923 13760889 13618364 13476158 
1642.168 13342952 13220888 13105687 12986421 12849405 12681216 12474387 
1645.543 12230814 11964352 11697714 11456413 11261626 11123725 11042386 
1648.918 11009182 11011187 11031034 11046125 11028757 10944344 10760723 
1652.293 10466412 10094834 9724558 9435079 9264280 9197232 9193678 9211413 
1656.151 9221396 9208975 9170801 9111347 9038333 8958263 8873811 8782715 
1660.008 8680482 8562357 8426190 8272976 8107562 7936711 7768254 7609473 
1663.866 7466120 7341585 7236558 7147927 7068777 6989069 6895876 6776990 
1667.723 6624188 6436768 6223782 6001561 5789997 5603977 5450716 5328501 
1671.581 5230365 5146099 5064966 4976274 4869807 4737941 4578958 4400919 
1675.438 4221315 4060146 3932203 3840667 3777057 3726256 3672655 3605996 
1679.295 3524015 3433499 3345407 3269885 3208762 3153556 3085708 2983807 
1683.153 2831935 2632843 2412484 2211619 2063945 1978593 1943645 1936755 
1687.010 1938286 1934126 1917552 1888066 1847967 1800919 1750382 1700350 
1690.868 1655113 1619160 1595780 1584906 1581181 1573632 1548094 1491070 
1694.725 1397221 1275145 1148717 1046938 987621 969988 975899 979352 953151 
1699.065 877480 749276 588295 432183 314721 250930 232398 240188 253582 
1703.404 258157 246520 217015 173789 123972 75651 34725 4009 -17461 -32039 
1708.226 -44099 -57914 -76731 -102140 -133509 -167957 -201507 -230949 
1712.083 -254163 -272011 -286978 -302176 -320817 -344987 -375710 -414342 
1715.941 -463066 -523765 -596731 -677823 -757809 -823891 -866352 -881100 
1719.798 -870651 -843072 -807983 -774016 -746530 -726584 -711632 -697441 
1723.656 -679908 -657213 -630083 -600900 -571914 -544249 -518072 -493317 
1727.513 -470877 -452772 -441849 -440194 -448006 -463562 -484877 -511917 
1731.371 -548485 -603382 -687748 -810563 -970504 -1150545 -1321625 -1453243 
1735.228 -1530049 -1555901 -1547284 -1524238 -1502940 -1494553 -1503238 
1738.603 -1526747 -1558806 -1591457 -1618692 -1637573 -1648400 -1652460 
1741.979 -1650711 -1643647 -1630740 -1612552 -1590533 -1567093 -1544774 
1745.354 -1525690 -1511063 -1501488 -1497492 -1500200 -1510601 -1530115 
1748.729 -1559466 -1597993 -1644208 -1695006 -1746590 -1794933 -1836244 
1752.104 -1867522 -1887679 -1897345 -1899193 -1897807 -1899127 -1908199 
1755.479 -1929080 -1961439 -2000821 -2039507 -2069451 -2086203 -2090127 
1758.855 -2086269 -2081685 -2083565 -2096095 -2119539 -2149840 -2180897 
1762.230 -2207535 -2226160 -2236742 -2241356 -2242873 -2243895 -2246762 
1765.605 -2253421 -2265617 -2284273 -2308795 -2336347 -2362348 -2382055 
1768.980 -2393588 -2398333 -2402123 -2412996 -2438236 -2480540 -2536148 
1772.356 -2594087 -2641678 -2670263 -2678331 -2670757 -2656399 -2642304 
1775.731 -2632161 -2625738 -2619909 -2611379 -2599291 -2585754 -2574885 
1779.106 -2570965 -2576136 -2588587 -2603869 -2617044 -2624948 -2627846 
1782.481 -2628669 -2631436 -2638813 -2650834 -2665192 -2678529 -2688243 
1785.857 -2693611 -2696014 -2697299 -2698714 -2699834 -2698945 -2695158 
1789.232 -2688770 -2682448 -2680373 -2686860 -2703851 -2729304 -2757357 
1792.607 -2781160 -2795481 -2798510 -2793111 -2783432 -2774214 -2767794 
1795.982 -2765423 -2766707 -2770987 -2777835 -2787152 -2798971 -2812633 
1799.358 -2826525 -2838672 -2847330 -2851806 -2852992 -2852498 -2851806 
1802.733 -2851181 -2849996 -2846704 -2840746 -2832648 -2824320 -2818295 
1806.108 -2816617 -2819744 -2826394 -2834557 -2842063 -2848054 -2853321 
1809.483 -2859147 -2867113 -2877679 -2889495 -2900850 -2910724 -2919117 
1812.859 -2927707 -2939061 -2954661 -2973978 -2994742 -3012478 -3022876 
1816.234 -3023172 -3013367 -2995565 -2973616 -2951139 -2930208 -2911744 
1819.609 -2895189 -2879653 -2864545 -2849831 -2835743 -2822871 -2811514 
1822.984 -2801440 -2792848 -2785177 -2777506 -2768452 -2756205 -2739808 
1826.360 -2719295 -2697101 -2677442 -2665620 -2666443 -2681526 -2708066 
1829.735 -2738886 -2764962 -2778197 -2775201 -2757554 -2730819 -2701019 
1833.110 -2672206 -2645696 -2619909 -2592243 -2560853 -2525936 -2489896 
1836.485 -2455830 -2425715 -2398893 -2371971 -2340664 -2300917 -2251114 
1839.861 -2192831 -2129959 -2066978 -2008044 -1956129 -1911761 -1874351 
1843.236 -1841292 -1808363 -1771340 -1726062 -1670350 -1605157 -1534968 
1846.611 -1465825 -1405654 -1361230 -1336556 -1331997 -1344252 -1368035 
1849.986 -1398322 -1432141 -1469589 -1512714 -1563791 -1623544 -1690055 
1853.362 -1760351 -1830734 -1899127 -1965760 -2032351 -2100382 -2170018 
1856.737 -2239148 -2304708 -2364194 -2417115 -2465549 -2513319 -2563554 
1860.112 -2616879 -2671844 -2724003 -2769539 -2806543 -2836039 -2861352 
1863.487 -2886039 -2912271 -2939357 -2965290 -2987141 -3003890 -3017052 
1866.863 -3030016 -3045744 -3065650 -3087035 -3104570 -3112597 -3107300 
1870.238 -3089239 -3061899 -3030938 -3000929 -2974702 -2954035 -2938962 
1873.613 -2930274 -2929188 -2936955 -2954134 -2979440 -3009418 -3040052 
1876.988 -3067130 -3089074 -3106050 -3120459 -3134013 -3148157 -3161414 
1880.364 -3172005 -3178584 -3181610 -3183913 -3189372 -3201279 -3220454 
1883.739 -3244397 -3268963 -3289121 -3301946 -3307602 -3308950 -3310035 
1887.114 -3313981 -3322366 -3334433 -3348342 -3361953 -3373691 -3382962 
1890.489 -3389242 -3391346 -3388847 -3381549 -3370798 -3360014 -3354062 
1893.865 -3356791 -3370403 -3393088 -3420276 -3445753 -3465048 -3475961 
1897.240 -3479938 -3480464 -3480530 -3481253 -3481911 -3480399 -3475435 
1900.615 -3467842 -3460282 -3456600 -3458901 -3467119 -3477802 -3487202 
1903.990 -3492133 -3492067 -3489700 -3489043 -3492987 -3502486 -3514680 
1907.365 -3525723 -3532132 -3532592 -3529569 -3526775 -3528057 -3534761 
1910.741 -3546001 -3558884 -3570945 -3581954 -3593587 -3608735 -3629699 
1914.116 -3656741 -3687296 -3718046 -3745772 -3769423 -3789690 -3808674 
1917.491 -3826903 -3843160 -3854655 -3858760 -3855377 -3848250 -3842963 
1920.866 -3846149 -3860960 -3885951 -3915111 -3939935 -3953331 -3952510 
1924.242 -3940460 -3922762 -3906935 -3897247 -3894785 -3897904 -3904472 
1927.617 -3913371 -3925093 -3941642 -3963805 -3990366 -4018108 -4043057 
1930.992 -4062129 -4075620 -4085861 -4096889 -4111003 -4128235 -4145038 
1934.367 -4158592 -4167158 -4172606 -4179497 -4193313 -4216644 -4247947 
1937.743 -4282037 -4312155 -4334168 -4348634 -4359951 -4374713 -4397641 
1941.118 -4428275 -4461236 -4488193 -4502392 -4501802 -4490849 -4476092 
1944.493 -4464613 -4459432 -4458973 -4458776 -4455070 -4447002 -4437261 
1947.868 -4431063 -4431161 -4437458 -4447002 -4454021 -4455332 -4452151 
1951.244 -4449856 -4455300 -4474813 -4508164 -4551348 -4597774 -4641048 
1954.619 -4680352 -4719455 -4765209 -4823212 -4895460 -4977096 -5059405 
1957.994 -5134037 -5194872 -5241721 -5278253 -5309349 -5337104 -5361651 
1961.369 -5380534 -5392479 -5399711 -5407925 -5422192 -5446342 -5479160 
1964.745 -5514232 -5544526 -5564841 -5574851 -5580052 -5587575 -5601215 
1968.120 -5620808 -5640530 -5652632 -5652566 -5641970 -5627186 -5617930 
1971.495 -5621168 -5637848 -5662967 -5688803 -5708228 -5718299 -5720654 
1974.870 -5716599 -5704892 -5677716 -5623850 -5531146 -5396799 -5228135 
1978.246 -5043947 -4866791 -4716899 -4606266 -4536823 -4503081 -4496030 
1981.621 -4507540 -4531576 -4563349 -4598889 -4632492 -4657603 -4670158 
1984.996 -4669371 -4658587 -4646654 -4641934 -4649310 -4669174 -4696315 
1988.371 -4723979 -4746364 -4761603 -4770255 -4775171 -4778120 -4776711 
1991.747 -4767666 -4748166 -4719062 -4686089 -4659701 -4648195 -4656390 
1995.122 -4683630 -4721717 -4760915 -4792966 -4814037 -4825636 -4833402 
1998.497 -4842512 -4855159 -4871345 -4888022 -4903650 -4920063 -4941587 
2001.872 -4972936 -5018859 -5078728 -5147102 -5217528 -5282705 -5337170 
2005.248 -5380109 -5411001 -5429162 -5433384 -5420982 -5390450 -5344697 
2008.623 -5291608 -5240706 -5201977 -5181318 -5178404 -5188226 -5204039 
2011.998 -5219951 -5234257 -5248792 -5265716 -5286993 -5310528 -5331802 
2015.373 -5346007 -5351276 -5347807 -5340345 -5333897 -5331082 -5331704 
2018.749 -5332424 -5329806 -5321787 -5310200 -5297107 -5285422 -5275536 
2022.124 -5264603 -5248137 -5223061 -5189699 -5152144 -5116584 -5089436 
2025.499 -5072440 -5065169 -5063696 -5064154 -5065006 -5067265 -5072080 
2028.874 -5080005 -5087733 -5087701 -5073783 -5040901 -4989282 -4924224 
2032.250 -4853685 -4783167 -4715588 -4649146 -4580267 -4506425 -4429521 
2035.625 -4353096 -4283186 -4222518 -4169718 -4119603 -4066429 -4006486 
2039.000 -3941314 -3877380 -3821878 -3779934 -3753032 -3735786 -3721266 
2042.375 -3703657 -3682039 -3659501 -3643434 -3638637 -3646720 -3663115 
2045.750 -3678425 -3680462 -3661111 -3614847 -3542255 -3449139 -3343377 
2049.126 -3234432 -3132006 -3044823 -2978848 -2936757 -2916023 -2908717 
2052.501 -2904800 -2892424 -2863624 -2816715 -2756830 -2693775 -2638550 
2055.876 -2599192 -2576598 -2567111 -2563159 -2557197 -2545700 -2528472 
2059.251 -2507554 -2486041 -2464594 -2441102 -2412996 -2378858 -2339379 
2062.627 -2299105 -2264397 -2239675 -2227050 -2225138 -2229456 -2235192 
2066.002 -2239214 -2240170 -2239214 -2237763 -2236511 -2235192 -2232621 
2069.377 -2228171 -2222105 -2216501 -2212875 -2211194 -2210469 -2207633 
2072.752 -2199755 -2186139 -2167908 -2148389 -2131442 -2119276 -2110768 
2076.128 -2103350 -2092435 -2074859 -2050126 -2019851 -1987101 -1954578 
2079.503 -1923472 -1893254 -1862936 -1832747 -1803810 -1779358 -1762628 
2082.878 -1754213 -1752365 -1752662 -1749890 -1740187 -1722861 -1700650 
2086.253 -1678602 -1662726 -1656454 -1661405 -1676820 -1700650 -1730485 
2089.629 -1765367 -1803612 -1844427 -1885733 -1924594 -1957580 -1982516 
2093.004 -1997985 -2004053 -2002404 -1994060 -1979580 -1960021 -1935381 
2096.379 -1906879 -1876825 -1847330 -1819813 -1794834 -1770614 -1744973 
2099.754 -1716360 -1685071 -1653187 -1624204 -1601030 -1584491 -1573035 
2103.130 -1562966 -1550750 -1534044 -1513242 -1490492 -1468500 -1448917 
2106.505 -1430853 -1411533 -1388149 -1358291 -1322517 -1283701 -1245344 
2109.880 -1210817 -1181343 -1156328 -1133096 -1110127 -1086265 -1062500 
2113.255 -1041180 -1024124 -1012653 -1006736 -1004984 -1005943 -1008686 
2116.631 -1013116 -1019132 -1027496 -1038239 -1051031 -1065872 -1082199 
2120.006 -1100047 -1119150 -1138119 -1154642 -1166109 -1169876 -1164754 
2123.381 -1152197 -1135641 -1120042 -1109962 -1108376 -1115382 -1129956 
2126.756 -1149223 -1170736 -1193503 -1217359 -1242602 -1269297 -1297444 
2130.132 -1325986 -1354888 -1384450 -1415364 -1447860 -1481973 -1514992 
2133.507 -1544345 -1567522 -1583831 -1595253 -1606973 -1622587 -1644901 
2136.882 -1673189 -1703323 -1730023 -1750385 -1763849 -1773815 -1786321 
2140.257 -1805162 -1831361 -1863299 -1896158 -1926606 -1954644 -1983901 
2143.633 -2019785 -2067241 -2127519 -2196755 -2268353 -2334534 -2389634 
2147.008 -2433656 -2469733 -2502513 -2536148 -2572579 -2612004 -2656234 
2150.383 -2709515 -2778691 -2872610 -2998559 -3157861 -3346698 -3555992 
2153.758 -3774843 -3994568 -4209294 -4415976 -4609544 -4780415 -4911873 
2157.134 -4981911 -4971626 -4870887 -4687858 -4446051 -4178546 -3920168 
2160.509 -3696824 -3521483 -3397000 -3317993 -3274323 -3254065 -3246205 
2163.884 -3239529 -3224105 -3194602 -3150427 -3097069 -3045020 -3006424 
2167.259 -2990892 -3003429 -3042322 -3100096 -3169341 -3242391 -3315329 
2170.635 -3387696 -3460446 -3533710 -3606008 -3673497 -3730924 -3775073 
2174.010 -3803583 -3816130 -3814061 -3798722 -3772511 -3738677 -3703723 
2177.385 -3674286 -3658745 -3663476 -3688972 -3731088 -3781281 -3829202 
2180.760 -3867035 -3892420 -3907099 -3916195 -3924633 -3933105 -3938588 
2184.135 -3936947 -3924273 -3900892 -3871896 -3843948 -3823191 -3812386 
2187.511 -3808182 -3804634 -3795043 -3775106 -3744162 -3706482 -3666696 
2190.886 -3629075 -3595394 -3564898 -3535221 -3505050 -3473627 -3441216 
2194.261 -3408507 -3375532 -3340648 -3303656 -3264490 -3225387 -3189372 
2197.636 -3160065 -3137960 -3121775 -3107761 -3091410 -3071407 -3049857 
2201.012 -3031102 -3021955 -3026561 -3045251 -3073513 -3104603 -3130723 
2204.387 -3146611 -3151118 -3145855 -3134473 -3120032 -3104109 -3086574 
2207.762 -3067031 -3045810 -3023501 -3001850 -2981645 -2962262 -2942188 
2211.137 -2919380 -2892424 -2862504 -2832056 -2803448 -2779383 -2759859 
2214.513 -2743660 -2728843 -2714487 -2701480 -2692129 -2688770 -2692326 
2217.888 -2701118 -2711557 -2719130 -2721336 -2718504 -2713466 -2710832 
2221.263 -2714224 -2724102 -2738919 -2753867 -2764864 -2768518 -2765226 
2224.638 -2756171 -2744911 -2734243 -2725254 -2718208 -2713170 -2709350 
2228.014 -2706617 -2704971 -2703193 -2699307 -2691767 -2678627 -2659528 
2231.389 -2636442 -2611445 -2586841 -2563916 -2541682 -2518063 -2491247 
2234.764 -2460410 -2426605 -2392830 -2362283 -2337401 -2318550 -2304576 
2238.139 -2292974 -2282526 -2272077 -2261035 -2249762 -2236873 -2220029 
2241.515 -2197183 -2166226 -2127255 -2082740 -2036341 -1991224 -1949861 
2244.890 -1912025 -1875934 -1839709 -1802589 -1765664 -1731871 -1704907 
2248.265 -1686854 -1677744 -1675896 -1677843 -1681044 -1683652 -1685533 
2251.640 -1687019 -1688405 -1688405 -1685269 -1676853 -1661901 -1640709 
2255.016 -1615060 -1588255 -1563131 -1542397 -1527110 -1518096 -1515785 
2258.391 -1520209 -1530940 -1547085 -1565871 -1583699 -1597531 -1604761 
2261.766 -1604794 -1599644 -1592282 -1585515 -1580827 -1577558 -1573200 
2265.141 -1564782 -1550288 -1528992 -1502346 -1473354 -1444921 -1419954 
2268.517 -1400667 -1388050 -1382898 -1385078 -1393104 -1404465 -1415166 
2271.892 -1420681 -1416586 -1401327 -1374806 -1340156 -1302036 -1264441 
2275.267 -1229915 -1199252 -1171562 -1145092 -1118786 -1092776 -1067789 
2278.642 -1044883 -1024025 -1004257 -984323 -962602 -938401 -912777 -886986 
2282.500 -862946 -841253 -821840 -803022 -783906 -763333 -741403 -718877 
2286.357 -696647 -675342 -655029 -635542 -616848 -599411 -584488 -572940 
2290.215 -565097 -560067 -555997 -550305 -540841 -526313 -507217 -484579 
2294.072 -459955 -434302 -407754 -379848 -350681 -320619 -291547 -265355 
2297.929 -244029 -228366 -217967 -211012 -205680 -199785 -192333 -182662 
2301.787 -170341 -155337 -136722 -113933 -86868 -55761 -21934 12823 47019 
2306.126 80092 112206 144455 177833 212838 249239 286206 322547 357232 
2310.466 390162 420939 449596 476032 499484 519620 536672 551501 566099 
2314.806 582489 602761 627647 657280 690365 725844 762918 801423 841524 
2319.145 884219 929874 978688 1030364 1083973 1137987 1189881 1235834 
2323.003 1270924 1290199 1289235 1265940 1221678 1161309 1092177 1022758 
2326.860 961187 912475 878741 858987 849924 847998 850090 854239 859551 
2331.200 865826 872665 879604 887008 895076 905203 918916 937279 960457 
2335.539 987157 1015186 1041889 1065903 1086896 1105697 1124167 1143601 
2339.397 1164631 1186625 1208953 1230617 1251651 1272420 1293256 1313529 
2343.254 1331309 1343308 1346432 1338189 1319444 1293788 1268033 1249989 
2347.112 1246666 1263447 1302395 1362918 1441600 1533696 1633095 1732750 
2350.969 1826539 1909198 1977461 2030121 2068972 2097038 2117948 2135428 
2354.826 2151944 2169260 2187808 2207523 2227739 2247355 2265607 2281429 
2358.684 2294419 2304445 2311940 2317170 2321134 2323266 2323000 2319702 
2362.541 2313073 2303080 2291021 2278431 2266407 2255682 2245357 2234333 
2366.399 2221344 2205925 2188874 2171757 2156839 2145351 2137360 2132032 
2370.256 2127237 2121710 2114685 2106461 2098337 2091711 2086950 2083854 
2374.114 2081457 2078660 2074665 2069438 2063146 2055921 2047799 2038211 
2377.971 2026693 2012911 1997233 1980889 1965578 1952831 1943578 1938220 
2381.828 1936322 1937121 1940416 1946307 1955194 1967675 1983452 2001926 
2385.686 2021633 2041040 2058918 2074965 2089447 2103397 2117814 2133431 
2389.543 2150646 2169726 2190339 2212652 2236331 2261111 2286591 2311974 
2393.401 2336358 2359244 2380499 2400256 2419315 2438007 2457033 2476227 
2397.258 2495655 2515418 2535481 2556244 2577909 2600208 2622709 2644577 
2401.115 2665746 2686516 2708154 2732327 2760703 2794016 2831968 2873325 
2404.973 2916587 2960421 3004993 3050905 3099557 3151386 3205925 3261706 
2408.830 3316759 3369449 3419673 3468701 3518871 3572487 3630821 3693473 
2412.688 3758441 3822816 3883925 3939893 3990050 4034761 4074895 4111153 
2416.545 4144369 4175246 4204586 4233728 4264177 4296902 4332341 4370093 
2420.403 4408785 4447045 4484037 4519559 4554380 4590242 4628518 4670582 
2424.260 4716905 4767152 4820755 4876676 4933979 4992094 5050518 5109218 
2428.117 5168932 5230600 5295630 5365400 5440751 5521786 5607367 5696087 
2431.975 5786303 5876706 5967262 6057971 6149404 6241698 6334986 6428664 
2435.832 6522968 6618234 6716111 6818286 6926747 7042071 7163826 7289995 
2439.690 7418122 7546084 7672432 7796725 7919265 8039814 8157629 8271355 
2443.547 8379132 8480111 8574219 8663210 8749750 8836850 8926976 9020844 
2447.405 9118588 9218554 9319118 9418318 9514391 9606013 9692099 9771965 
2451.262 9845543 9913539 9977918 10040747 10104737 10172164 10243875 
2454.637 10320010 10399890 10482195 10565941 10650655 10735861 10821491 
2458.012 10906866 10991408 11073655 11152825 11228133 11299169 11366270 
2461.388 11429980 11490945 11550114 11608507 11667488 11728418 11792692 
2464.763 11861403 11935403 12014661 12099556 12190294 12287800 12393033 
2468.138 12507260 12631341 12765114 12908282 13059963 13219521 13387338 
2471.513 13564416 13751620 13949308 14156190 14369506 14584779 14798067 
2474.889 15005731 15205774 15398562 15584808 15765980 15942104 16112525 
2478.264 16274963 16427206 16566731 16691599 16800798 16894006 16970970 
2481.639 17031786 17076654 17105948 17120356 17121424 17110808 17089784 
2485.014 17060388 17023620 16980754 16933174 16882086 16828970 16774796 
2488.390 16719732 16663160 16603325 16538093 16465094 16382542 16289445 
2491.765 16185842 16072363 15950080 15819823 15682494 15538170 15387164 
2495.140 15229005 15063357 14889610 14707672 14517143 14318342 14112033 
2498.515 13899458 13682303 13462795 13242545 13023430 12806575 12592728 
2501.891 12382328 12175914 11973549 11775295 11581624 11392665 11208752 
2505.266 11030457 10858384 10692798 10533961 10381802 10235801 10095648 
2508.641 9961068 9832527 9710564 9596800 9492378 9397799 9313161 9237642 
2512.499 9170361 9110602 9058091 9013435 8977307 8950043 8931205 8919671 
2516.356 8913245 8910134 8908983 8909389 8911993 8917743 8927991 8943279 
2520.213 8964250 8990905 9023177 9061000 9103598 9149583 9197096 9243769 
2524.071 9287061 9325787 9359642 9389978 9418556 9447405 9477036 9507041 
2527.928 9534813 9557236 9571699 9576103 9569938 9553747 9529158 9497864 
2531.786 9461323 9420858 9377213 9331441 9284218 9236424 9188365 9140718 
2535.643 9093921 9048279 9004436 8962795 8923966 8887711 8853961 8821701 
2539.500 8790492 8760062 8730852 8703841 8680415 8661182 8645803 8633229 
2543.358 8621061 8607339 8590171 8568846 8543805 8515893 8486429 8456360 
2547.215 8426325 8396530 8367782 8340321 8315091 8292665 8273550 8257577 
2551.073 8244373 8233567 8224213 8216042 8208512 8201151 8193655 8185248 
2554.930 8175894 8165665 8155468 8146386 8139296 8134570 8131767 8129506 
2558.788 8126130 8120290 8111175 8098786 8083628 8066211 8046667 8024828 
2562.645 8000629 7974305 7947070 7920986 7898547 7881507 7870812 7866122 
2566.502 7865886 7867843 7870305 7872026 7873106 7873713 7874793 7876615 
2570.360 7879550 7883802 7889639 7897231 7907084 7918961 7932762 7947475 
2574.217 7962054 7975418 7987365 7998199 8008864 8020103 8032692 8046632 
2578.075 8061619 8077181 8093249 8110128 8128459 8148649 8171033 8195107 
2581.932 8220296 8245758 8271355 8297461 8325156 8355622 8390144 8429500 
2585.790 8473624 8522348 8574523 8629275 8685114 8740521 8794076 8844762 
2589.647 8892107 8937090 8981197 9026493 9074500 9125829 9179701 9234021 
2593.504 9286316 9334657 9378602 9418724 9457023 9495663 9536372 9579490 
2597.362 9624577 9670347 9715681 9759732 9802161 9843035 9882455 9920285 
2601.219 9956186 9990022 10022063 10053293 10085373 10120203 10159343 
2604.594 10203914 10254120 10309321 10368397 10430231 10493837 10558371 
2607.970 10623151 10688281 10754100 10821253 10890931 10964018 11041163 
2611.345 11122332 11206746 11293149 11380114 11466756 11552801 11638457 
2614.720 11724503 11811214 11898418 11985674 12071755 12155809 12237562 
2618.095 12316807 12394397 12470840 12546275 12620596 12693259 12763818 
2621.471 12832204 12898895 12964845 13030907 13097901 13165828 13233936 
2624.846 13301645 13367656 13431080 13491607 13549102 13603697 13655769 
2628.221 13705795 13754391 13802137 13849614 13897337 13945647 13994576 
2631.596 14043958 14093584 14143524 14193641 14244379 14295604 14346697 
2634.972 14396906 14445066 14490078 14531327 14569120 14604482 14638853 
2638.347 14673947 14711066 14750416 14792375 14836430 14882272 14929594 
2641.722 14978258 15028265 15079582 15131866 15185117 15239231 15294280 
2645.097 15350640 15408518 15468257 15529482 15591745 15654327 15716849 
2648.473 15779344 15842400 15906736 15973385 16042588 16114106 16186874 
2651.848 16259449 16330348 16398473 16463408 16525289 16585113 16643982 
2655.223 16702997 16763225 16825286 16889390 16955018 17021792 17088510 
2658.598 17154616 17219458 17282860 17345066 17406658 17468432 17530662 
2661.974 17593422 17656396 17718758 17779368 17837778 17893192 17945884 
2665.349 17995958 18044070 18090424 18135852 18180868 18225854 18271330 
2668.724 18317640 18364818 18412592 18460956 18509222 18557354 18605322 
2672.099 18653258 18701650 18750842 18801078 18852358 18904302 18956738 
2675.475 19009178 19061936 19115152 19169724 19226382 19285922 19348968 
2678.850 19415558 19485590 19558302 19633106 19709066 19785664 19862446 
2682.225 19939418 20016578 20094272 20172430 20251576 20331568 20412756 
2685.600 20495696 20581116 20669684 20762300 20859492 20961256 21067048 
2688.976 21176344 21288138 21401840 21517276 21634662 21754446 21876598 
2692.351 22001504 22128432 22256934 22386344 22516456 22647654 22780708 
2695.726 22916284 23055184 23197732 23343434 23491916 23641954 23792986 
2699.101 23944948 24097802 24252464 24409458 24569524 24732736 24898746 
2702.477 25067242 25236752 25406466 25575476 25742936 25908662 26072732 
2705.852 26235488 26397002 26557838 26718136 26877716 27036332 27194300 
2709.227 27351622 27508540 27665338 27822298 27979210 28135826 28291366 
2712.602 28445370 28597304 28747134 28895242 29041880 29187360 29331474 
2715.978 29473682 29612996 29747918 29877414 30001058 30118770 30231432 
2719.353 30340322 30447322 30553812 30661220 30770468 30882482 30997620 
2722.728 31116634 31240310 31369612 31505256 31648040 31798534 31956460 
2726.103 32121402 32292690 32469292 32650788 32836076 33025094 33217300 
2729.479 33411816 33608276 33805508 34002396 34197764 34390388 34579180 
2732.854 34763252 34941972 35114592 35280916 35440760 35593800 35739624 
2736.229 35877936 36007692 36128124 36238680 36339432 36431416 36516716 
2739.604 36598212 36678892 36761860 36849244 36942164 37041312 37146440 
2742.979 37257584 37374932 37498812 37629668 37767500 37912100 38062684 
2746.355 38218128 38377288 38539004 38702260 38865800 39027808 39186100 
2749.730 39337960 39480364 39610580 39726532 39826936 39911272 39979308 
2753.105 40030864 40066252 40085184 40087584 40073300 40042052 39993768 
2756.480 39928016 39844296 39741856 39619728 39477928 39316304 39135516 
2759.856 38937048 38722220 38492620 38249752 37995412 37731032 37458716 
2763.231 37181092 36900896 36621316 36345484 36076380 35816472 35568408 
2766.606 35333896 35115132 34913856 34731304 34568992 34427076 34306040 
2769.981 34205364 34124600 34062888 34018880 33991612 33979432 33980432 
2773.357 33992544 34013616 34040952 34072276 34105500 34138436 34169588 
2776.732 34197476 34220992 34239384 34252044 34258496 34258352 34251324 
2780.107 34236880 34214936 34185540 34149264 34107508 34062420 34016588 
2783.482 33972768 33933532 33900504 33874316 33854864 33840716 33829680 
2786.858 33819404 33807116 33790644 33767760 33736924 33697032 33647872 
2790.233 33589696 33523512 33450786 33373386 33293352 33212866 33133362 
2793.608 33056554 32983802 32916348 32855734 32803378 32761108 32730382 
2796.983 32712948 32709484 32720842 32746602 32786514 32840330 32907986 
2800.359 32989770 33086124 33197484 33324044 33465170 33619304 33784376 
2803.734 33957716 34137288 34321100 34508180 34698000 34890264 35084488 
2807.109 35279516 35473012 35662424 35844468 36015860 36174000 36316884 
2810.484 36443200 36552400 36644316 36718988 36776284 36816388 36839364 
2813.860 36845496 36835468 36810440 36772172 36723172 36666452 36605024 
2817.235 36542848 36483308 36430120 36387136 36357696 36345092 36352328 
2820.610 36381512 36434008 36510120 36609384 36730092 36870020 37026776 
2823.985 37197300 37378472 37567344 37760452 37954552 38146388 38333388 
2827.361 38513152 38684660 38846884 39000040 39144868 39282680 39415088 
2830.736 39544524 39673200 39803872 39938840 40080024 40228416 40385220 
2834.111 40551068 40727204 40915572 41118884 41340292 41583144 41850464 
2837.486 42144528 42467916 42823244 43214548 43647604 44130204 44671392 
2840.862 45281540 45970448 46747964 47623628 48605808 49703960 50927488 
2844.237 52284772 53781940 55419328 57188764 59068072 61019836 62991708 
2847.612 64911740 66698408 68265920 69527680 70413288 70873688 70887064 
2850.987 70462632 69638368 68476792 67050740 65441832 63730492 61984704 
2854.363 60264628 58616944 57073084 55653952 54369584 53220632 52201140 
2857.738 51300548 50506024 49803056 49177876 48618628 48114032 47655576 
2861.113 47236052 46849708 46492176 46160328 45852044 45566092 45301732 
2864.488 45059696 44840940 44647524 44482452 44349080 44251364 44193072 
2867.864 44177004 44204520 44275068 44385920 44531568 44704808 44896604 
2871.239 45096308 45293164 45477156 45638960 45772216 45872960 45941092 
2874.614 45979212 45992512 45988420 45974208 45957484 45944884 45941092 
2877.989 45949156 45970892 46006544 46055948 46118836 46195264 46285932 
2881.365 46392364 46515856 46657312 46816496 46991496 47178136 47371280 
2884.740 47564660 47752280 47929624 48094008 48244940 48384404 48516064 
2888.115 48645648 48778680 48921656 49080704 49261412 49469224 49710128 
2891.490 49990344 50318588 50705460 51163908 51709836 52360464 53132400 
2894.865 54040820 55094888 56294828 57627552 59065112 60562220 62054300 
2898.241 63468724 64724864 65745080 66470140 66861904 66912576 66643128 
2901.616 66101804 65355360 64474688 63534804 62602276 61729220 60959168 
2904.991 60322112 59837012 59516132 59365144 59385888 59578156 59941720 
2908.366 60477548 61187992 62076624 63146336 64397128 65823184 67410136 
2911.742 69132488 70956432 72835272 74713464 76533136 78231040 79747160 
2915.117 81032264 82046808 82768280 83191688 83327704 83199792 82838568 
2918.492 82280416 81559224 80706112 79748912 78708576 77601944 76441864 
2921.867 75237736 73998400 72733256 71453136 70171376 68904112 67667048 
2925.243 66476516 65345848 64284576 63298568 62389648 61556000 60792816 
2928.618 60092832 59447320 58845372 58276084 57728316 57191484 56657012 
2931.993 56117696 55567408 55001872 54417092 53810180 53179620 52525376 
2935.368 51850004 51157424 50453548 49744868 49037412 48337148 47649620 
2938.744 46980420 46336212 45724360 45152516 44628056 44156204 43739540 
2942.119 43377160 43064916 42796440 42563108 42355396 42163116 41975704 
2945.494 41783372 41576944 41349912 41099032 40825620 40535536 40237504 
2948.869 39943528 39665684 39413924 39196184 39016496 38875260 38769892 
2952.245 38695560 38645868 38613272 38590928 38572460 38552108 38525968 
2955.620 38490848 38444508 38385140 38311564 38222760 38119256 38002464 
2958.995 37875624 37743140 37609792 37480500 37358392 37245312 37141240 
2962.370 37045536 36956960 36874852 36799224 36730344 36668940 36615372 
2965.746 36569556 36530916 36498772 36472280 36451128 36435668 36426952 
2969.121 36426804 36437904 36463992 36508536 36575792 36668440 36787936 
2972.496 36933436 37101796 37287516 37483208 37679460 37866764 38033820 
2975.871 38169792 38264048 38307796 38295168 38224640 38100372 37931084 
2979.247 37729948 37512936 37295496 37091544 36911936 36762872 36646988 
2982.622 36562740 36505796 36469288 36444028 36420752 36389080 36339972 
2985.997 36266340 36163592 36029972 35866600 35676956 35465712 35238224 
2989.372 35000440 34757684 34514496 34275132 34042140 33817076 33600328 
2992.748 33391524 33189974 32995168 32807204 32626356 32453258 32287442 
2996.123 32127324 31969764 31811010 31646650 31473550 31290018 31097058 
2999.498 30897104 30694112 30492246 30294952 30104100 29920648 29744406 
3002.873 29574298 29409612 29249876 29095022 28945286 28801302 28663558 
3006.249 28532760 28409500 28294124 28186840 28088174 27997728 27915252 
3009.624 27840104 27771468 27707752 27647858 27590302 27533780 27477794 
3012.999 27421920 27366160 27311042 27256990 27204424 27153454 27103864 
3016.374 27055480 27008052 26961652 26916422 26873202 26832740 26795908 
3019.750 26763630 26736494 26714860 26698686 26688080 26682372 26681350 
3023.125 26685050 26693260 26706824 26726734 26754184 26790552 26836582 
3026.500 26892486 26957562 27030302 27108238 27188410 27267502 27341988 
3029.875 27408192 27463462 27505362 27532614 27545218 27544546 27532614 
3033.250 27512386 27486864 27458204 27428380 27398522 27369336 27340892 
3036.626 27313688 27287894 27263798 27241606 27221286 27202660 27185588 
3040.001 27169856 27155430 27142802 27132080 27123896 27118572 27116278 
3043.376 27117090 27121110 27128166 27138428 27152220 27169678 27191092 
3046.751 27216666 27246158 27279146 27315204 27353350 27392698 27433038 
3050.127 27474370 27517152 27562446 27611134 27663962 27720996 27781252 
3053.502 27843212 27905006 27964934 28021724 28075768 28127660 28178956 
3056.877 28231534 28286980 28346610 28411268 28481278 28556610 28637012 
3060.252 28721716 28809728 28899988 28991260 29083154 29175668 29269372 
3063.628 29365152 29463896 29565678 29669934 29775454 29880716 29984726 
3067.003 30086700 30186958 30285926 30383886 30481050 30576388 30668722 
3070.378 30756702 30839188 30915782 30986802 31053386 31116920 31178716 
3073.753 31240382 31303230 31367868 31435258 31505402 31577874 31652066 
3077.129 31726736 31800814 31873584 31944514 32013848 32082122 32149836 
3080.504 32217458 32285120 32353048 32421198 32490038 32559924 32631676 
3083.879 32705374 32781582 32859952 32940332 33022552 33106722 33193338 
3087.254 33282760 33375244 33470646 33568148 33666920 33766256 33865792 
3090.630 33965528 34066396 34169016 34273768 34380560 34488592 34596872 
3094.005 34704636 34811532 34918128 35025796 35135856 35250012 35369116 
3097.380 35493184 35621312 35752032 35883116 36012624 36139176 36262272 
3100.755 36382376 36500752 36619012 36738744 36860860 36985568 37112224 
3104.131 37239716 37366952 37492816 37617236 37740104 37861452 37981384 
3107.506 38099796 38216500 38331868 38446752 38562356 38680600 38803044 
3110.881 38930340 39062496 39198392 39336328 39474776 39612396 39748280 
3114.256 39882428 40014840 40145476 40274436 40401876 40527860 40653156 
3117.632 40778956 40906180 41035844 41167984 41302172 41437240 41571836 
3121.007 41704656 41835064 41962928 42088708 42213104 42337132 42461484 
3124.382 42586788 42713664 42842664 42974004 43107800 43243828 43381992 
3127.757 43521296 43661416 43801176 43939924 44076876 44211560 44343460 
3131.133 44472836 44600336 44727288 44855380 44986080 45120460 45258816 
3134.508 45400156 45542980 45685668 45826892 45966288 46104688 46243212 
3137.883 46383584 46527064 46673732 46823024 46973444 47123136 47270628 
3141.258 47415072 47556416 47695436 47833212 47970844 48109260 48249276 
3144.634 48390556 48533144 48676744 48820948 48965676 49111128 49257332 
3148.009 49404732 49553260 49702844 49853412 50004696 50156444 50308392 
3151.384 50460544 50612560 50764224 50915232 51064912 51213004 51359620 
3154.759 51505016 51649784 51794676 51940372 52086856 52233948 52380760 
3158.135 52526460 52670000 52810708 52948280 53083012 53215652 53346720 
3161.510 53477752 53609576 53743016 53878180 54015116 54153108 54291368 
3164.885 54429000 54565768 54701792 54837672 54974156 55111512 55249664 
3168.260 55387824 55524860 55659604 55791560 55920848 56048212 56175044 
3171.635 56302676 56431960 56563700 56697940 56834216 56971896 57109660 
3175.011 57245992 57378924 57507024 57628800 57744628 57855720 57964684 
3178.386 58074772 58188144 58306172 58428436 58553316 58678344 58801512 
3181.761 58921644 59038424 59152620 59264756 59375440 59484784 59592480 
3185.136 59698612 59803972 59909540 60016888 60126968 60239852 60354744 
3188.512 60470160 60584468 60696436 60805696 60911972 61015792 61117352 
3191.887 61216908 61314772 61411632 61508204 61605484 61703936 61803284 
3195.262 61902084 61998424 62090692 62177856 62260756 62341568 62423084 
3198.637 62507636 62596300 62688508 62782452 62875808 62966464 63053996 
3202.013 63138560 63221300 63303748 63386396 63469916 63554212 63639292 
3205.388 63724772 63810424 63895600 63978820 64058648 64133496 64203100 
3208.763 64268172 64330912 64394168 64460540 64531304 64606464 64684212 
3212.138 64762592 64839832 64915008 64988656 65061472 65134460 65208064 
3215.514 65281920 65355396 65428040 65499812 65571368 65643280 65716280 
3218.889 65790488 65865560 65941296 66017516 66094896 66174112 66255888 
3222.264 66340112 66426008 66511772 66595808 66677196 66755436 66831872 
3225.639 66907780 66984556 67062960 67142816 67223344 67303536 67382704 
3229.015 67460600 67537512 67613848 67690088 67766448 67843688 67922760 
3232.390 68004824 68091208 68182456 68278488 68377728 68478424 68578128 
3235.765 68675608 68770320 68862792 68954512 69046288 69138872 69232512 
3239.140 69326832 69421840 69517832 69615648 69715584 69817792 69921160 
3242.516 70023576 70123480 70219288 70311096 70400624 70490608 70584152 
3245.891 70683640 70790176 70903608 71022648 71145496 71270688 71396824 
3249.266 71523024 71648248 71771752 71892392 72009120 72121064 72227992 
3252.641 72329976 72428456 72524456 72619976 72716480 72815448 72917608 
3256.017 73023280 73131640 73241688 73351592 73459768 73564672 73665280 
3259.392 73761200 73852704 73940456 74024960 74107448 74188832 74269864 
3262.767 74351480 74433512 74515640 74596408 74674152 74747072 74814144 
3266.142 74875472 74932288 74986664 75040856 75095840 75152320 75209288 
3269.518 75265472 75319816 75371728 75421432 75469632 75517304 75564576 
3272.893 75611704 75657920 75703240 75747656 75792000 75837328 75884560 
3276.268 75934048 75985192 76037256 76089296 76140696 76191280 76241392 
3279.643 76291192 76340720 76389512 76437080 76483224 76528632 76574280 
3283.019 76622224 76673936 76730784 76793056 76860120 76931392 77005688 
3286.394 77082448 77161152 77241976 77324520 77408584 77493800 77580080 
3289.769 77667512 77756752 77848472 77944008 78044336 78150544 78263568 
3293.144 78384360 78513680 78651944 78799024 78954104 79115752 79282360 
3296.520 79452448 79625192 79800872 79980168 80164080 80353456 80548208 
3299.895 80747448 80950136 81154904 81361136 81568624 81777968 81989936 
3303.270 82206048 82427440 82655440 82891208 83135704 83389208 83651456 
3306.645 83921696 84198296 84479984 84765848 85056136 85351728 85653464 
3310.021 85962264 86278328 86600480 86927936 87259808 87596232 87937944 
3313.396 88286136 88640984 89001624 89365896 89730808 90093936 90454144 
3316.771 90812008 91169704 91529224 91892384 92259088 92628160 92997288 
3320.146 93364600 93729720 94092512 94453872 94814256 95173456 95530392 
3323.521 95883776 96232704 96576936 96917384 97254744 97589128 97919496 
3326.897 98243552 98559072 98863800 99156416 99436608 99704400 99959544 
3330.272 100201024 100427520 100637640 100830600 101006664 101166784 
3333.165 101311400 101440416 101552296 101644656 101714800 101762160 
3336.058 101787208 101792064 101779712 101751856 101708728 101648720 
3338.951 101569120 101467112 101341024 101190544 101015824 100818144 
3341.844 100597664 100353960 100086352 99794112 99477392 99136728 98773320 
3345.219 98387816 97980608 97551424 97100080 96627344 96135000 95625936 
3348.595 95103328 94570520 94029552 93481336 92926168 92363920 91794824 
3351.970 91219784 90639568 90055288 89467592 88877312 88284880 87691992 
3355.345 87100312 86512392 85931008 85357824 84793880 84239896 83695928 
3358.720 83162592 82641048 82132432 81638280 81158576 80692984 80239800 
3362.096 79797408 79364056 78939560 78524168 78118928 77724936 77342856 
3365.471 76972696 76614512 76268632 75935472 75615648 75309816 75017184 
3368.846 74735976 74463600 74196656 73931776 73666656 73399896 73130552 
3372.221 72858272 72582576 72302776 72018384 71729336 71435680 71137768 
3375.597 70835504 70527904 70212976 69887416 69548320 69193344 68821568 
3378.972 68434120 68033304 67621864 67201872 66774292 66338992 65894864 
3382.347 65440176 64974040 64496128 64006924 63508032 63001512 62489388 
3385.722 61973924 61456784 60939152 60422100 59906004 59390904 58876864 
3389.098 58363852 57852312 57342024 56834144 56329268 55828636 55333776 
3392.473 54846244 54367556 53898700 53439340 52988296 52542876 52099740 
3395.848 51656244 51210544 50762772 50315016 49870356 49431760 49001508 
3399.223 48580016 48165488 47755500 47347148 46938484 46528688 46118504 
3402.599 45708932 45301400 44896896 44495592 44097556 43702932 43311808 
3405.974 42924988 42542896 42165632 41793112 41424188 41057840 40693180 
3409.349 40329592 39967392 39607204 39250180 38897328 38549216 38206296 
3412.724 37868572 37535660 37207732 36884164 36565192 36250888 35941352 
3416.100 35637104 35338712 35046340 34759876 34478764 34201780 33927440 
3419.475 33654172 33381150 33108260 32836292 32567136 32302648 32044452 
3422.850 31793400 31549546 31311776 31078514 30848152 30619192 30390674 
3426.225 30162310 29934174 29707290 29482230 29260192 29041596 28826864 
3429.601 28615602 28407094 28200594 27994972 27790154 27585854 27382888 
3432.976 27181920 26983900 26789390 26598244 26409610 26222818 26036494 
3436.351 25850282 25663874 25477928 25293292 25111018 24931802 24755640 
3439.726 24581656 24408652 24235190 24060328 23884206 23708050 23533400 
3443.102 23362176 23195318 23032334 22870982 22708188 22540744 22366562 
3446.477 22185548 21999796 21813428 21630900 21455412 21289216 21131712 
3449.852 20980870 20834080 20688832 20543284 20396502 20248520 20099338 
3453.227 19949342 19798770 19647562 19496644 19346438 19198226 19052796 
3456.603 18910774 18771668 18634962 18499576 18364716 18229966 18095018 
3459.978 17959940 17825072 17690354 17556090 17422904 17291480 17162752 
3463.353 17037438 16915328 16795942 16677758 16559331 16439283 16317481 
3466.728 16194338 16071195 15949082 15828757 15709668 15591196 15472378 
3470.104 15352837 15233089 15114300 14997876 14884981 14775611 14669217 
3473.479 14564563 14460377 14356116 14251673 14147426 14043855 13941335 
3476.854 13839695 13739001 13638981 13540350 13443759 13350367 13260513 
3480.229 13174128 13090799 13009670 12930435 12853500 12779924 12710829 
3483.604 12646487 12586146 12527483 12468317 12405749 12338589 12267144 
3486.980 12193020 12119045 12047397 11979918 11916978 11857793 11801442 
3490.355 11746834 11693833 11642541 11593432 11547017 11503635 11463557 
3493.730 11426613 11392801 11362223 11335184 11311751 11292197 11277030 
3497.105 11266285 11260776 11261184 11267883 11281178 11300631 11325015 
3500.481 11352938 11383004 11414775 11448691 11486216 11529357 11580126 
3503.856 11639955 11708879 11786155 11870290 11959073 12050941 12144530 
3507.231 12238924 12334158 12431218 12531336 12636765 12749146 12869746 
3510.606 12998984 13135808 13278072 13423630 13570262 13716738 13862614 
3513.982 14007991 14152766 14296426 14437324 14573162 14702223 14822922 
3517.357 14935081 15039619 15137321 15229040 15313844 15389602 15453013 
3520.732 15500775 15530066 15539269 15528348 15498336 15450712 15386855 
3524.107 15307220 15211675 15099034 14967626 14815893 14643103 14449793 
3527.483 14237978 14011482 13774911 13532693 13288595 13043813 12798795 
3530.858 12552072 12302218 12048215 11790003 11528336 11264142 10998171 
3534.233 10730019 10459250 10185291 9908386 9630200 9353176 9080488 8815141 
3538.091 8559451 8314382 8080320 7856944 7642924 7437435 7239051 7045573 
3541.948 6855009 6664831 6472854 6277801 6079206 5877848 5675374 5474304 
3545.805 5277083 5086455 4904422 4732582 4571088 4418995 4273646 4131691 
3549.663 3989950 3845413 3696982 3545795 3394293 3246283 3104663 2971197 
3553.520 2845809 2726859 2612009 2498988 2387063 2275866 2166196 2058252 
3557.378 1952331 1848334 1745691 1644304 1543937 1445423 1349191 1255871 
3561.235 1165694 1078857 995492 915762 839400 765308 691361 614043 529075 
3565.575 432316 321917 199479 70481 -56589 -173256 -273071 -353859 -417222 
3569.914 -468428 -513108 -556593 -603018 -654831 -712823 -776596 -845386 
3573.772 -917836 -991992 -1066169 -1138218 -1206885 -1271246 -1331535 
3577.147 -1389338 -1445813 -1502775 -1561282 -1621366 -1682629 -1744477 
3580.522 -1806350 -1867654 -1928189 -1987628 -2045180 -2100415 -2152346 
3583.897 -2201304 -2248641 -2296732 -2348936 -2408383 -2477080 -2553935 
3587.273 -2635684 -2716035 -2788107 -2846968 -2889791 -2917833 -2934552 
3590.648 -2945380 -2955582 -2970062 -2991517 -3021231 -3058181 -3100030 
3594.023 -3144144 -3188090 -3230321 -3270245 -3308161 -3344823 -3380266 
3597.398 -3414819 -3448054 -3479938 -3511065 -3541992 -3573574 -3606534 
3600.774 -3640772 -3675830 -3710195 -3742816 -3772642 -3799543 -3823881 
3604.149 -3846740 -3869334 -3893602 -3920956 -3953528 -3993026 -4040332 
3607.524 -4094953 -4154129 -4214019 -4269340 -4316453 -4354342 -4384914 
3610.899 -4412958 -4443854 -4482191 -4529642 -4583906 -4639770 -4690907 
3614.275 -4732009 -4761145 -4780316 -4794899 -4811120 -4834681 -4869511 
3617.650 -4915510 -4969792 -5025606 -5075650 -5113178 -5134103 -5138032 
3621.025 -5128208 -5110362 -5089928 -5072145 -5060061 -5053641 -5050890 
3624.400 -5048729 -5044602 -5038871 -5035628 -5041622 -5066545 -5117730 
3627.776 -5197131 -5297271 -5401511 -5489236 -5543970 -5560850 -5546849 
3631.151 -5516065 -5483053 -5459560 -5452558 -5462734 -5486423 -5516948 
3634.526 -5548125 -5574785 -5595393 -5609655 -5619369 -5625649 -5629639 
3637.901 -5631438 -5631209 -5629475 -5627186 -5625387 -5625485 -5628298 
3641.277 -5634087 -5642362 -5652632 -5664275 -5676964 -5690143 -5703944 
3644.652 -5718692 -5735402 -5755380 -5780786 -5813481 -5855163 -5905568 
3648.027 -5962864 -6022668 -6079165 -6125591 -6156888 -6169432 -6163062 
3651.402 -6140292 -6106544 -6068447 -6032504 -6005970 -5994173 -6000545 
3654.778 -6025478 -6064821 -6111085 -6153915 -6183936 -6196218 -6190501 
3658.153 -6171130 -6145029 -6118338 -6096122 -6081059 -6073708 -6073512 
3661.528 -6078772 -6087692 -6098735 -6109713 -6118796 -6123696 -6122520 
3664.903 -6114189 -6099258 -6079785 -6059560 -6043484 -6036818 -6043288 
3668.279 -6063906 -6095566 -6129250 -6151726 -6147479 -6105662 -6021884 
3671.654 -5900273 -5750345 -5585286 -5418004 -5260511 -5124934 -5022691 
3675.029 -4962552 -4950006 -4983844 -5058685 -5166158 -5298908 -5449516 
3678.404 -5609589 -5769898 -5918578 -6044562 -6140325 -6204253 -6241554 
3681.780 -6260954 -6272418 -6283130 -6296291 -6311313 -6325942 -6339004 
3685.155 -6351249 -6366661 -6390300 -6426410 -6476129 -6536254 -6599210 
3688.530 -6655142 -6696776 -6720267 -6726238 -6718408 -6700561 -6675470 
3691.905 -6644929 -6610110 -6572972 -6536581 -6504071 -6478577 -6461276 
3695.281 -6451907 -6447271 -6443582 -6436498 -6423178 -6403099 -6377469 
3698.656 -6349715 -6324016 -6304553 -6294560 -6296650 -6310757 -6335641 
3702.031 -6367314 -6401401 -6433037 -6458991 -6477206 -6488076 -6493528 
3705.406 -6496139 -6498979 -6503940 -6512231 -6523786 -6537527 -6552671 
3708.781 -6568794 -6586385 -6606488 -6630147 -6657329 -6685879 -6711882 
3712.157 -6730577 -6738178 -6732991 -6715993 -6691067 -6663757 -6638598 
3715.532 -6619900 -6610143 -6609490 -6616082 -6627243 -6639578 -6650574 
3718.907 -6658601 -6663235 -6664801 -6663887 -6660265 -6653805 -6643950 
3722.282 -6630506 -6614189 -6597089 -6581588 -6570426 -6565629 -6567489 
3725.658 -6574669 -6584819 -6594348 -6600222 -6600875 -6596600 -6589877 
3729.033 -6584166 -6583383 -6590464 -6606651 -6630767 -6659156 -6687445 
3732.408 -6712013 -6731751 -6748781 -6767571 -6792167 -6824264 -6860664 
3735.783 -6894484 -6917312 -6922497 -6908344 -6878145 -6838061 -6794647 
3739.159 -6752206 -6712992 -6677298 -6645908 -6621369 -6609327 -6617943 
3742.534 -6655436 -6725618 -6822829 -6928725 -7016665 -7061589 -7054417 
3745.909 -7003982 -6931334 -6858674 -6804073 -6778304 -6784208 -6817023 
3749.284 -6865295 -6916301 -6958530 -6985267 -6994918 -6988429 -6967105 
3752.660 -6931595 -6882906 -6823742 -6757948 -6691165 -6628776 -6574963 
3756.035 -6531815 -6500056 -6478545 -6465585 -6459905 -6460492 -6465716 
3759.410 -6472864 -6478186 -6476684 -6465422 -6444104 -6416355 -6388244 
3762.785 -6367118 -6358661 -6364833 -6383280 -6407670 -6429936 -6443321 
3766.161 -6445476 -6438391 -6428434 -6422329 -6424908 -6438554 -6460819 
3769.536 -6486836 -6509849 -6524439 -6527344 -6517813 -6498261 -6471559 
3772.911 -6441819 -6412306 -6386252 -6365812 -6352261 -6345698 -6345339 
3776.286 -6350074 -6358792 -6370580 -6385142 -6401924 -6419815 -6436596 
3779.662 -6449654 -6456608 -6456804 -6450895 -6441917 -6433200 -6427944 
3783.037 -6427944 -6433788 -6444006 -6456640 -6469143 -6479720 -6487163 
3786.412 -6490655 -6489284 -6482853 -6471069 -6454617 -6435029 -6415114 
3789.787 -6397843 -6384783 -6376358 -6371036 -6366367 -6360392 -6352033 
3793.163 -6342988 -6336261 -6335119 -6341780 -6355527 -6372930 -6387819 
3796.538 -6394512 -6389582 -6374302 -6354416 -6338384 -6335543 -6353502 
3799.913 -6395231 -6457881 -6530608 -6598591 -6645647 -6661244 -6645125 
3803.288 -6605476 -6555348 -6508478 -6476684 -6466858 -6480177 -6510664 
3806.664 -6546731 -6574734 -6583905 -6569937 -6536711 -6492255 -6444921 
3810.039 -6401401 -6364637 -6334106 -6307427 -6282575 -6258995 -6239300 
3813.414 -6228130 -6230972 -6251646 -6289563 -6338645 -6387427 -6423504 
3816.789 -6438391 -6431307 -6408551 -6380897 -6361698 -6361372 -6386546 
3820.165 -6436335 -6502961 -6570785 -6622446 -6645908 -6637587 -6602800 
3823.540 -6551986 -6496400 -6445476 -6404470 -6374988 -6354515 -6339070 
3826.915 -6323493 -6304814 -6282215 -6257100 -6232213 -6210263 -6193049 
3830.290 -6180865 -6172895 -6168060 -6164597 -6161788 -6159436 -6158652 
3833.666 -6160808 -6168321 -6183674 -6209741 -6248903 -6301287 -6364669 
3837.041 -6433690 -6499991 -6554891 -6591378 -6607141 -6603845 -6587005 
3840.416 -6562952 -6537201 -6513178 -6492092 -6472930 -6453963 -6432874 
3843.791 -6408355 -6379722 -6347592 -6313501 -6279472 -6248282 -6222251 
3847.167 -6203110 -6191383 -6186320 -6186026 -6188313 -6192396 -6199746 
3850.542 -6215457 -6247106 -6303606 -6390986 -6507401 -6640132 -6764733 
3853.917 -6855087 -6894647 -6882059 -6828798 -6751260 -6665421 -6581588 
3857.292 -6506128 -6441362 -6387166 -6342433 -6305696 -6275586 -6251254 
3860.667 -6232017 -6217155 -6206736 -6201019 -6200921 -6207422 -6220487 
3864.043 -6238026 -6255794 -6268335 -6270981 -6262424 -6245538 -6227248 
3867.418 -6216796 -6222708 -6249915 -6296911 -6355657 -6411914 -6451188 
3870.793 -6465030 -6453017 -6422688 -6384162 -6347331 -6318399 -6298642 
3874.168 -6285285 -6272940 -6256545 -6233388 -6204351 -6173058 -6144996 
3877.544 -6125166 -6117162 -6121899 -6137417 -6158717 -6178513 -6189750 
3880.919 -6187823 -6171359 -6144408 -6113960 -6089457 -6079295 -6090469 
3884.294 -6124807 -6178611 -6241292 -6298446 -6336914 -6348441 -6333029 
3887.669 -6298152 -6254977 -6214999 -6187235 -6176716 -6183054 -6201542 
3891.045 -6222969 -6238843 -6242632 -6231853 -6208793 -6177697 -6143951 
3894.420 -6111445 -6082922 -6059429 -6041360 -6028877 -6022603 -6023224 
3897.795 -6031197 -6046196 -6066944 -6090731 -6114647 -6136111 -6154536 
3901.170 -6170543 -6186418 -6204253 -6225027 -6247367 -6268303 -6282770 
3904.546 -6286820 -6278296 -6257558 -6227673 -6193115 -6158096 -6125885 
3907.921 -6098572 -6076126 -6057894 -6042634 -6029106 -6016590 -6004270 
3911.296 -5991983 -5979303 -5966132 -5952504 -5939267 -5927925 -5920342 
3914.671 -5918544 -5924166 -5937371 -5957047 -5980447 -6004336 -6025119 
3918.047 -6040837 -6049888 -6052240 -6048385 -6039269 -6026034 -6010153 
3921.422 -5993454 -5978126 -5966034 -5958877 -5956948 -5959596 -5964662 
3924.797 -5969564 -5972015 -5970838 -5966132 -5959040 -5951131 -5944137 
3928.172 -5938515 -5934364 -5931096 -5928383 -5926455 -5925801 -5927566 
3931.548 -5932076 -5939071 -5947078 -5954138 -5958125 -5957766 -5953059 
3934.923 -5944888 -5935051 -5924820 -5915439 -5907006 -5899129 -5891415 
3938.298 -5883668 -5876248 -5870690 -5868141 -5869710 -5875757 -5885433 
3941.673 -5897004 -5908085 -5915930 -5918937 -5916257 -5908380 -5897103 
3945.049 -5884845 -5874319 -5867617 -5866441 -5870625 -5879255 -5890401 
3948.424 -5901384 -5909556 -5913217 -5911386 -5904392 -5892755 -5877947 
3951.799 -5861603 -5845290 -5830317 -5818123 -5809492 -5804523 -5802986 
3955.174 -5803771 -5805046 -5805242 -5802692 -5797035 -5788698 -5779413 
3958.550 -5771010 -5765909 -5765353 -5769538 -5777418 -5786998 -5795891 
3961.925 -5801580 -5802332 -5797493 -5787064 -5772644 -5755740 -5738541 
3965.300 -5722747 -5709503 -5699529 -5692792 -5688704 -5686579 -5685434 
3968.675 -5684617 -5683701 -5682850 -5681902 -5681248 -5680986 -5681150 
3972.051 -5681706 -5682262 -5682425 -5681346 -5677814 -5671339 -5661004 
3975.426 -5647104 -5630162 -5611813 -5593758 -5577762 -5565037 -5556238 
3978.801 -5551396 -5549859 -5550709 -5553392 -5557055 -5561406 -5565757 
3982.176 -5569944 -5573673 -5577010 -5580150 -5584043 -5589669 -5597486 
3985.552 -5607398 -5618748 -5629574 -5638339 -5643638 -5644880 -5642656 
3988.927 -5638078 -5633073 -5628723 -5625845 -5624537 -5624079 -5624111 
3992.302 -5624471 -5624929 -5625910 -5627481 -5629639 -5631798 -5633302 
3995.677 -5633924 -5633727 -5632910 -5632386 -5632714 -5634349 -5636704 
3999.052 -5639190 -5640890 -5640923 -5638830 
##END=
