
##TITLE=Z413_3_c
##JCAMP-DX=5.01  $$ Nicolet v. 1
##DATATYPE=INFRARED SPECTRUM
##ORIGIN=UniL
##OWNER=Nicolet
##LONGDATE=2011/09/21
##TIME=15:35:12
##SPECTROMETER/DATA SYSTEM=Nicolet iS5
##DATA PROCESSING=
Ratio against background
%Transmittance->Absorbance
Truncated
ElementMultiply or ElementDivide
##COMMENTS=
Number of sample scans: 32
Collection length: 51.20 sec
Sample gain: 2.0
Background collected on: Mer Sep 21 15:28:47 2011 (GMT+02:00);
Number of background scans: 32
Background gain: 2.0
Sample spacing:  1.000
Number of scan points: 12415
Resolution points: 8192
Number of FFT points: 65536
Apodization: N-B fort;
Phase correction: Mertz;
Laser frequency: 15798.0 cm-1
Number of rejected sample scans: 0
Number of rejected background scans: 0
Bench serial number: ASB1000141;
##RESOLUTION=4.000
##XUNITS=1/CM
##YUNITS=ABSORBANCE
##FIRSTX=649.893372
##LASTX=4000.122314
##FIRSTY=0.110607
##MAXX=4000.122314
##MINX=649.893372
##MAXY=0.268810
##MINY=-0.001921
##XFACTOR=1.000000
##YFACTOR=1.000000E-009
##NPOINTS=6950
##DELTAX=0.482117
##ZPD=6100
##XYDATA=(X++(Y..Y))
649.893 110606512 109996640 109433608 108925552 108465424 108044712 
652.786 107665792 107349392 107128376 107036840 107092168 107285384 
655.679 107581480 107933776 108299576 108652448 108991040 109328192 
658.571 109681864 110062800 110472872 110908400 111368808 111861384 
661.464 112400144 112997032 113654360 114358208 115082632 115796328 
664.357 116474504 117102576 117667168 118149896 118516096 118713152 
667.250 118695384 118457672 118065744 117624288 117225256 116898824 
670.142 116615024 116308808 115909248 115369272 114674872 113852072 
673.035 112950616 112028048 111121376 110238256 109363784 108475632 
675.928 107563744 106636640 105717536 104832240 103996360 103208232 
678.820 102454248 101717472 100989688 100273232 99578440 98913472 98277368 
682.195 97657872 97037728 96403280 95753104 95098304 94459512 93855096 
685.570 93293216 92769992 92273392 91791264 91318840 90860816 90428440 
688.945 90032296 89674960 89349784 89043072 88742960 88443504 88149160 
692.320 87871248 87622416 87411288 87239592 87103880 87000632 86930280 
695.694 86898832 86916072 86989464 87120440 87302496 87524232 87773376 
699.069 88043032 88333808 88652128 89005936 89399080 89829120 90287400 
702.444 90763568 91248272 91736872 92227296 92716952 93198952 93660896 
705.819 94086824 94464168 94786968 95059816 95295664 95510616 95718656 
709.194 95928280 96144376 96371960 96620808 96907448 97251304 97667704 
712.569 98160888 98718544 99311488 99899232 100441296 100904912 101270064 
715.943 101532496 101698040 101780256 101795208 101765304 101719736 
718.836 101695072 101737824 101895368 102203112 102675080 103289296 
721.729 103986344 104666672 105211312 105503968 105447408 104994032 
724.621 104155144 103004760 101657848 100250856 98913600 97734256 96757416 
727.996 95982592 95380176 94908576 94531472 94227208 93986808 93807640 
731.371 93685608 93610296 93565624 93535288 93508080 93481336 93458936 
734.746 93448248 93453344 93472696 93500560 93531224 93563064 93600392 
738.121 93651200 93722400 93815208 93923248 94034328 94136128 94222104 
741.496 94293984 94360064 94430480 94512152 94605000 94703848 94800984 
744.870 94892704 94980520 95070752 95169288 95277792 95390496 95496040 
748.245 95582664 95641752 95673632 95685368 95687968 95690816 95699208 
751.620 95713696 95733896 95760168 95796400 95847920 95918656 96007304 
754.995 96106472 96204544 96291176 96361536 96418624 96471456 96530832 
758.370 96604416 96693536 96793520 96898336 97003248 97109608 97222496 
761.744 97348600 97492568 97654304 97830960 98020720 98227552 98465208 
765.119 98759424 99143976 99653832 100319976 101156832 102154072 103266304 
768.494 104410560 105474608 106319520 106816232 106871656 106453200 
771.387 105607736 104455480 103171544 101928048 100865832 100059488 99505984 
774.762 99138640 98854352 98554792 98163584 97642728 96987800 96210952 
778.136 95323016 94323208 93196864 91923008 90484672 88876016 87106960 
781.511 85200440 83191280 81119680 79028536 76964112 74967880 73075928 
784.886 71315944 69702624 68240184 66924484 65747736 64701712 63780716 
788.261 62981440 62301828 61739036 61288980 60946320 60706996 60569496 
791.636 60536356 60614676 60813396 61143512 61614268 62232572 63001588 
795.010 63919856 64981348 66173920 67482968 68892072 70388472 71969384 
798.385 73648320 75459464 77452976 79692736 82237968 85121264 88326744 
801.760 91766376 95279032 98612960 101465400 103532808 104539024 104319344 
805.135 102853072 100282248 96877952 92989160 88979216 85121832 81575816 
808.510 78366184 75410744 72568704 69699944 66722752 63628628 60483224 
811.885 57390724 54470464 51818088 49487232 47493944 45820376 44431872 
815.259 43285780 42341588 41564692 40922596 40388204 39938404 39554756 
818.634 39225556 38944584 38709180 38518036 38368672 38257316 38179492 
822.009 38133040 38117448 38135392 38190672 38286196 38423260 38601464 
825.384 38819744 39077504 39375032 39712808 40089656 40502292 40945752 
828.759 41416392 41915084 42451072 43044500 43727992 44540968 45528964 
832.133 46737596 48200660 49932540 51913144 54079624 56310636 58427944 
835.508 60225804 61475412 61981072 61626908 60394680 58381740 55771364 
838.883 52812204 49753488 46806456 44133684 41823724 39905132 38361396 
842.258 37150124 36216532 35504508 34965924 34558696 34248456 34011428 
845.633 33830976 33698356 33610280 33564816 33558480 33585292 33636344 
849.008 33703084 33780080 33866220 33964740 34080412 34217768 34378012 
852.382 34560092 34761240 34980148 35218280 35479916 35770668 36095932 
855.757 36458840 36861332 37304844 37793200 38333132 38936140 39616460 
859.132 40390060 41275756 42294248 43467828 44821580 46376952 48143940 
862.507 50110964 52234808 54436924 56597864 58580428 60243352 61460904 
865.882 62155260 62304888 61954284 61201992 60193644 59099844 58078748 
869.256 57273852 56792600 56696428 57011680 57729832 58817636 60218384 
872.631 61857228 63644856 65467604 67199560 68710616 69869864 70575496 
876.006 70766432 70432656 69617240 68407976 66925792 65294124 63631004 
879.381 62032552 60557000 59229284 58041252 56963136 55953260 54973368 
882.756 54000636 53031796 52085024 51191384 50389912 49714440 49186932 
886.131 48816828 48601028 48529032 48587132 48763852 49050024 49438368 
889.505 49922952 50497464 51155596 51893916 52712832 53618388 54620884 
892.880 55734372 56973256 58349488 59871664 61542524 63356264 65292896 
896.255 67312664 69352832 71318680 73094472 74557056 75583392 76083800 
899.630 76012984 75379096 74240800 72698736 70884256 68929080 66962324 
903.005 65096192 63410060 61957800 60765868 59838004 59163936 58726100 
906.379 58506948 58491556 58670116 59037932 59593396 60337036 61270548 
909.754 62397072 63720204 65243600 66966652 68881240 70966264 73183568 
913.129 75482216 77800192 80073152 82250776 84300920 86218272 88022984 
916.504 89758712 91482952 93251600 95111216 97080312 99137560 101208944 
919.879 103169184 104856704 106080072 106668416 106506504 105564896 
922.771 103924920 101777448 99417320 97177400 95405064 94413640 94409760 
926.146 95479944 97554568 100424432 103739552 107060584 109955960 112022464 
929.521 112979632 112708816 111240832 108731816 105398456 101485528 97209032 
932.896 92739888 88219432 83754904 79438128 75358992 71596712 68221880 
936.271 65292396 62843644 60892984 59441468 58478284 57982404 57921824 
939.646 58252248 58905628 59789292 60794456 61791404 62652716 63273156 
943.020 63573732 63520232 63123576 62436780 61541152 60530452 59502760 
946.395 58536936 57690628 56997324 56466600 56091680 55855276 55737800 
949.770 55719528 55782144 55910556 56089004 56302224 56536640 56781004 
953.145 57028796 57278580 57533124 57797728 58076816 58374048 58690596 
956.520 59027720 59386268 59768836 60178036 60615780 61081572 61572304 
959.894 62082664 62607476 63142852 63687288 64240856 64804600 65378240 
963.269 65960580 66550000 67145992 67750152 68367176 69002440 69660416 
966.644 70342848 71048128 71772880 72514280 73271888 74049008 74851424 
970.019 75685056 76554280 77460616 78403616 79383224 80401496 81463208 
973.394 82575328 83744624 84975248 86268224 87622296 89035752 90508304 
976.768 92042256 93641080 95307800 97043568 98847288 100717728 102655688 
980.143 104666416 106760048 108948464 111242080 113647080 116162712 
983.036 118781616 121489168 124264648 127075744 129872304 132587168 
985.929 135126288 137376240 139224112 140560976 141307456 141427712 
988.821 140932304 139880464 138367904 136527200 134505408 132449400 
991.714 130503592 128784016 127374144 126325384 125653208 125348288 
994.607 125384240 125731360 126360880 127248928 128377840 129730552 
997.500 131288080 133030592 134935744 136980720 139144272 141400544 
1000.392 143715248 146042496 148315632 150455536 152380032 154009248 
1003.285 155285344 156179600 156695648 156868976 156763200 156468048 
1006.178 156083696 155719856 155487408 155477920 155765776 156399024 
1009.070 157396816 158758224 160466816 162501664 164839552 167457568 
1011.963 170332896 173435984 176732448 180187168 183764768 187438112 
1014.856 191186096 194983392 198790192 202537376 206112224 209373264 
1017.748 212158768 214311632 215722448 216344976 216218752 215461840 
1020.641 214272032 212904640 211622512 210697456 210362912 210782160 
1023.534 212053456 214194704 217157680 220837360 225098912 229798976 
1026.427 234782016 239900096 245006224 249940336 254547808 258678144 
1029.320 262196160 265006896 267053632 268318032 268810048 268556320 
1032.213 267592512 265958304 263703168 260885744 257566896 253808944 
1035.106 249664496 245173616 240372144 235299968 230011184 224585280 
1037.999 219119376 213718976 208494048 203537264 198923728 194711552 
1040.892 190934240 187602560 184696720 182162512 179904528 177788608 
1043.785 175669072 173396320 170852064 167977504 164777616 161324784 
1046.678 157734864 154158352 150747056 147632368 144924992 142697648 
1049.571 140986128 139794592 139098384 138852224 138995664 139466992 
1052.464 140207056 141161648 142286448 143537952 144865888 146211840 
1055.357 147501088 148645152 149557104 150151344 150358416 150134384 
1058.250 149460320 148348144 146838976 145008656 142960432 140814816 
1061.144 138710976 136779968 135135520 133872136 133050040 132700712 
1064.037 132829216 133416664 134421856 135778592 137403248 139187328 
1066.930 141004464 142731056 144245760 145448880 146274960 146686528 
1069.823 146674672 146249584 145433744 144255552 142745280 140936608 
1072.716 138863392 136559504 134062720 131413488 128659992 125865088 
1075.609 123100904 120452144 118011912 115865112 114089032 112743736 
1078.502 111864384 111462160 111520112 111995280 112811872 113864040 
1081.395 115028608 116159200 117113336 117775616 118066784 117967952 
1084.288 117520128 116822552 116009552 115230400 114639112 114362992 
1087.181 114499304 115110144 116214368 117790696 119776728 122081656 
1090.074 124585224 127150504 129648672 131956192 133972080 135624928 
1092.967 136864224 137661152 138004352 137896464 137354144 136407216 
1095.860 135100432 133489432 131638824 129625008 127526240 125421744 
1098.753 123387832 121480712 119731976 118138712 116663144 115236272 
1101.646 113771672 112191336 110437240 108490480 106374928 104155736 
1104.540 101926080 99785152 97835888 96164760 94833952 93886192 93339632 
1107.915 93192672 93426440 94009520 94901024 96050080 97403000 98900872 
1111.290 100476872 102062064 103578064 104938928 106063488 106874840 
1114.183 107312744 107344096 106961088 106183128 105047624 103607752 
1117.076 101923816 100055072 98062576 96000488 93912472 91833312 89784336 
1120.451 87775808 85811368 83892392 82022712 80212104 78475376 76831256 
1123.827 75298856 73892968 72623656 71495952 70511536 69672128 68981432 
1127.202 68445720 68073992 67875416 67855656 68015200 68346160 68832160 
1130.577 69444856 70146264 70889840 71619920 72281208 72825360 73216664 
1133.952 73443056 73517496 73478840 73381456 73290280 73269768 73368544 
1137.328 73618520 74027240 74577952 75230416 75925448 76595736 77165504 
1140.703 77563912 77734400 77632960 77235096 76533736 75536384 74262032 
1144.078 72738968 71005984 69107168 67093080 65019140 62937164 60896380 
1147.453 58939476 57098208 55396292 53848924 52463980 51244396 50189468 
1150.829 49295704 48556820 47964440 47508764 47178540 46963552 46854988 
1154.204 46845724 46930844 47106592 47369356 47715332 48141168 48643944 
1157.579 49221924 49874780 50602920 51406724 52285076 53235276 54252620 
1160.954 55329932 56456980 57620664 58801512 59973752 61106672 62162524 
1164.330 63101620 63886420 64480408 64854108 64985276 64858572 64468764 
1167.705 63820444 62929504 61820820 60527328 59087812 57540424 55922696 
1171.080 54270008 52611800 50974884 49383128 47855888 46411128 45063888 
1174.455 43825220 42703904 41705312 40832100 40085112 39464616 38970716 
1177.831 38603496 38363860 38251996 38268244 38413084 38687484 39093968 
1181.206 39636316 40319628 41149552 42130692 43266308 44556976 45998956 
1184.581 47581736 49284240 51074116 52901008 54698560 56392496 57898500 
1187.956 59137280 60045348 60576312 60711032 60457976 59852380 58949688 
1191.332 57818776 56537848 55179720 53810668 52488284 51255656 50146176 
1194.707 49184708 48386556 47760972 47310088 47029080 46904892 46915708 
1198.082 47033220 47219540 47431144 47623440 47748580 47762636 47629616 
1201.457 47321800 46826456 46146216 45300736 44322548 43253240 42140004 
1204.833 41025280 39945776 38929868 37994328 37148280 36394232 35730736 
1208.208 35154324 34660744 34245300 33902972 33629004 33419222 33270992 
1211.583 33183608 33158432 33198308 33305656 33482026 33726576 34036296 
1214.958 34406452 34829768 35298384 35802224 36329348 36866664 37400500 
1218.333 37917272 38406716 38860764 39274588 39646372 39975968 40265316 
1221.709 40518076 40740816 40942952 41136548 41336136 41556308 41809528 
1225.084 42105208 42447856 42837324 43268796 43733896 44221428 44717812 
1228.459 45209724 45685152 46135936 46559856 46961776 47353652 47751980 
1231.834 48177336 48651876 49196356 49832968 50583152 51467972 52509484 
1235.210 53728052 55140892 56761976 58599464 60656280 62929964 65412672 
1238.585 68090928 70942112 73936448 77035048 80191184 83359296 86494320 
1241.960 89556928 92516040 95343656 98012952 100497216 102765160 104782848 
1245.335 106515784 107926088 108975544 109627312 109845600 109602792 
1248.229 108884080 107690120 106037776 103956584 101485400 98665264 95539432 
1251.604 92156288 88567648 84835456 81032264 77231296 73509920 69941512 
1254.979 66585304 63490964 60691488 58202048 56021972 54134640 52511092 
1258.354 51109676 49881768 48776680 47741036 46728668 45703304 44639516 
1261.729 43526864 42367412 41174252 39966520 38767356 37600724 36486728 
1265.105 35442416 34480200 33606844 32824676 32131426 31521540 30986910 
1268.480 30518976 30110388 29755724 29452196 29198560 28994234 28838230 
1271.855 28729008 28664586 28643704 28666744 28735876 28854130 29024060 
1275.230 29246264 29517550 29829820 30169024 30517022 30849860 31140128 
1278.606 31361490 31489118 31505402 31403628 31188294 30875190 30486098 
1281.981 30047358 29583060 29112240 28649400 28204026 27782946 27392838 
1285.356 27041058 26735332 26483596 26292442 26166438 26109358 26124138 
1288.731 26214336 26384256 26637594 26976672 27400780 27905676 28482304 
1292.107 29116846 29791740 30482898 31161878 31798140 32359186 32818210 
1295.482 33158574 33376746 33484462 33506472 33477876 33435040 33413318 
1298.857 33443448 33546918 33738356 34024436 34402904 34861792 35378356 
1302.232 35921808 36452532 36928600 37313364 37576952 37702516 37687084 
1305.608 37541152 37285528 36948084 36561844 36159160 35769196 35417144 
1308.983 35119584 34885524 34716408 34608856 34556040 34551304 34589692 
1312.358 34668104 34784176 34935508 35118292 35327888 35559776 35810428 
1315.733 36078432 36364004 36668440 36992384 37336040 37698324 38078600 
1319.109 38476620 38893268 39328780 39781508 40245208 40708792 41155124 
1322.484 41561920 41906988 42168228 42329096 42382680 42333992 42202696 
1325.859 42019608 41827736 41674384 41601704 41644620 41821128 42131788 
1329.234 42560404 43079660 43659476 44269856 44889252 45503796 46107048 
1332.610 46697968 47278908 47854184 48428856 49008220 49596492 50194864 
1335.985 50800200 51403964 51993476 52551852 53060996 53503988 53864904 
1339.360 54131264 54294296 54349420 54297716 54145676 53905864 53595144 
1342.735 53233368 52843748 52448240 52067092 51718196 51413996 51162640 
1346.111 50967764 50828324 50738008 50684460 50649456 50608020 50531784 
1349.486 50395160 50176900 49868012 49472792 49011372 48517288 48032384 
1352.861 47606324 47286624 47113352 47116232 47306468 47675468 48192548 
1356.236 48811604 49474240 50116724 50683752 51128196 51417128 51535232 
1359.612 51482964 51278216 50952640 50554748 50145248 49787448 49544940 
1362.987 49464768 49567188 49842260 50250320 50731268 51208084 51602840 
1366.362 51842392 51863000 51626424 51123504 50379864 49448952 48404336 
1369.737 47325828 46279260 45315816 44466116 43741736 43144500 42672172 
1373.113 42324640 42105140 42017784 42062500 42229828 42500580 42850304 
1376.488 43252908 43688456 44145788 44622296 45123840 45662776 46258284 
1379.863 46933760 47716996 48636308 49711056 50941572 52296024 53708480 
1383.238 55072544 56254660 57120660 57537740 57405172 56675172 55371676 
1386.614 53603616 51546760 49423444 47433772 45715412 44335168 43290612 
1389.989 42537456 42011616 41649692 41394048 41193416 41007072 40799300 
1393.364 40542556 40221980 39837176 39402748 38940744 38473576 38015340 
1396.739 37569800 37135252 36711236 36304744 35934188 35626060 35405712 
1400.115 35291736 35288604 35389140 35578408 35840760 36162656 36534412 
1403.490 36950392 37407144 37901072 38427060 38978220 39546736 40126068 
1406.865 40712320 41305488 41908408 42525140 43159212 43811660 44480728 
1410.240 45162736 45853848 46550780 47251568 47953784 48653020 49342288 
1413.615 50012840 50655824 51267588 51851200 52417392 52982680 53567480 
1416.991 54193120 54878536 55637680 56475320 57379908 58323452 59263352 
1420.366 60153112 60948452 61616444 62139812 62516436 62764308 62919468 
1423.741 63034536 63163504 63348560 63610940 63947684 64340480 64766056 
1427.116 65207528 65656340 66112532 66581600 67072124 67595920 68167640 
1430.492 68808400 69543192 70392952 71370264 72472896 73685616 74983552 
1433.867 76344512 77756280 79217336 80736600 82324384 83983720 85700280 
1437.242 87447352 89196888 90924000 92608512 94225528 95742320 97107664 
1440.617 98253856 99111624 99609080 99685384 99299248 98427344 97072272 
1443.993 95264920 93071096 90586048 87919080 85193464 82522112 80001480 
1447.368 77710944 75701032 73989048 72556880 71360584 70344248 69458000 
1450.743 68676736 68004776 67473520 67121664 66978680 67042628 67276456 
1454.118 67604520 67923920 68125000 68099584 67784312 67194600 66444352 
1457.494 65703408 65124600 64803444 64767444 65006324 65498160 66219532 
1460.869 67144560 68237424 69452048 70722872 71963400 73082360 73986104 
1464.244 74605176 74916344 74949016 74772032 74462376 74088704 73695392 
1467.619 73304600 72924504 72550496 72165552 71734304 71202136 70498904 
1470.995 69551672 68316488 66808684 65119908 63391344 61767108 60347624 
1474.370 59170124 58230200 57507136 56985004 56657844 56523092 56569064 
1477.745 56767224 57071608 57430508 57791108 58113784 58377536 58579632 
1481.120 58734976 58869048 59015344 59208628 59485960 59890712 60468752 
1484.496 61267688 62328716 63673280 65290428 67123904 69077216 71004968 
1487.871 72725024 74046064 74770256 74735544 73857336 72151504 69744528 
1491.246 66833688 63643016 60358776 57100744 53938276 50894444 47976984 
1494.621 45208364 42631564 40315520 38341024 36773112 35641956 34936620 
1497.997 34621164 34648112 34972892 35558844 36371064 37371500 38519812 
1501.372 39767528 41063376 42358940 43596132 44709328 45618460 46209824 
1504.747 46342700 45864784 44660444 42730628 40242920 37494152 34773016 
1508.122 32259032 30003044 27975642 26126462 24419272 22840180 21397350 
1511.498 20106940 18978266 18009910 17187742 16491801 15901994 15401823 
1514.873 14978018 14618189 14310260 14044540 13816058 13627253 13484738 
1518.248 13393831 13352553 13348453 13359934 13365299 13351767 13326108 
1521.623 13313261 13345173 13442221 13603457 13810790 14039885 14272149 
1524.999 14499877 14729610 14976338 15256151 15576565 15933752 16316002 
1528.374 16711261 17113532 17524350 17950858 18400838 18878382 19382920 
1531.749 19910246 20456064 21020408 21607706 22224498 22871052 23540150 
1535.124 24216236 24882184 25520094 26115658 26660916 27149186 27577628 
1538.500 27944438 28248048 28485878 28656338 28763632 28818402 28835150 
1541.875 28826616 28797620 28743026 28650710 28509832 28317572 28085276 
1545.250 27836006 27597082 27388428 27213492 27061334 26911734 26747066 
1548.625 26559460 26357394 26162038 25999272 25887068 25828234 25812658 
1552.000 25824928 25853518 25895896 25959206 26055456 26192408 26367428 
1555.376 26565518 26761620 26928266 27036050 27058582 26979846 26806236 
1558.751 26577882 26357746 26207260 26153558 26188292 26283640 26408060 
1562.126 26534346 26640764 26713978 26750450 26757744 26752492 26754326 
1565.501 26779204 26830838 26900558 26970396 27020676 27035874 27010838 
1568.877 26953616 26884060 26826678 26800104 26813180 26863228 26941592 
1572.252 27035944 27132962 27218500 27275406 27285814 27235434 27120758 
1575.627 26956682 26776032 26619836 26516136 26470000 26464788 26473874 
1579.002 26469790 26432074 26351548 26228484 26070586 25887244 25686334 
1582.378 25471674 25243916 25003992 24754904 24502208 24252078 24008010 
1585.753 23769048 23530356 23286622 23035618 22780254 22528392 22288950 
1589.128 22069898 21874020 21700140 21545202 21407756 21288450 21189390 
1592.503 21111084 21048892 20992554 20929130 20845828 20735608 20599532 
1595.879 20445886 20286292 20131164 19987780 19859570 19748732 19659382 
1599.254 19598612 19575494 19598890 19673320 19798390 19969220 20179928 
1602.629 20424876 20699362 20998118 21311420 21622018 21907682 22140078 
1606.004 22292056 22343366 22283196 22113300 21845342 21498930 21094978 
1609.380 20652414 20189438 19722726 19269122 18845508 18464412 18131256 
1612.755 17842162 17584932 17342238 17095712 16831520 16543427 16236126 
1616.130 15925365 15634609 15387508 15199597 15075912 15010945 14993486 
1619.505 15008132 15038110 15068056 15084385 15080611 15059344 15033754 
1622.881 15022880 15044559 15108537 15213083 15347962 15500396 15660854 
1626.256 15824635 15990917 16160291 16331587 16501334 16664743 16818846 
1629.631 16964182 17104536 17244692 17386896 17528248 17659916 17768840 
1633.006 17840608 17862014 17826074 17733738 17598390 17441184 17286652 
1636.382 17153512 17048636 16968282 16901824 16836824 16760986 16664296 
1639.757 16540743 16390147 16218722 16037190 15857659 15689056 15533053 
1643.132 15383663 15228525 15052380 14841025 14587520 14295604 13982395 
1646.507 13674336 13399947 13181265 13026981 12933916 12889713 12878245 
1649.883 12879952 12870804 12823024 12703528 12483355 12156525 11762358 
1653.258 11382222 11094220 10931398 10874080 10879685 10905609 10922903 
1656.633 10917739 10886719 10834876 10769689 10697654 10621012 10537289 
1660.008 10441396 10328085 10194822 10043018 9878658 9710599 9549344 9403623 
1663.866 9279275 9178280 9098759 9035356 8979336 8920517 8846961 8747993 
1667.723 8617478 8455650 8271186 8079408 7897704 7740089 7612676 7514191 
1671.581 7438109 7374577 7312301 7240399 7148331 7029274 6882780 6718568 
1675.438 6555427 6412825 6304157 6230505 6182710 6146010 6106727 6056929 
1679.295 5996387 5931957 5872810 5825323 5787378 5747690 5687191 5586927 
1683.153 5436456 5245590 5045423 4877112 4769463 4725145 4726753 4749799 
1687.010 4774254 4787151 4783433 4763735 4731744 4692119 4648914 4606717 
1690.868 4569850 4542293 4526221 4520061 4517550 4507405 4476639 4414442 
1694.725 4318821 4202010 4088742 4005700 3966041 3964369 3979416 3985302 
1698.583 3956611 3878442 3752959 3605127 3473411 3388516 3359498 3373055 
1702.440 3407150 3440546 3458982 3455676 3430093 3387180 3335357 3283573 
1706.297 3238672 3203488 3177620 3158395 3142108 3125321 3106098 3084007 
1710.155 3060815 3039193 3021909 3010465 3004559 3001323 2996819 2987077 
1714.012 2968928 2940939 2903145 2855414 2798452 2732928 2662846 2595475 
1717.870 2541413 2511285 2510652 2537947 2585142 2641410 2695818 2740130 
1721.727 2770940 2789281 2800053 2809424 2822763 2842774 2869123 2899709 
1725.584 2932132 2965025 2997320 3027781 3054475 3074496 3085141 3085375 
1729.442 3076932 3063051 3046934 3028516 3002858 2959687 2886467 2774042 
1733.299 2624576 2456367 2300215 2186043 2127570 2119046 2141688 2174222 
1737.157 2200130 2207890 2194502 2162766 2120778 2077861 2041373 2014909 
1741.014 1998431 1990143 1988412 1992174 2001327 2015075 2032185 2050795 
1744.872 2068672 2084153 2096206 2103963 2106560 2102765 2090979 2070037 
1748.729 2039476 2000029 1953763 1903740 1853791 1808072 1770376 1743762 
1752.586 1729523 1727029 1732917 1742265 1748353 1744926 1727760 1696624 
1756.444 1656244 1614770 1580782 1559101 1549491 1546731 1543472 1532399 
1760.301 1509357 1474579 1432690 1390839 1355805 1332140 1320574 1319311 
1764.159 1324729 1332938 1339851 1341579 1334467 1316719 1289002 1255406 
1768.016 1222576 1197191 1182771 1178020 1176392 1169016 1147422 1108488 
1771.874 1055806 1000905 957003 933327 931468 946311 969456 993068 1013127 
1776.213 1029036 1042852 1056437 1069956 1081282 1087128 1085135 1075635 
1780.071 1061685 1048399 1040029 1037439 1038036 1037073 1030264 1015850 
1783.928 995857 974736 957966 949333 949598 956804 967929 981212 995359 
1788.268 1010437 1025548 1038036 1043716 1037372 1015485 979020 933892 
1792.125 890229 858124 843915 847334 863602 885282 906067 922403 932962 
1796.465 938142 938408 933560 922536 904938 881198 853642 826320 803746 
1800.804 788775 782170 782568 787514 794983 803614 813307 824328 835914 
1805.144 847168 856265 862041 864199 863469 861079 857792 853741 847799 
1809.483 839167 828245 816493 807265 803481 806800 816062 827415 836312 
1813.823 838769 833590 821838 807597 795248 788178 787912 793655 803779 
1818.163 816162 830104 845508 863237 883190 904738 926055 944883 959328 
1822.502 967995 970452 967497 960955 953882 950163 953948 968261 993201 
1826.842 1026146 1061718 1092709 1112075 1116460 1106494 1088723 1071849 
1830.699 1064940 1072546 1094403 1125097 1158916 1190512 1217226 1239688 
1834.557 1259925 1280761 1303824 1329714 1358364 1389642 1425044 1466334 
1838.414 1515342 1572502 1636188 1703144 1768879 1829600 1882908 1927969 
1842.271 1965578 1997433 2027092 2058285 2095840 2144019 2205125 2278564 
1846.129 2359944 2442339 2517351 2576776 2615309 2631209 2626542 2605575 
1849.986 2573143 2532481 2484392 2428344 2363609 2291321 2214317 2136660 
1853.844 2061814 1991242 1923476 1855754 1785880 1713024 1639348 1568378 
1857.701 1503372 1445323 1392833 1343042 1292758 1241383 1190579 1144199 
1861.559 1106162 1078559 1060755 1050126 1043616 1038368 1033187 1027674 
1865.416 1020533 1009241 990079 959195 915530 862340 807630 761789 733975 
1869.756 728266 742605 770054 801821 831366 854638 870773 880733 885049 
1874.095 883887 876550 862407 842354 818684 794618 772743 753657 735834 
1878.435 716484 693684 667169 639029 613114 592542 578740 569848 562516 
1882.774 552928 539293 522174 503631 486315 471587 458253 444156 426744 
1887.114 405285 381308 358094 339193 326857 320756 318866 318203 316877 
1891.454 314290 311372 309051 307592 306797 305868 304840 305039 308554 
1895.793 317440 332063 350434 368706 382767 390030 390395 386017 379683 
1900.133 373415 367313 359719 348544 333191 315285 298143 285145 278216 
1904.472 275265 272314 264622 248476 224275 195369 167093 144190 128545 
1908.812 119829 115752 113863 113266 114990 120193 129407 140975 151581 
1913.152 158078 158906 154630 147272 138721 128877 115321 94442 63489 24221 
1917.973 -17030 -51155 -70238 -71331 -58378 -39659 -25744 -23822 -35783 
1922.313 -57318 -80442 -97668 -104889 -103001 -96078 -88988 -84549 -82197 
1926.653 -79514 -74710 -67720 -60995 -58709 -63215 -74644 -90479 -106943 
1930.992 -121452 -134006 -146858 -163585 -185510 -211277 -237208 -258898 
1934.850 -274263 -284793 -294594 -308103 -327141 -349489 -369552 -382529 
1938.707 -386502 -385442 -387197 -400372 -429701 -473359 -522077 -563476 
1942.564 -587565 -590113 -574760 -549743 -523831 -502319 -485771 -471605 
1946.422 -456943 -442180 -429999 -424670 -428410 -439069 -450952 -457108 
1950.279 -452871 -438903 -421856 -410932 -414507 -436487 -474849 -524129 
1954.137 -578333 -632598 -686623 -742032 -800476 -861160 -920150 -972686 
1957.994 -1015827 -1049907 -1079853 -1111614 -1150181 -1195750 -1244783 
1961.369 -1291399 -1331436 -1363972 -1391353 -1416586 -1441949 -1465825 
1964.745 -1484878 -1496370 -1500761 -1503040 -1511592 -1532987 -1569173 
1968.120 -1615523 -1662627 -1701970 -1729462 -1747349 -1763222 -1784836 
1971.495 -1816084 -1853269 -1888405 -1912586 -1921394 -1916512 -1905098 
1974.870 -1892397 -1879596 -1859603 -1819483 -1748438 -1643119 -1511889 
1978.246 -1372427 -1243891 -1140333 -1065905 -1016488 -983133 -958536 
1981.621 -939823 -929177 -930631 -946204 -972653 -1003794 -1031661 -1050799 
1985.478 -1060451 -1064054 -1065872 -1068516 -1070763 -1069111 -1060253 
1988.854 -1044585 -1026603 -1013182 -1009678 -1015827 -1025777 -1028686 
1992.229 -1014769 -981050 -932185 -879910 -837284 -812977 -809207 -820220 
1996.086 -836656 -850049 -855671 -854282 -849685 -845287 -843105 -842840 
1999.944 -843898 -847602 -858416 -882886 -926102 -987761 -1062401 -1138582 
2003.801 -1205068 -1252613 -1278481 -1285650 -1280662 -1269231 -1253571 
2007.176 -1233615 -1208240 -1179096 -1151834 -1132600 -1127676 -1137491 
2010.552 -1156890 -1177047 -1188877 -1187489 -1174602 -1156493 -1140036 
2013.927 -1129890 -1126222 -1124900 -1122917 -1119381 -1118092 -1125032 
2017.302 -1145489 -1178270 -1217062 -1250928 -1270420 -1269958 -1252382 
2020.677 -1224331 -1194891 -1168323 -1143935 -1116473 -1080778 -1035198 
2024.052 -984785 -938038 -904246 -887978 -886556 -891483 -891781 -878719 
2027.910 -849355 -806065 -755163 -702238 -650397 -599841 -549743 -499274 
2031.767 -450587 -405603 -365447 -328929 -291879 -250189 -201308 -147255 
2035.625 -94256 -48869 -15572 6925 24586 46555 79462 126391 184463 246454 
2040.447 305537 356436 398553 433476 463726 489665 509535 520682 522407 
2044.786 517928 513914 519587 543207 589954 658043 742571 835648 928845 
2049.126 1015950 1091081 1150976 1193170 1217591 1225865 1223772 1218655 
2052.983 1219552 1232976 1261952 1303858 1352880 1401542 1444492 1480165 
2056.841 1510853 1540579 1572801 1607919 1643738 1676966 1704874 1726796 
2060.698 1744793 1761327 1778428 1795994 1811765 1822280 1826139 1823411 
2064.555 1816058 1807141 1798823 1790305 1780224 1766184 1747720 1726330 
2068.413 1705772 1689040 1678596 1673141 1669848 1665790 1660036 1654382 
2072.270 1653151 1660435 1678995 1707103 1740768 1774402 1804080 1828535 
2076.128 1849897 1871327 1895920 1923509 1951999 1977461 1996900 2009050 
2079.985 2014776 2017039 2018737 2021666 2026726 2034416 2044669 2058951 
2083.843 2078161 2102365 2129934 2156839 2178817 2192038 2195401 2191072 
2087.700 2183246 2176219 2172290 2170558 2167994 2160535 2146250 2126005 
2091.557 2103697 2085019 2074532 2074432 2083954 2100800 2121577 2144652 
2095.415 2168560 2192903 2216615 2237497 2252718 2259879 2259046 2252684 
2099.272 2245224 2241327 2244358 2255215 2272002 2292221 2313772 2336558 
2103.130 2361243 2389662 2421780 2456500 2491423 2524482 2555278 2585909 
2106.987 2619309 2659145 2706587 2760136 2815593 2869089 2917021 2958586 
2110.844 2994917 3027681 3057545 3083272 3101860 3110136 3106799 3093317 
2114.702 3073495 3052940 3036156 3025446 3020641 3019440 3019273 3018406 
2118.559 3016471 3014636 3014235 3016003 3020174 3026981 3036523 3050204 
2122.417 3068790 3093350 3122551 3153789 3183194 3207394 3224351 3233998 
2126.274 3238371 3240207 3240941 3241142 3239740 3235433 3227656 3217007 
2130.132 3205024 3193975 3184296 3175684 3167006 3157460 3147682 3140339 
2133.989 3138170 3143209 3154991 3170110 3183561 3191071 3191005 3184362 
2137.846 3175551 3168608 3165738 3165938 3166472 3162867 3152921 3136000 
2141.704 3113974 3089947 3065453 3040928 3015169 2986576 2954083 2917455 
2145.561 2877061 2832001 2780144 2717923 2643410 2557111 2463798 2371471 
2149.419 2288623 2219113 2161468 2107493 2045102 1963315 1856819 1725631 
2153.276 1577490 1421055 1264378 1112175 967464 833324 718343 635876 603060 
2157.616 633023 729129 879472 1060290 1243443 1403969 1527644 1613107 
2161.473 1666355 1696857 1713489 1722704 1727760 1731786 1737840 1748985 
2165.331 1766317 1786945 1804412 1811100 1799521 1767449 1717182 1655878 
2169.188 1591623 1531402 1477738 1429831 1384058 1337923 1290564 1244240 
2173.045 1201742 1165827 1137688 1115729 1097426 1080983 1064840 1049362 
2176.903 1034582 1019736 1003263 983039 958232 929608 899360 870142 843516 
2181.242 818618 793589 765972 735668 705200 680376 666439 666737 680609 
2185.582 703441 728930 752031 769457 782336 793887 806535 821008 836080 
2189.922 849359 859551 867719 877314 892387 916360 948004 984400 1020865 
2194.261 1053448 1081116 1105830 1130047 1155926 1182106 1205431 1221180 
2198.119 1227261 1223473 1215000 1207457 1206593 1214601 1230617 1249956 
2201.976 1268665 1283984 1296446 1308045 1321139 1336594 1352481 1366408 
2205.833 1375515 1379005 1379039 1378839 1381997 1390174 1403171 1418861 
2209.691 1434884 1449512 1463708 1478137 1493430 1509091 1522723 1530803 
2213.548 1531501 1524153 1511285 1496523 1484487 1478968 1481761 1493563 
2217.406 1514145 1542807 1578421 1618827 1660535 1698920 1729557 1749118 
2221.263 1756969 1755239 1748486 1740568 1734048 1728858 1723037 1714055 
2225.121 1700882 1684616 1667885 1654614 1646332 1643406 1643472 1644237 
2228.978 1644370 1644570 1647696 1656477 1672542 1695427 1722138 1748918 
2232.835 1772971 1793699 1812697 1832362 1854822 1880745 1909032 1938220 
2236.693 1967010 1996301 2027392 2062247 2101167 2142554 2183279 2219679 
2240.550 2249487 2272802 2291455 2308542 2326597 2346119 2365907 2383764 
2244.408 2397591 2406720 2412517 2417015 2422513 2430910 2442705 2458000 
2248.265 2476694 2498888 2524583 2553312 2583509 2612075 2636110 2653678 
2252.123 2664346 2670447 2675781 2684016 2697752 2717423 2740997 2765905 
2255.980 2789181 2809557 2826632 2840506 2850678 2856448 2855648 2847043 
2259.837 2829634 2804788 2774142 2740697 2707021 2675047 2646644 2623176 
2263.695 2607242 2601142 2606642 2624209 2651911 2685483 2719857 2750133 
2267.552 2773308 2788948 2798452 2804054 2807323 2808957 2808723 2806422 
2271.410 2802987 2800253 2800486 2806255 2817594 2833369 2850778 2867155 
2275.267 2880863 2892137 2902444 2913885 2927962 2944508 2962356 2979837 
2279.125 2995685 3010332 3024879 3041128 3059547 3080035 3100859 3120015 
2282.982 3136134 3148783 3158796 3167674 3176652 3186565 3197280 3208328 
2286.839 3219344 3230092 3240541 3250689 3259769 3267014 3271287 3271855 
2290.697 3269050 3264176 3259235 3255930 3255830 3259235 3265912 3275360 
2294.554 3287278 3301568 3318328 3337226 3357127 3376494 3393892 3408452 
2298.412 3420608 3431395 3442450 3454907 3468601 3482629 3495055 3504775 
2302.269 3511689 3517401 3524249 3534537 3549369 3568110 3588823 3608669 
2306.126 3625408 3637269 3644687 3648095 3648496 3647093 3644186 3640610 
2309.984 3637570 3636467 3639307 3647527 3661862 3681376 3704267 3728128 
2313.841 3750954 3771676 3790293 3807741 3824788 3842037 3859487 3876370 
2317.699 3891982 3905957 3918695 3930832 3943772 3958517 3975805 3995400 
2321.556 4015967 4034761 4048072 4051684 4041617 4015766 3974233 3919866 
2325.414 3858283 3795741 3738722 3691936 3657451 3634663 3621064 3613647 
2329.271 3609604 3607666 3607466 3609404 3613547 3619294 3625809 3632190 
2333.128 3638272 3645088 3654043 3666573 3683281 3703866 3726457 3749250 
2336.986 3770707 3789925 3807306 3823485 3839062 3854506 3870018 3885797 
2340.843 3901945 3919130 3937720 3957447 3977076 3994598 4007841 4016033 
2344.701 4019980 4022856 4029511 4045129 4073758 4116839 4173607 4241022 
2348.558 4314638 4389104 4459532 4521802 4572294 4609698 4633977 4647741 
2352.416 4654205 4657152 4659564 4662612 4665559 4666497 4663750 4656483 
2356.273 4645531 4633140 4621888 4613783 4609463 4607722 4606517 4604106 
2360.130 4599082 4591448 4582306 4572763 4564492 4558398 4555418 4556891 
2363.988 4563822 4577082 4596805 4622223 4650454 4678956 4704947 4726519 
2367.845 4743937 4758274 4771842 4786147 4802462 4820822 4840690 4861430 
2371.703 4882842 4904690 4927109 4949764 4972018 4992999 5012406 5030473 
2375.560 5048272 5067179 5088298 5112202 5138186 5164741 5190259 5213765 
2379.417 5235295 5255853 5276881 5299923 5325985 5354967 5386333 5418976 
2383.275 5452092 5484807 5517155 5548801 5579912 5610422 5640396 5670003 
2387.132 5699377 5728888 5758367 5787445 5815383 5841207 5864615 5885606 
2390.990 5904784 5923358 5942135 5961551 5981405 6000990 6019803 6037845 
2394.847 6055686 6074401 6094898 6117849 6142818 6169099 6195986 6222639 
2398.705 6249665 6277599 6307149 6338752 6371903 6405495 6438282 6469490 
2402.562 6499154 6528618 6559463 6593608 6632398 6676339 6725197 6777932 
2406.419 6833197 6889446 6945197 6999339 7050995 7100132 7147792 7195491 
2410.277 7245115 7298554 7356682 7418931 7483716 7548545 7611395 7670375 
2414.134 7725416 7776890 7825906 7873747 7920851 7966981 8011699 8054159 
2417.992 8093620 8129438 8160972 8187982 8210403 8228671 8244171 8258927 
2421.849 8275307 8295299 8320394 8350759 8385753 8424163 8465110 8508393 
2425.707 8554787 8605345 8660945 8722367 8788767 8859507 8933775 9011371 
2429.564 9092737 9178822 9270136 9366752 9467486 9571089 9675802 9780539 
2433.421 9885098 9990022 10096191 10204422 10314920 10428194 10543738 
2436.797 10661419 10781238 10902856 11025868 11149493 11273052 11395964 
2440.172 11518605 11641690 11766410 11893786 12023756 12154923 12285448 
2443.547 12412909 12535770 12653753 12768186 12880838 12993931 13108590 
2446.922 13225260 13343123 13460642 13576586 13690134 13800905 13908456 
2450.298 14012679 14112649 14207883 14298036 14383549 14465413 14545066 
2453.673 14624288 14704280 14785794 14869311 14954765 15042089 15131283 
2457.048 15222210 15314496 15407385 15499985 15591230 15680708 15767869 
2460.423 15852710 15934851 16013984 16089143 16159706 16225671 16288171 
2463.799 16349373 16412891 16481785 16558779 16645428 16741736 16846642 
2467.174 16958910 17077550 17202496 17334478 17474642 17624614 17785652 
2470.549 17958626 18143968 18341660 18550752 18769904 18996924 19229360 
2473.924 19464450 19700188 19935014 20167642 20397474 20623052 20842144 
2477.300 21052128 21250070 21433482 21601230 21753124 21890014 22012484 
2480.675 22120554 22213096 22287906 22342494 22375390 22386658 22378144 
2484.050 22353378 22316438 22271304 22221188 22168146 22112952 22055674 
2487.425 21996032 21933192 21866598 21795032 21717452 21632606 21539702 
2490.801 21437622 21326174 21205048 21074352 20934310 20785310 20627536 
2494.176 20461516 20287542 20105794 19915970 19717386 19509016 19290078 
2497.551 19059928 18818830 18568008 18309692 18046452 17781266 17516554 
2500.926 17254554 16996638 16743906 16496962 16256077 16021203 15792023 
2504.302 15568185 15349233 15135297 14926919 14725153 14531464 14347451 
2507.677 14173888 14011584 13860185 13719337 13588551 13467443 13355492 
2511.052 13252382 13157426 13069696 12988571 12913401 12844217 12781493 
2514.427 12725909 12677804 12637106 12603268 12575401 12552925 12536179 
2517.802 12525982 12523663 12530484 12546376 12570729 12601426 12636526 
2521.178 12674222 12713627 12754571 12797771 12843706 12892205 12942485 
2524.553 12993317 13042754 13089295 13131743 13168970 13200154 13224986 
2527.928 13242613 13252963 13256482 13253510 13244867 13230555 13210128 
2531.303 13182803 13148068 13105687 13056652 13002739 12946513 12890123 
2534.679 12834662 12780640 12727104 12673540 12619811 12566840 12516468 
2538.054 12470601 12430264 12395419 12364293 12334806 12304639 12272496 
2541.429 12238345 12203448 12169201 12136762 12106677 12078160 12050259 
2544.804 12021882 11992248 11961593 11930328 11899099 11868962 11840462 
2548.180 11813938 11789628 11767567 11747345 11728418 11709934 11690872 
2551.555 11670586 11649245 11627362 11606262 11587239 11571176 11558756 
2554.930 11549330 11542219 11536265 11530412 11523982 11516598 11508058 
2558.305 11498395 11487951 11476961 11465667 11454440 11443179 11431341 
2561.681 11417598 11400590 11378889 11351917 11320049 11284953 11249078 
2565.056 11214872 11184408 11159012 11139023 11124201 11114378 11108768 
2568.431 11107612 11110570 11117029 11125799 11135352 11144225 11151058 
2571.806 11155782 11158808 11161256 11164621 11169857 11177745 11188488 
2575.182 11201884 11217728 11235647 11254995 11275432 11296346 11317090 
2578.557 11337326 11356984 11376678 11396985 11418823 11443078 11470327 
2581.932 11500913 11534835 11571687 11611231 11652547 11694821 11737200 
2585.307 11778903 11819385 11859053 11898350 11938025 11978691 12020588 
2588.683 12063545 12107119 12151175 12195950 12242060 12290526 12341862 
2592.058 12395998 12451882 12507942 12562543 12614661 12664295 12712194 
2595.433 12759211 12806166 12852818 12898280 12941187 12980377 13015782 
2598.808 13048252 13079667 13111663 13146020 13183383 13223723 13266423 
2602.184 13310733 13356141 13402579 13449910 13498033 13546810 13595868 
2605.559 13645067 13694921 13746182 13800187 13858235 13921217 13989205 
2608.934 14062131 14139176 14219728 14303446 14389988 14478945 14569873 
2612.309 14661712 14753296 14843801 14932474 15019485 15105106 15190298 
2615.685 15275506 15360972 15446215 15530650 15613177 15693212 15770240 
2619.060 15844531 15916187 15985725 16053693 16120503 16186427 16251640 
2622.435 16316002 16379341 16441349 16501438 16559262 16614856 16667979 
2625.810 16718837 16767874 16815332 16861178 16905994 16949712 16992608 
2629.186 17035266 17077894 17120976 17164336 17208150 17251624 17294894 
2632.561 17337236 17378448 17418626 17457600 17495236 17531286 17565542 
2635.936 17598184 17629168 17658846 17687868 17716792 17746440 17776710 
2639.311 17808470 17841576 17876826 17914356 17954688 17997926 18043932 
2642.687 18092220 18142206 18193480 18245482 18298390 18352272 18407198 
2646.062 18463064 18519734 18576618 18633612 18690338 18747280 18804850 
2649.437 18863882 18924824 18987854 19053316 19120450 19189082 19258454 
2652.812 19327906 19396952 19464658 19530574 19594592 19656574 19717144 
2656.188 19777270 19838030 19900150 19964502 20030908 20098922 20167918 
2659.563 20237064 20305770 20373446 20440226 20505734 20570210 20633788 
2662.938 20696650 20759068 20821286 20883548 20946064 21008516 21070422 
2666.313 21131606 21191756 21250558 21308078 21364250 21419312 21473272 
2669.688 21526260 21578560 21630552 21682724 21735738 21790086 21846074 
2673.064 21903570 21962502 22022696 22084190 22147296 22212224 22279500 
2676.439 22349192 22420848 22494018 22568106 22642838 22718034 22794538 
2679.814 22872974 22954148 23038554 23126188 23216710 23309346 23403750 
2683.189 23499190 23595770 23693352 23792392 23893098 23996244 24102392 
2686.565 24212172 24326082 24444264 24566158 24691208 24818610 24947418 
2689.940 25077456 25208764 25341972 25477400 25615964 25757630 25902120 
2693.315 26049510 26199376 26352042 26507650 26666694 26829286 26995182 
2696.690 27163648 27333906 27505220 27677522 27850950 28026250 28203848 
2700.066 28384596 28568534 28755488 28945074 29136972 29330658 29525814 
2703.441 29722158 29918732 30114896 30309732 30502270 30692156 30879068 
2706.816 31063422 31245188 31424858 31602390 31777822 31951218 32122436 
2710.191 32291580 32459364 32625676 32791302 32956634 33121918 33287592 
2713.567 33453718 33620236 33786704 33952160 34115392 34274560 34428368 
2716.942 34575376 34714504 34845636 34968904 35084988 35194856 35299784 
2720.317 35401324 35501092 35601064 35703000 35809132 35921084 36040376 
2723.692 36168308 36305716 36452932 36610108 36776756 36952268 37135828 
2727.068 37326508 37523268 37725252 37931988 38142664 38356728 38573184 
2730.443 38791016 39009248 39226536 39442336 39656212 39867612 40075992 
2733.818 40280656 40480432 40673456 40858160 41033004 41197312 41350860 
2737.193 41493996 41627920 41753712 41872500 41985520 42093928 42199264 
2740.569 42302908 42406428 42511728 42620600 42734800 42856268 42986988 
2743.944 43128472 43281972 43447940 43625952 43814296 44010576 44211852 
2747.319 44414768 44616232 44813536 45004196 45185900 45356900 45515200 
2750.694 45659096 45787168 45898484 45992512 46069024 46127756 46169060 
2754.070 46192756 46198836 46187340 46157896 46109996 46042648 45954792 
2757.445 45844788 45711508 45553580 45370400 45162188 44929304 44673448 
2760.820 44396272 44100200 43788204 43463212 43129092 42789824 42449028 
2764.195 42110652 41777828 41453608 41140556 40841164 40557908 40292940 
2767.571 40048956 39827588 39630328 39457360 39308288 39182004 39077180 
2770.946 38992392 38926464 38878956 38849024 38835688 38837576 38852392 
2774.321 38877216 38909104 38944440 38980504 39014684 39044804 39069460 
2777.696 39087112 39096540 39096428 39085772 39063584 39029256 38983508 
2781.072 38927444 38863156 38793804 38722908 38653476 38588684 38530348 
2784.447 38479224 38435060 38396692 38362084 38328968 38294624 38256848 
2787.822 38213208 38161616 38100736 38029192 37946704 37853460 37750332 
2791.197 37638556 37519656 37395660 37268740 37141388 37016164 36895704 
2794.573 36783064 36680804 36591184 36516284 36457580 36415996 36392648 
2797.948 36387852 36402268 36435992 36488824 36560616 36650520 36757568 
2801.323 36881024 37019700 37172824 37338856 37516512 37703960 37899592 
2804.698 38101172 38307400 38516696 38728232 38941288 39154552 39366724 
2808.073 39575556 39778240 39971388 40151652 40315484 40460100 40583228 
2811.449 40683280 40759264 40811060 40839124 40844400 40828384 40793112 
2814.824 40740632 40674004 40596180 40510616 40421004 40331408 40245720 
2818.199 40168296 40103460 40055100 40026904 40021780 40041872 40087836 
2821.574 40159576 40255500 40373296 40510112 40663016 40829116 41005688 
2824.950 41190496 41380816 41574172 41766812 41955484 42136280 42305864 
2828.325 42461596 42602140 42727776 42840320 42942616 43038756 43132940 
2831.700 43229300 43331504 43442264 43563420 43695968 43840468 43997192 
2835.075 44167064 44351536 44552348 44772504 45015112 45283380 45581216 
2838.451 45912512 46282096 46696196 47161364 47686560 48281448 48956404 
2841.826 49722204 50590484 51571460 52676324 53915392 55297044 56826816 
2845.201 58504332 60320056 62251004 64258180 66287032 68261968 70096960 
2848.576 71700464 72979688 73859376 74287552 74242424 73736072 72812032 
2851.952 71540600 70002584 68286552 66479140 64651952 62866576 61169720 
2855.327 59590888 58148784 56850080 55692708 54667632 53761840 52960408 
2858.702 52247068 51607280 51028764 50500628 50014808 49564628 49144628 
2862.077 48750212 48377592 48023576 47686268 47364812 47059992 46774052 
2865.453 46510692 46273916 46069064 45900692 45773248 45689352 45650332 
2868.828 45655672 45702712 45786688 45900800 46036900 46185020 46334812 
2872.203 46476284 46600284 46700108 46771804 46814720 46831184 46826348 
2875.578 46806268 46777300 46745564 46715716 46691032 46673988 46666020 
2878.954 46668048 46680776 46704796 46740584 46788928 46850408 46925968 
2882.329 47016012 47120588 47238936 47369132 47508024 47651988 47796924 
2885.704 47939388 48077128 48209432 48337260 48462900 48589800 48721556 
2889.079 48861992 49015044 49184296 49374364 49590400 49838544 50126652 
2892.455 50464192 50861400 51330416 51883872 52533976 53291952 54165232 
2895.830 55154888 56252172 57436936 58674552 59915060 61101216 62168376 
2899.205 63053460 63708192 64100816 64224108 64094560 63751176 63248312 
2902.580 62644260 62000256 61370716 60798572 60318840 59956064 59726292 
2905.956 59640148 59704052 59921448 60294628 60825704 61517824 62375456 
2909.331 63404076 64608312 65989704 67543816 69257072 71103464 73047584 
2912.706 75039560 77019776 78926120 80691664 82253624 83561520 84575912 
2916.081 85275592 85657216 85734592 85534056 85089704 84441432 83626544 
2919.457 82679208 81628920 80497960 79303400 78058216 76771784 75453120 
2922.832 74111888 72759304 71409000 70076760 68777768 67527480 66338836 
2926.207 65220924 64179740 63217080 62330972 61516220 60764804 60067224 
2929.582 59412328 58789488 58188716 57601480 57021316 56443432 55864508 
2932.958 55282140 54694312 54099812 53497808 52888808 52274760 51658444 
2936.333 51044228 50436504 49839512 49257144 48693016 48150456 47633316 
2939.708 47145964 46692988 46279704 45910448 45588172 45313796 45085576 
2943.083 44898840 44745760 44616824 44500072 44382872 44253716 44102620 
2946.458 43923096 43713228 43475884 43218612 42951876 42688440 42441244 
2949.834 42220808 42035632 41890420 41786184 41720412 41687988 41681932 
2953.209 41693568 41714688 41737264 41754336 41760900 41753424 41730004 
2956.584 41690068 41633716 41562064 41476720 41379760 41274188 41163068 
2959.959 41049936 40937820 40829368 40726440 40630268 40541392 40460060 
2963.335 40386420 40320320 40261532 40209660 40164116 40124032 40088748 
2966.710 40057860 40031044 40008412 39990644 39978108 39971932 39973752 
2970.085 39985448 40009936 40050340 40110076 40191776 40296796 40425004 
2973.460 40573516 40737212 40908324 41077872 41234764 41367952 41467240 
2976.836 41524000 41532712 41491772 41404068 41276192 41118152 40942660 
2980.211 40761524 40586500 40427224 40289816 40177748 40091036 40027084 
2983.586 39980580 39944180 39909816 39868156 39810704 39729908 39620380 
2986.961 39479456 39307308 39106764 38882760 38641232 38388436 38129964 
2990.337 37869944 37611312 37355976 37104464 36857612 36616092 36380936 
2993.712 36153004 35932820 35720196 35513676 35310960 35108520 34902976 
2997.087 34691464 34471916 34243688 34007484 33765108 33518892 33271420 
3000.462 33025018 32781724 32542996 32309894 32083586 31864490 31653314 
3003.838 31450540 31256332 31070932 30894010 30725442 30564762 30411498 
3007.213 30265464 30126048 29993104 29866198 29744900 29628710 29516628 
3010.588 29407768 29301238 29196256 29092400 28989560 28887984 28787882 
3013.963 28689716 28593376 28498686 28405714 28314390 28225240 28139256 
3017.339 28057634 27981260 27910906 27846816 27788176 27734312 27684194 
3020.714 27637160 27593058 27552030 27514682 27481678 27453580 27430884 
3024.089 27414544 27405332 27404344 27413026 27432402 27463040 27504408 
3027.464 27555138 27612266 27672330 27730990 27784042 27827280 27857556 
3030.840 27872642 27871828 27855190 27824418 27781712 27729472 27669822 
3034.215 27604532 27534944 27462050 27387086 27311394 27236774 27165130 
3037.590 27097764 27035662 26978716 26926362 26877434 26831012 26786536 
3040.965 26744212 26704606 26668314 26636112 26607966 26583624 26562384 
3044.341 26543610 26526774 26511592 26498070 26486412 26476586 26469226 
3047.716 26464400 26462570 26464332 26470070 26480038 26494336 26512474 
3051.091 26533854 26557664 26582778 26608670 26634844 26661162 26687692 
3054.466 26714436 26741674 26769794 26798728 26828686 26859740 26891852 
3057.842 26925340 26960348 26997510 27037566 27081682 27130528 27184636 
3061.217 27244146 27308572 27376888 27448038 27520824 27594576 27669082 
3064.592 27744658 27821700 27900942 27982426 28065978 28150604 28234822 
3067.967 28316582 28394112 28465288 28529150 28585236 28633898 28676302 
3071.343 28714106 28748868 28782040 28814968 28848392 28882848 28918510 
3074.718 28955628 28993986 29033448 29073552 29113516 29152846 29190728 
3078.093 29227302 29262886 29298152 29334060 29371568 29410852 29451984 
3081.468 29494464 29537482 29580504 29623390 29665922 29708426 29751430 
3084.844 29795362 29840716 29887884 29937298 29989412 30044552 30102964 
3088.219 30164938 30230224 30298432 30369246 30442452 30517270 30593524 
3091.594 30670822 30748594 30826488 30904362 30982106 31060186 31139346 
3094.969 31220444 31304546 31392266 31483884 31579368 31677834 31778176 
3098.344 31879074 31979106 32077200 32172852 32265990 32356936 32446724 
3101.720 32536138 32626140 32717020 32808632 32900766 32993060 33085160 
3105.095 33177242 33269812 33363044 33457190 33552072 33647156 33742044 
3108.470 33836276 33930056 34024004 34119012 34216012 34315148 34416316 
3111.845 34518728 34621560 34724052 34826000 34927356 35028668 35130000 
3115.221 35231648 35333424 35435008 35536296 35637352 35738220 35839324 
3118.596 35940664 36042068 36142956 36242500 36340080 36435632 36529296 
3121.971 36621968 36714444 36807696 36902232 36998592 37096744 37196936 
3125.346 37299284 37403860 37510912 37620488 37732732 37847168 37963448 
3128.722 38080880 38198484 38315036 38429340 38540380 38647460 38750584 
3132.097 38850472 38948568 39046220 39145380 39246772 39351380 39458844 
3135.472 39568912 39681152 39795016 39909816 40025488 40140968 40255860 
3138.847 40369332 40480976 40590976 40700024 40808912 40918956 41031072 
3142.223 41145544 41262456 41381436 41501980 41623728 41746312 41869768 
3145.598 41993512 42117512 42241404 42364968 42488340 42611752 42735820 
3148.973 42860692 42986296 43112444 43238268 43363064 43486392 43608332 
3152.348 43729312 43849852 43970828 44092280 44214092 44335572 44456168 
3155.724 44575332 44693092 44809824 44926252 45043048 45160788 45279924 
3159.099 45400084 45521052 45642420 45763528 45883972 46003636 46122228 
3162.474 46240156 46357964 46476320 46595816 46717080 46840300 46965176 
3165.849 47091192 47217468 47343084 47467216 47589316 47709120 47827144 
3169.225 47943348 48058476 48172816 48286820 48400560 48514100 48627304 
3172.600 48740276 48853280 48966532 49080260 49194760 49309440 49423332 
3175.975 49535284 49644112 49749140 49850768 49949972 50048904 50149304 
3179.350 50252924 50360480 50471560 50584788 50698532 50811228 50921380 
3182.726 51027980 51130884 51229968 51325720 51418772 51510164 51601236 
3186.101 51693076 51786616 51882116 51979320 52077444 52175548 52273040 
3189.476 52370216 52467268 52565352 52665064 52766708 52869944 52973844 
3192.851 53077544 53180220 53281388 53380928 53478988 53574980 53668960 
3196.227 53760412 53849260 53936364 54022508 54108820 54196352 54285660 
3199.602 54376192 54467232 54557540 54646100 54732496 54816692 54899252 
3202.977 54980700 55061748 55142888 55224716 55307468 55391248 55475952 
3206.352 55560820 55644724 55726276 55804372 55878640 55949716 56018996 
3209.728 56088172 56158908 56231916 56306936 56382724 56457996 56531888 
3213.103 56604276 56675852 56747964 56822244 56898764 56978096 57059364 
3216.478 57141784 57224332 57306252 57387056 57466436 57544280 57620244 
3219.853 57694336 57766768 57837740 57908156 57978884 58050948 58125336 
3223.229 58202808 58283700 58368020 58455160 58543876 58632796 58720028 
3226.604 58804244 58884832 58962172 59037324 59112372 59188768 59267644 
3229.979 59349036 59432276 59516172 59600012 59683332 59766592 59850212 
3233.354 59935024 60020924 60107636 60194592 60281492 60368296 60455652 
3236.729 60543856 60633304 60723648 60813700 60902780 60990092 61076312 
3240.105 61162624 61250904 61342400 61437700 61535880 61635344 61734644 
3243.480 61832356 61928564 62024564 62121732 62221788 62325772 62433488 
3246.855 62544220 62657116 62770972 62885880 63001588 63117640 63233988 
3250.230 63349784 63464164 63576692 63687056 63795648 63902928 64010380 
3253.606 64118288 64227336 64337520 64448504 64559796 64671180 64781828 
3256.981 64891464 64999856 65106972 65212956 65318152 65423192 65528324 
3260.356 65633684 65738520 65842576 65945156 66045752 66144668 66241876 
3263.731 66337524 66431372 66522816 66610532 66693700 66772244 66846484 
3267.107 66918024 66988572 67059792 67132872 67208144 67285160 67363120 
3270.482 67441136 67518464 67594688 67669368 67741584 67811424 67878672 
3273.857 67943832 68007840 68072176 68137832 68205712 68275928 68347704 
3277.232 68420312 68493400 68566520 68640288 68714960 68791048 68868032 
3280.608 68945816 69023416 69100792 69178576 69257496 69339272 69425184 
3283.983 69515272 69609584 69707256 69807320 69909328 70012864 70118264 
3287.358 70225944 70336536 70449728 70566064 70685440 70807808 70933568 
3290.733 71062640 71195304 71331448 71471304 71615312 71764400 71920112 
3294.109 72083752 72256208 72437104 72625448 72819208 73016304 73215720 
3297.484 73416880 73620256 73826816 74037344 74252360 74471864 74695872 
3300.859 74924528 75158904 75400144 75649440 75907368 76173304 76446288 
3304.234 76724728 77007592 77294592 77586336 77884224 78188864 78501064 
3307.610 78820872 79148080 79482528 79824520 80174040 80531104 80895040 
3310.985 81264600 81638072 82014712 82394200 82778024 83168488 83567384 
3314.360 83976080 84393952 84818776 85247736 85678120 86108328 86538360 
3317.735 86969096 87401608 87837176 88275824 88717472 89161856 89608848 
3321.111 90058304 90510336 90964120 91418088 91870152 92318672 92762568 
3324.486 93202488 93639888 94076464 94513144 94948976 95381624 95807016 
3327.861 96221744 96622672 97008136 97377744 97731432 98069640 98392136 
3331.236 98699040 98990216 99265888 99525984 99769928 99995792 100200560 
3334.612 100380976 100534216 100658944 100756424 100829928 100883048 
3337.505 100918872 100938480 100940568 100922216 100879624 100809952 
3340.398 100711464 100584048 100428232 100244928 100034416 99796360 99530400 
3343.773 99235656 98912024 98559240 98177040 97765880 97326208 96858904 
3347.148 96365760 95849568 95313408 94760472 94193424 93613912 93022944 
3350.523 92421016 91808496 91186096 90555232 89916408 89270864 88618928 
3353.899 87961104 87298488 86633040 85967760 85306000 84651928 84008168 
3357.274 83376920 82759296 82155168 81564304 80986704 80422152 79870952 
3360.649 79333032 78807840 78294800 77792896 77301640 76820656 76350288 
3364.024 75890520 75442200 75005568 74581448 74170680 73774632 73394280 
3367.400 73030616 72683776 72352592 72034968 71728248 71429240 71135584 
3370.775 70845408 70557296 70270352 69983632 69696320 69407456 69116912 
3374.150 68824784 68531336 68236880 67940768 67641608 67336928 67024180 
3377.525 66701188 66367136 66022144 65667248 65303408 64930632 64548216 
3380.901 64154236 63746840 63325056 62888944 62440412 61981760 61516068 
3384.276 61045992 60573416 60099720 59625968 59152808 58680620 58209928 
3387.651 57740656 57272228 56803968 56335228 55865564 55395200 54925384 
3391.026 54457616 53994068 53537008 53088440 52650028 52222592 51805732 
3394.402 51398104 50997312 50599976 50203676 49806104 49407108 49007516 
3397.777 48610216 48217544 47831692 47453504 47082480 46717080 46355532 
3401.152 45996048 45637964 45280808 44924600 44569052 44213980 43858720 
3404.527 43503316 43148308 42794832 42444788 42099552 41759624 41424844 
3407.903 41093824 40764652 40436060 40107532 39779436 39453220 39130476 
3411.278 38812536 38500080 38193420 37892108 37595956 37304952 37019340 
3414.653 36739504 36465832 36197768 35934728 35675264 35417756 35160864 
3418.028 34903516 34645456 34387124 34129728 33874888 33624244 33379324 
3421.404 33140908 32909308 32683938 32463934 32247684 32033752 31821064 
3424.779 31608480 31395790 31183346 30971894 30762394 30555698 30353362 
3428.154 30155562 29962430 29773254 29586712 29401528 29216598 29031358 
3431.529 28846234 28662002 28479650 28299854 28122922 27948148 27774894 
3434.905 27602590 27430708 27259634 27090216 26922944 26758272 26595742 
3438.280 26434574 26273434 26111506 25948126 25783720 25619304 25456178 
3441.655 25295540 25138578 24985706 24836642 24690964 24546664 24402342 
3445.030 24255828 24105718 23951496 23793756 23634150 23475584 23320744 
3448.406 23171448 23027966 22889528 22754066 22619066 22483060 22345216 
3451.781 22206470 22068538 21932808 21800920 21673006 21548578 21426448 
3455.156 21305050 21182850 21058700 20931946 20802168 20669858 20536060 
3458.531 20401954 20269662 20140498 20015400 19894080 19775434 19657198 
3461.906 19537504 19414968 19289386 19161830 19034102 18908144 18785578 
3465.282 18667438 18553862 18444500 18338654 18235426 18133500 18031600 
3468.657 17928134 17821966 17712718 17600908 17488232 17376964 17269482 
3472.032 17167164 17070348 16977584 16886908 16796080 16703857 16609831 
3475.407 16514929 16420908 16328903 16240152 16154684 16072053 15991226 
3478.783 15911411 15831575 15751410 15670471 15588689 15506440 15424619 
3482.158 15344427 15267304 15194415 15126514 15062808 15002061 14942282 
3485.533 14881518 14818602 14753124 14685668 14617538 14549898 14483981 
3488.908 14420403 14359746 14301973 14247769 14197475 14150576 14107240 
3492.284 14065724 14024759 13982942 13939693 13894908 13849922 13806892 
3495.659 13767524 13733769 13707368 13688697 13678200 13675669 13680217 
3499.034 13690338 13704085 13718926 13732435 13742832 13749637 13753912 
3502.409 13757776 13764515 13777168 13798066 13828132 13867403 13915127 
3505.785 13969871 14030235 14094782 14161941 14230616 14299987 14369952 
3509.160 14441743 14517109 14598554 14688205 14787130 14894856 15009195 
3512.535 15127852 15247605 15366740 15484430 15600915 15716814 15832433 
3515.910 15946608 16057475 16162559 16259449 16346691 16424006 16491801 
3519.286 16551448 16603600 16648561 16685298 16712293 16728064 16730648 
3522.661 16719250 16693493 16653346 16598746 16529419 16444894 16343869 
3526.036 16225327 16089210 15936296 15768934 15590749 15405840 15217955 
3529.411 15029500 14840956 14651773 14460104 14264273 14063533 13857312 
3532.787 13646366 13431182 13212177 12990073 12764603 12537544 12310569 
3536.162 12086643 11868928 11659864 11460802 11271453 11090005 10914103 
3539.537 10742042 10572155 10404370 10239193 10076929 9917946 9762273 
3542.912 9608961 9457327 9306526 9155437 9003794 8851323 8698500 8546610 
3546.770 8397441 8253085 8115732 7986285 7864401 7747880 7634021 7519349 
3550.627 7401607 7280055 7155809 7031901 6911362 6797217 6690975 6592969 
3554.485 6502484 6417970 6338415 6262371 6188390 6114892 6040063 5961853 
3558.342 5879225 5791508 5700082 5606864 5514974 5426861 5344334 5268664 
3562.199 5199614 5136241 5076599 5018204 4957740 4890750 4813082 4721527 
3566.057 4615290 4497060 4373240 4252733 4143934 4053122 3982158 3929227 
3569.914 3889408 3856980 3826761 3794571 3757906 3715195 3665905 3609905 
3573.772 3548066 3481627 3412961 3345006 3280401 3221413 3168708 3121116 
3577.629 3076765 3032653 2986443 2937069 2884332 2829500 2774275 2720557 
3581.487 2669613 2622576 2580076 2541746 2507253 2475594 2444538 2411784 
3585.344 2374203 2329529 2276166 2215416 2150080 2085152 2025994 1976496 
3589.201 1938685 1911794 1892426 1876419 1859215 1836721 1805943 1765852 
3593.059 1716749 1660834 1601634 1542641 1487546 1438674 1396656 1361555 
3596.916 1331675 1305253 1280196 1255406 1229420 1202606 1175462 1149448 
3600.774 1126260 1107790 1094802 1087793 1085966 1087826 1091413 1094569 
3604.631 1094735 1090118 1078824 1059393 1031161 994297 950163 901883 853243 
3608.971 808128 769556 737560 710411 684060 654426 618688 575920 528278 
3613.310 480046 436362 401272 376400 360648 350368 340884 328117 308156 
3617.650 279608 243172 201269 157912 117741 84930 62031 49206 44998 46224 
3622.472 49770 52719 53415 51692 48709 45396 42181 37277 26342 3843 -36180 
3627.776 -95614 -171070 -252275 -324757 -375743 -400074 -400339 -384813 
3631.633 -363692 -345947 -337306 -339756 -352270 -371009 -391732 -410734 
3635.490 -425630 -436421 -443835 -449032 -453169 -456711 -459921 -462967 
3639.348 -466111 -469520 -473028 -476305 -478622 -478821 -476239 -470414 
3643.205 -461808 -451746 -442379 -436619 -436950 -445887 -465184 -495005 
3647.063 -534851 -582668 -635807 -691321 -745968 -796904 -840591 -874024 
3650.920 -894261 -900047 -891847 -872503 -846742 -820550 -799550 -788867 
3654.778 -790983 -805536 -828686 -853455 -873495 -883845 -883382 -874156 
3658.635 -860334 -846279 -835465 -829678 -829414 -833614 -840856 -849520 
3662.492 -858217 -865757 -871213 -873561 -871643 -864467 -851339 -832522 
3666.350 -809273 -784038 -760389 -741635 -729528 -723574 -717686 -702138 
3670.207 -664359 -594084 -486168 -341908 -168222 25315 226928 425085 604619 
3674.547 747517 836412 856929 804742 687312 519521 318037 97822 -126785 
3678.886 -343364 -539385 -703825 -830703 -919522 -975893 -1009348 -1029512 
3682.744 -1043858 -1055625 -1064715 -1069474 -1069111 -1064219 -1058104 
3686.119 -1055890 -1062368 -1081043 -1112705 -1154576 -1201037 -1245873 
3689.494 -1283404 -1310691 -1326811 -1332625 -1329289 -1318454 -1302267 
3692.870 -1282875 -1262425 -1243230 -1226413 -1212205 -1200343 -1189273 
3696.245 -1177708 -1164226 -1148793 -1131774 -1114655 -1099948 -1090462 
3699.620 -1088545 -1096015 -1113135 -1137954 -1167068 -1195585 -1219078 
3702.995 -1234507 -1240653 -1238373 -1229750 -1217459 -1203284 -1188546 
3706.371 -1173941 -1159897 -1146943 -1136103 -1128800 -1126751 -1130617 
3709.746 -1140961 -1156890 -1176783 -1198625 -1220168 -1239001 -1253439 
3713.121 -1261864 -1263813 -1259287 -1249639 -1236721 -1223142 -1211544 
3716.496 -1204044 -1201400 -1203317 -1208174 -1214220 -1220168 -1225157 
3719.872 -1229750 -1235069 -1240917 -1247261 -1253076 -1256710 -1257073 
3723.247 -1254529 -1250598 -1247723 -1248351 -1254133 -1264771 -1278349 
3726.622 -1291134 -1299294 -1300054 -1292059 -1276103 -1254959 -1232195 
3729.997 -1211478 -1196312 -1188348 -1188282 -1194692 -1205398 -1218185 
3733.373 -1232426 -1248946 -1268901 -1292786 -1319676 -1345276 -1364335 
3736.748 -1371536 -1364632 -1344186 -1314160 -1278680 -1242404 -1208537 
3740.123 -1178501 -1153387 -1135178 -1126817 -1133063 -1159599 -1210388 
3743.498 -1283140 -1366218 -1441355 -1487817 -1494818 -1464273 -1408494 
3746.874 -1342700 -1280926 -1234078 -1208108 -1203878 -1217789 -1243395 
3750.249 -1272964 -1300880 -1323541 -1339694 -1347457 -1345937 -1334145 
3753.624 -1312409 -1282677 -1248714 -1214485 -1183392 -1158542 -1140994 
3756.999 -1130816 -1127412 -1129659 -1137029 -1148331 -1161615 -1173908 
3760.375 -1181475 -1180814 -1170273 -1150908 -1125627 -1099551 -1077076 
3763.750 -1061641 -1053939 -1052749 -1054766 -1056716 -1056518 -1054138 
3767.125 -1050932 -1049543 -1051394 -1057278 -1066004 -1075622 -1083224 
3770.500 -1087157 -1086166 -1080778 -1072119 -1061575 -1050733 -1041015 
3773.875 -1033313 -1027694 -1023760 -1020587 -1016785 -1012191 -1006670 
3777.251 -1001711 -999133 -1000687 -1006472 -1015496 -1024686 -1030603 
3780.626 -1031429 -1026868 -1019066 -1011695 -1008158 -1010405 -1018240 
3784.001 -1029148 -1039462 -1045511 -1045312 -1038900 -1028322 -1016323 
3787.376 -1004984 -995926 -989050 -984091 -980289 -977645 -976157 -975992 
3791.234 -976983 -978372 -979265 -979033 -978174 -978306 -981579 -990339 
3795.091 -1005282 -1025182 -1045676 -1061641 -1067987 -1062699 -1047031 
3798.467 -1025314 -1004984 -994141 -998670 -1022108 -1061542 -1108937 
3801.842 -1152263 -1180186 -1187125 -1173280 -1144563 -1109334 -1076779 
3805.217 -1054105 -1045676 -1051824 -1068020 -1087091 -1100675 -1103451 
3808.592 -1094098 -1074498 -1048552 -1019496 -989943 -960486 -931194 -902031 
3812.450 -873858 -849520 -833250 -829976 -843270 -873594 -917009 -963495 
3816.307 -1001711 -1022339 -1021512 -1002736 -974140 -946667 -930962 -934665 
3820.165 -960453 -1004356 -1055625 -1100245 -1127213 -1131543 -1115712 
3823.540 -1086562 -1052783 -1021612 -997315 -981248 -971661 -965313 -958701 
3827.397 -949444 -937509 -924647 -913240 -905635 -903155 -905668 -911686 
3831.255 -918431 -923622 -924713 -920216 -909702 -894426 -876239 -858449 
3835.112 -844824 -838971 -843634 -859738 -885729 -917604 -949709 -975959 
3838.969 -992356 -997480 -992323 -979761 -963528 -947229 -933475 -924449 
3842.827 -920613 -921407 -925176 -929507 -931789 -930169 -923457 -912083 
3846.684 -897104 -880174 -862748 -845486 -828554 -811489 -795118 -780731 
3850.542 -772263 -775042 -794754 -836094 -898857 -976157 -1053576 -1115382 
3854.399 -1150049 -1155105 -1135641 -1100047 -1056782 -1011463 -967826 
3857.774 -927953 -892442 -862351 -838409 -821047 -810662 -806693 -807917 
3861.632 -812779 -820054 -828917 -839070 -850446 -862086 -871478 -875710 
3865.489 -871907 -859077 -839070 -816549 -798458 -791380 -800112 -825974 
3869.347 -864963 -907817 -943493 -963892 -966173 -952915 -930136 -905172 
3873.204 -883481 -867509 -856928 -848495 -838607 -824552 -805139 -782450 
3877.062 -759827 -741205 -730388 -729826 -739617 -757710 -779143 -798723 
3880.919 -811290 -814035 -806594 -792174 -775405 -761348 -754965 -758735 
3884.776 -772594 -792472 -812481 -825643 -826735 -814697 -791711 -762771 
3888.634 -733398 -709019 -693504 -689005 -694861 -708324 -725426 -741502 
3892.491 -753046 -757942 -755560 -746001 -730355 -709945 -686689 -662804 
3896.349 -640770 -623565 -612845 -609801 -614135 -624326 -637527 -650993 
3900.206 -662804 -672266 -680371 -688707 -699128 -712724 -728701 -744976 
3904.063 -759232 -768228 -770775 -766574 -757082 -744413 -730984 -718513 
3907.921 -707663 -698400 -689998 -681826 -672993 -663068 -652184 -640273 
3911.778 -627800 -615227 -602885 -591503 -581841 -574760 -571186 -571848 
3915.636 -576679 -584620 -594646 -605003 -614135 -620918 -624690 -624955 
3919.493 -621381 -613474 -601033 -584058 -563840 -542595 -522838 -507681 
3923.351 -499274 -498447 -504073 -513803 -524658 -533296 -538260 -538922 
3927.208 -535811 -530383 -523864 -517477 -512248 -509038 -508773 -512281 
3931.065 -520058 -531476 -545242 -558578 -568506 -572907 -570656 -562450 
3934.923 -549941 -535612 -521713 -509501 -499274 -490471 -482461 -474849 
3938.780 -467501 -461510 -457770 -457207 -460252 -466674 -475411 -485043 
3942.638 -494045 -500863 -504702 -504834 -501426 -495170 -487095 -478986 
3946.495 -472300 -468064 -466773 -468229 -471440 -474948 -477430 -478159 
3950.353 -476868 -474088 -470347 -466045 -462040 -458597 -456082 -454692 
3954.210 -454460 -455718 -458101 -460881 -463000 -463463 -461080 -455354 
3958.067 -446318 -434666 -421624 -408747 -397525 -389614 -385740 -386469 
3961.925 -390871 -397691 -404808 -410005 -411495 -408350 -400637 -389911 
3965.782 -377961 -366903 -357965 -351608 -347403 -344258 -341245 -337902 
3969.640 -334226 -330320 -327340 -325320 -324228 -323830 -323466 -322307 
3973.497 -320089 -316116 -310421 -302805 -293600 -282806 -271216 -259461 
3977.354 -248434 -238433 -230021 -222967 -217073 -212171 -208694 -206972 
3981.212 -208065 -211840 -218563 -227173 -236380 -244824 -251480 -255984 
3985.069 -258732 -260587 -262077 -263700 -265289 -266448 -266812 -266183 
3988.927 -264792 -263070 -261680 -260587 -259825 -258898 -257805 -256249 
3992.784 -254891 -253798 -254030 -255255 -257242 -259494 -261282 -262044 
3996.642 -261580 -260024 -257540 -254659 -251845 -249328 -247242 -246116 
4000.499 -246116 
##END=
