
##TITLE=Z413_3_b
##JCAMP-DX=5.01  $$ Nicolet v. 1
##DATATYPE=INFRARED SPECTRUM
##ORIGIN=UniL
##OWNER=Nicolet
##LONGDATE=2011/09/21
##TIME=15:33:20
##SPECTROMETER/DATA SYSTEM=Nicolet iS5
##DATA PROCESSING=
Ratio against background
%Transmittance->Absorbance
Truncated
ElementMultiply or ElementDivide
##COMMENTS=
Number of sample scans: 32
Collection length: 51.20 sec
Sample gain: 2.0
Background collected on: Mer Sep 21 15:28:47 2011 (GMT+02:00);
Number of background scans: 32
Background gain: 2.0
Sample spacing:  1.000
Number of scan points: 12415
Resolution points: 8192
Number of FFT points: 65536
Apodization: N-B fort;
Phase correction: Mertz;
Laser frequency: 15798.0 cm-1
Number of rejected sample scans: 0
Number of rejected background scans: 0
Bench serial number: ASB1000141;
##RESOLUTION=4.000
##XUNITS=1/CM
##YUNITS=ABSORBANCE
##FIRSTX=649.893372
##LASTX=4000.122314
##FIRSTY=0.117376
##MAXX=4000.122314
##MINX=649.893372
##MAXY=0.263000
##MINY=-0.001530
##XFACTOR=1.000000
##YFACTOR=1.000000E-009
##NPOINTS=6950
##DELTAX=0.482117
##ZPD=6100
##XYDATA=(X++(Y..Y))
649.893 117375528 116829008 116370616 116007608 115721672 115483984 
652.786 115273648 115093256 114966776 114928872 115004856 115197096 
655.679 115481952 115822936 116186432 116554920 116934296 117341584 
658.571 117792216 118289312 118819032 119360304 119900600 120441824 
661.464 121002976 121608488 122276176 123004400 123774248 124554600 
664.357 125316320 126039744 126705632 127289784 127748656 128013880 
667.250 128018496 127739128 127238304 126637328 126059280 125563648 
670.142 125138384 124726560 124256536 123674640 122957824 122121384 
673.035 121206824 120266256 119335848 118425776 117525560 116617112 
675.928 115691392 114755480 113827688 112926288 112059560 111220296 
678.820 110393224 109564888 108734968 107916744 107132320 106398544 
681.713 105718416 105079144 104458136 103833848 103196416 102550024 
684.606 101909408 101289352 100696088 100124944 99564816 99005944 98448616 
687.981 97904672 97393040 96931800 96529096 96180232 95870224 95582952 
691.355 95306968 95040768 94791088 94568584 94382256 94235528 94127808 
694.730 94058688 94029424 94045968 94115304 94241456 94422240 94648792 
698.105 94909320 95193136 95496456 95822304 96178448 96571768 97003544 
701.480 97467192 97951672 98444920 98938152 99429200 99918256 100404096 
704.855 100881048 101337056 101757256 102131480 102456928 102741016 
707.747 102996816 103238232 103473472 103704376 103930144 104153544 
710.640 104386120 104650184 104971752 105371760 105857240 106415944 
713.533 107017544 107619856 108182752 108674360 109076224 109383008 
716.425 109597592 109727208 109781344 109775672 109735232 109694112 
719.318 109697736 109791928 110010720 110367168 110841680 111381400 
722.211 111899536 112293712 112462936 112321392 111824992 110979752 
725.104 109847992 108532424 107159160 105853520 104704488 103759960 
727.996 103022408 102461536 102031600 101689328 101407976 101175528 
730.889 100991200 100855632 100763824 100703520 100659616 100619256 
733.782 100576904 100535048 100500976 100480928 100476504 100484440 
736.674 100499888 100520520 100548584 100590312 100651672 100733856 
739.567 100831184 100932208 101025152 101103168 101167376 101225808 
742.460 101288136 101361576 101446096 101536768 101626232 101711568 
745.352 101795504 101886360 101992032 102114792 102248320 102378648 
748.245 102490192 102570208 102616280 102634624 102637176 102635504 
751.138 102636800 102642344 102651160 102661984 102677088 102700976 
754.031 102738288 102789000 102847824 102905184 102952216 102985272 
756.923 103008920 103033952 103072728 103133856 103217768 103317160 
759.816 103420832 103518632 103606496 103686240 103763576 103844664 
762.709 103932464 104026880 104128072 104240096 104374280 104552128 
765.601 104801872 105152040 105627808 106240424 106980496 107810080 
768.494 108661128 109441232 110036504 110340216 110274296 109809720 
771.387 108982992 107892184 106682904 105500128 104465640 103647712 
774.279 103050288 102624760 102290000 101966264 101587168 101113040 
777.172 100528456 99827256 99002328 98039904 96919080 95620904 94135960 
780.547 92469184 90640144 88679352 86626168 84522128 82410336 80335552 
783.922 78337776 76450672 74699296 73095024 71638520 70322552 69137192 
787.297 68072720 67123096 66285104 65557032 64936176 64419032 64000784 
790.671 63677700 63448632 63315280 63281164 63350476 63526288 63809888 
794.046 64200716 64697748 65300324 66007248 66816492 67725128 68728976 
797.421 69825648 71018352 72321168 73761832 75378976 77219496 79324160 
800.796 81711896 84362120 87197672 90085816 92823536 95169328 96881728 
804.171 97738696 97603976 96453704 94392512 91630640 88445696 85132752 
807.546 81917912 78936256 76212440 73681104 71226888 68733592 66134332 
810.920 63424548 60663516 57944012 55372088 53033256 50975740 49214912 
814.295 47735896 46508588 45495776 44661768 43975412 43407256 42932376 
817.670 42529304 42181260 41877940 41614684 41390876 41206892 41061920 
821.045 40953728 40878476 40833192 40816484 40828712 40871376 40945536 
824.420 41051208 41187292 41353048 41548940 41776440 42037716 42333368 
827.794 42662304 43021416 43408356 43824744 44278588 44786936 45376212 
831.169 46077940 46927332 47959408 49199472 50657576 52316172 54123832 
834.544 55981188 57741716 59235360 60271332 60684856 60376064 59325980 
837.919 57612416 55386732 52857184 50235184 47701724 45398356 43404256 
841.294 41747040 40415296 39374052 38577276 37976284 37529264 37199104 
844.669 36955188 36776284 36647168 36559356 36509688 36496136 36516176 
848.043 36565808 36638804 36729084 36832436 36947256 37074512 37216068 
851.418 37373380 37546280 37734032 37936004 38152972 38388580 38647532 
854.793 38934544 39253556 39606260 39993804 40417912 40882588 41394228 
858.168 41962236 42597280 43310308 44114688 45026032 46062764 47247576 
861.543 48600916 50133796 51838548 53680060 55593092 57478728 59223780 
864.917 60712900 61844200 62554776 62827556 62698380 62247104 61593076 
868.292 60877700 60234864 59788492 59633988 59828156 60396852 61333700 
871.667 62608512 64166568 65934664 67824128 69722232 71504312 73042680 
875.042 74209904 74907912 75079256 74715976 73861344 72600904 71051912 
878.417 69334376 67564296 65839260 64222844 62748992 61420792 60218764 
881.792 59110136 58061288 57049992 56069740 55133444 54267000 53504588 
885.166 52876832 52404124 52094476 51943204 51937608 52060556 52296772 
888.541 52634132 53063392 53578464 54174840 54849400 55602396 56437884 
891.916 57364820 58394932 59542200 60820028 62238844 63805320 65521048 
895.291 67379568 69360456 71423616 73505448 75509104 77315856 78798024 
898.666 79828144 80312232 80202224 79504968 78280232 76631912 74696192 
902.040 72610024 70508848 68510312 66697716 65127992 63828656 62803284 
905.415 62040388 61520340 61223548 61132568 61235372 61524504 61996052 
908.790 62647784 63478848 64490288 65684096 67062424 68623840 70359832 
912.165 72248576 74250632 76313512 78372896 80361464 82225432 83928568 
915.540 85460800 86838288 88100704 89303384 90503040 91751608 93078568 
918.914 94480064 95908328 97270952 98442680 99271504 99619032 99390120 
922.289 98556992 97180680 95410928 93481864 91659976 90224912 89430008 
925.664 89442552 90332072 92040736 94396504 97113088 99832384 102204128 
929.039 103902232 104701080 104506064 103342512 101335792 98659240 95507768 
932.414 92052040 88426240 84741040 81081536 77522440 74139512 71002000 
935.789 68173688 65708220 63640364 61989668 60760992 59948532 59537340 
939.163 59502152 59806820 60394760 61187952 62094704 63005416 63811884 
942.538 64424144 64773208 64827064 64591512 64107880 63442452 62673920 
945.913 61886304 61148360 60511940 60007872 59645924 59421028 59318308 
949.288 59320096 59408264 59565804 59777996 60029828 60306540 60595628 
952.663 60887192 61176852 61465260 61757444 62060416 62379780 62719740 
956.037 63081428 63465192 63871488 64301716 64758016 65241644 65751784 
959.412 66285104 66836236 67400384 67974056 68556632 69149280 69753936 
962.787 70371368 71000984 71641136 72291080 72951664 73626416 74319712 
966.162 75035184 75774400 76536024 77317512 78116992 78935424 79776544 
969.537 80646424 81550752 82493304 83475208 84495888 85555608 86656984 
972.912 87805456 89008376 90272312 91601176 92995360 94453336 95973744 
976.286 97557184 99206928 100927488 102722544 104593104 106537712 108553608 
979.661 110640712 112802720 115048000 117386040 119824576 122365328 
982.554 125003336 127725976 130513672 133341712 136174288 138959024 
985.447 141627920 144088192 146229248 147943520 149130048 149718480 
988.339 149681568 149037584 147850464 146217920 144272128 142157952 
991.232 140019808 138000752 136215728 134748848 133652616 132943648 
994.125 132613200 132634904 132978024 133612368 134512000 135656912 
997.017 137027920 138604128 140364224 142284144 144340032 146509312 
999.910 148765360 151072912 153385184 155636112 157747392 159638592 
1002.803 161232544 162473376 163333856 163817584 163958096 163815888 
1005.695 163477040 163038464 162607504 162294624 162191984 162375520 
1008.588 162894944 163770864 165003088 166575360 168466800 170653712 
1011.481 173113376 175823616 178756096 181878576 185157840 188560080 
1014.374 192058704 195631696 199252192 202878416 206440912 209829472 
1017.266 212908496 215525472 217534192 218834496 219385168 219224272 
1020.159 218461328 217279008 215913408 214608880 213619808 213166048 
1023.052 213402416 214422496 216242688 218815968 222040336 225786128 
1025.945 229916304 234284368 238753376 243189360 247448960 251395376 
1028.838 254897744 257841504 260149392 261779632 262724720 262999536 
1031.731 262631184 261650624 260089904 257987680 255390288 252347104 
1034.624 248909504 245120944 241014384 236618720 231966624 227104336 
1037.517 222101456 217044992 212030896 207159248 202515296 198167968 
1040.410 194171200 190557056 187337808 184499856 182000000 179760096 
1043.303 177668624 175604128 173442448 171086704 168490592 165662240 
1046.196 162666288 159602528 156598896 153782992 151263984 149133376 
1049.089 147450688 146244096 145514432 145237376 145369776 145853536 
1051.982 146628880 147637872 148826784 150150976 151565888 153020704 
1054.875 154456544 155798784 156960912 157859520 158414128 158561520 
1057.768 158263936 157507856 156309504 154712464 152793888 150657568 
1060.661 148423824 146231472 144211200 142475744 141117904 140195760 
1063.554 139738736 139748640 140204592 141063248 142257744 143705184 
1066.448 145299824 146920160 148449088 149772560 150798160 151465392 
1069.341 151739920 151613168 151093664 150201392 148962672 147406864 
1072.234 145568160 143481744 141183104 138710976 136105472 133412944 
1075.127 130693200 128015040 125458808 123113752 121060728 119372176 
1078.020 118103144 117283192 116917912 116984656 117436408 118194872 
1080.913 119154760 120196120 121179496 121971472 122467576 122599600 
1083.806 122357896 121789152 120994312 120104752 119264104 118618136 
1086.699 118286232 118358624 118892480 119903824 121370936 123232728 
1089.592 125401048 127759728 130176976 132529512 134699904 136592400 
1092.485 138140176 139295248 140029904 140332416 140204128 139660160 
1095.378 138727936 137449760 135878288 134073672 132106320 130047720 
1098.271 127969656 125941960 124017304 122227568 120575152 119031928 
1101.164 117542584 116036520 114449880 112736000 110881960 108911496 
1104.057 106883528 104880328 102989096 101299560 99886808 98804728 98089696 
1107.433 97756672 97801656 98204376 98931824 99941152 101179120 102590056 
1110.808 104113496 105682032 107227104 108672400 109935432 110939712 
1113.701 111614832 111908368 111794984 111274784 110373360 109132456 
1116.594 107607464 105857832 103940536 101912888 99824544 97715128 95615784 
1119.969 93545192 91512120 89519344 87567448 85659920 83806024 82020552 
1123.344 80322472 78732128 77266440 75938856 74758528 73731128 72861136 
1126.720 72154008 71615776 71253200 71071808 71072944 71252424 71597728 
1130.095 72088984 72694864 73375568 74084256 74765848 75367312 75843136 
1133.470 76161456 76313432 76314648 76205496 76040176 75882392 75794088 
1136.845 75821312 75993128 76314304 76766280 77308328 77882048 78422784 
1140.221 78859608 79127912 79177736 78971864 78491376 77732896 76705832 
1143.596 75429072 73929224 72241880 70406944 68469688 66479684 64483180 
1146.971 62524392 60642640 58867908 57224296 55728724 54391740 53218908 
1150.346 52211604 51367264 50679804 50140340 49738288 49461984 49300532 
1153.722 49245120 49288692 49426524 49655480 49972724 50375848 50862668 
1157.097 51431264 52080244 52808464 53614600 54496568 55450572 56471052 
1160.472 57551088 58681492 59850248 61042524 62236932 63405916 64517544 
1163.847 65533528 66415124 67126768 67635336 67914968 67947280 67720680 
1167.223 67232472 66489368 65508328 64314200 62939116 61420600 59795340 
1170.598 58099808 56368764 54631708 52915868 51245516 49640400 48118252 
1173.973 46693580 45376876 44176380 43097224 42141864 41310992 40604000 
1177.348 40019748 39556316 39212352 38986372 38877360 38885476 39012036 
1180.724 39259972 39633340 40136168 40772368 41544016 42451292 43491996 
1184.099 44660816 45946984 47331964 48788616 50275096 51737156 53113828 
1187.474 54336200 55339456 56071508 56494600 56593144 56374200 55867524 
1190.849 55119676 54188692 53141240 52039416 50940044 49892580 48933600 
1194.225 48091196 47385544 46828636 46427056 46181368 46086380 46129452 
1197.600 46289912 46540896 46846348 47164652 47452508 47663412 47754352 
1200.975 47689780 47442160 46998548 46361616 45551300 44600556 43552176 
1204.350 42454688 41352028 40282400 39275024 38346956 37507012 36756956 
1207.726 36094344 35515044 35014804 34589336 34234796 33947684 33725212 
1211.101 33565460 33468142 33434178 33465530 33564028 33730012 33961944 
1214.476 34256488 34608244 35009992 35453600 35928936 36423744 36925356 
1217.851 37419932 37894172 38338200 38744280 39107816 39427132 39702168 
1221.227 39934192 40126248 40283708 40414860 40530260 40643476 40768220 
1224.602 40916408 41097248 41315436 41571180 41860864 42177504 42512604 
1227.977 42856268 43199468 43535032 43858872 44171688 44479696 44794360 
1231.352 45130020 45503648 45932768 46433032 47020260 47709044 48513616 
1234.728 49448916 50528988 51766200 53170560 54748132 56501128 58427452 
1238.103 60520700 62769556 65155588 67654384 70234392 72858240 75489432 
1241.478 78092632 80637208 83099312 85458128 87693456 89785400 91710232 
1244.853 93441960 94953272 96213640 97190920 97853208 98168112 98109088 
1248.229 97659528 96815384 95585848 93991784 92062240 89829320 87327904 
1251.604 84598216 81684144 78638520 75523656 72402072 69340048 66400336 
1254.979 63633384 61081420 58772908 56721424 54926812 53375532 52042476 
1258.354 50891312 49878048 48956480 48077428 47198116 46285564 45317252 
1261.729 44285596 43195080 42060932 40904140 39749084 38620516 37538984 
1265.105 36521832 35581536 34725384 33956176 33273100 32672006 32146196 
1268.480 31688136 31290908 30948836 30657948 30416118 30221558 30072816 
1271.855 29968146 29905988 29885224 29906380 29971270 30082190 30241060 
1275.230 30447782 30698984 30986802 31298350 31616822 31920512 32184518 
1278.606 32385244 32500320 32514318 32421198 32225094 31939772 31584394 
1281.981 31181958 30753680 30316658 29884584 29467158 29072416 28708618 
1285.356 28384136 28108004 27888576 27732580 27644504 27627836 27685148 
1288.731 27819508 28034838 28334408 28720266 29191366 29743304 30366440 
1292.107 31046376 31764452 32495574 33210184 33876752 34462408 34940036 
1295.482 35293064 35517920 35626312 35642748 35602108 35541044 35495556 
1298.857 35497172 35568732 35725804 35975904 36317168 36738276 37217188 
1302.232 37724852 38224136 38675932 39046836 39309592 39449156 39462800 
1305.608 39360124 39159628 38886276 38569092 38236908 37915648 37627644 
1308.983 37387932 37204736 37080180 37011760 36994408 37022876 37093532 
1312.358 37203612 37350880 37532916 37745816 37984820 38245628 38524988 
1315.733 38821560 39135768 39468568 39820728 40191924 40581008 40986500 
1319.109 41407860 41845100 42298012 42764592 43238928 43710256 44162220 
1322.484 44572872 44919496 45178988 45333140 45373344 45303976 45144904 
1325.859 44928532 44700404 44510828 44404380 44417924 44570488 44862872 
1329.234 45278820 45790920 46368580 46981492 47607620 48232352 48848456 
1332.610 49454336 50051800 50645064 51239064 51839328 52450148 53072268 
1335.985 53701920 54329140 54939412 55513336 56029552 56468112 56809972 
1339.360 57040660 57151196 57138532 57006696 56765640 56431436 56023256 
1342.735 55562252 55072092 54574560 54090092 53636904 53227896 52871740 
1346.111 52572044 52328164 52134148 51979244 51848028 51720320 51573400 
1349.486 51387032 51145120 50841324 50480528 50080876 49671976 49290400 
1352.861 48979512 48780684 48728376 48847532 49145744 49612056 50214500 
1356.236 50906512 51629780 52320692 52923352 53390184 53687408 53799492 
1359.612 53727792 53491732 53125772 52681408 52221952 51812412 51517024 
1362.987 51382968 51430296 51649224 52000868 52426332 52850524 53197824 
1366.362 53397636 53389020 53136032 52631400 51901312 50998280 49993728 
1369.737 48964156 47972360 47066892 46276568 45612680 45076860 44666984 
1373.113 44382104 44223884 44193804 44289448 44499300 44803432 45177884 
1376.488 45597076 46041396 46499000 46965212 47443120 47941460 48475160 
1379.863 49063308 49729040 50496420 51381696 52385920 53483224 54619612 
1383.238 55707176 56635192 57291132 57563120 57365540 56657392 55459084 
1386.614 53864676 52026716 50138628 48374852 46855908 45640396 44726072 
1389.989 44074052 43627016 43327880 43123312 42964932 42813188 42633392 
1393.364 42398976 42096704 41728072 41309532 40864460 40415296 39975312 
1396.739 39547244 39128048 38716824 38320284 37957876 37656876 37444272 
1400.115 37339508 37347920 37462908 37669668 37952996 38299328 38698892 
1403.490 39145740 39635660 40164228 40726040 41314308 41921620 42542532 
1406.865 43173596 43814628 44467916 45136084 45821368 46523968 47241816 
1410.240 47971728 48710360 49455152 50203564 50952192 51694308 52420348 
1413.615 53119256 53780664 54400040 54980396 55532728 56073768 56623604 
1416.991 57203316 57831228 58522112 59283100 60107408 60973580 61845844 
1420.366 62683224 63444948 64099468 64628996 65029180 65313884 65513260 
1423.741 65672108 65837100 66044516 66312128 66636296 66998744 67376280 
1427.116 67750728 68111632 68457200 68792640 69128648 69480824 69868032 
1430.492 70314952 70848064 71488928 72250256 73130200 74113888 75176000 
1433.867 76291464 77442240 78618464 79820816 81055784 82330952 83645584 
1437.242 84991456 86355728 87721552 89069224 90372096 91597088 92697472 
1440.617 93616176 94297480 94684976 94731416 94403544 93681040 92562344 
1443.993 91068960 89250840 87183736 84956272 82670272 80420720 78289720 
1447.368 76347168 74639408 73185600 71974736 70972584 70133408 69415696 
1450.743 68798384 68285424 67903544 67685712 67655040 67806152 68101712 
1454.118 68468528 68807784 69014240 68984416 68659304 68057992 67296536 
1457.494 66544212 65950556 65606476 65534180 65719828 66139264 66768848 
1460.869 67584192 68552128 69629184 70753328 71842112 72809448 73569376 
1464.244 74061976 74272688 74236640 74023936 73707760 73350376 72989688 
1467.619 72642216 72311776 71990736 71659352 71279712 70793768 70127024 
1470.995 69200608 67964328 66427476 64677984 62856392 61109228 59540076 
1474.370 58189772 57056340 56122032 55374348 54812296 54438800 54247028 
1477.745 54211776 54288852 54426708 54573128 54689424 54755872 54771436 
1481.120 54750724 54717764 54701340 54729944 54832900 55044636 55402052 
1484.496 55943872 56704020 57700352 58924564 60332012 61845764 63349368 
1487.871 64695404 65727188 66280128 66216408 65461480 64023396 62004420 
1491.246 59566904 56897024 54149128 51421196 48768228 46206172 43739280 
1494.621 41386248 39186028 37202136 35509580 34169156 33209324 32620746 
1497.997 32370682 32416236 32717340 33241410 33957932 34833720 35833708 
1501.372 36916048 38036896 39155132 40221800 41180624 41962488 42467624 
1504.747 42572024 42142268 41078124 39384176 37211848 34824816 32475788 
1508.122 30318150 28390646 26661972 25083988 23622990 22266594 21023400 
1511.498 19909586 18935346 18101304 17396070 16802520 16303308 15883949 
1514.873 15533499 15241119 14996435 14790764 14619251 14483638 14389474 
1518.248 14341527 14338205 14368753 14414512 14456439 14484015 14504022 
1521.623 14539345 14618669 14760152 14961933 15207283 15473648 15744265 
1524.999 16012678 16285488 16577231 16903686 17272688 17681278 18118784 
1528.374 18574128 19041130 19520314 20017446 20539464 21090352 21670674 
1531.749 22277756 22908878 23563728 24244826 24954962 25690974 26443518 
1535.124 27197264 27936382 28644092 29306730 29915536 30462284 30942218 
1538.500 31351912 31689346 31951968 32137814 32250360 32299184 32298826 
1541.875 32264278 32203898 32116692 31993374 31824238 31605274 31345394 
1545.250 31065736 30792804 30547238 30334672 30145864 29961684 29764594 
1548.625 29546030 29313928 29089458 28899988 28764658 28687804 28659416 
1552.000 28663700 28687946 28728796 28793442 28894570 29041136 29231024 
1555.376 29448720 29666738 29854556 29978620 30007946 29923134 29729076 
1558.751 29468754 29210856 29023706 28938946 28949286 29026186 29137044 
1562.126 29253918 29354162 29423544 29456912 29459996 29447974 29439536 
1565.501 29451132 29487620 29542056 29597424 29634670 29638004 29602426 
1568.877 29535390 29457160 29392380 29359516 29366782 29410496 29481274 
1572.252 29566530 29653258 29728864 29777192 29781166 29725776 29605406 
1575.627 29431274 29233610 29052294 28917128 28836320 28796486 28772410 
1579.002 28737114 28669398 28559084 28405750 28217178 28002924 27771362 
1582.378 27526084 27267220 26994584 26710664 26421088 26133004 25851478 
1585.753 25577128 25305796 25032140 24753010 24470378 24191294 23924886 
1589.128 23679322 23457886 23259286 23079644 22916108 22767790 22636136 
1592.503 22521446 22420640 22325332 22225094 22109606 21973758 21819596 
1595.879 21655522 21492210 21338354 21198262 21072300 20959832 20862480 
1599.254 20786180 20739916 20733140 20771860 20856710 20983338 21145938 
1602.629 21338668 21556972 21796182 22048248 22298090 22525738 22705710 
1606.004 22813428 22830924 22749422 22572156 22310822 21983310 21607672 
1609.380 21199166 20772102 20340318 19919266 19526000 19174088 18870318 
1612.755 18611754 18386388 18176066 17961250 17726524 17463982 17176952 
1616.130 16880226 16597161 16351955 16161287 16031552 15958913 15933650 
1619.505 15941348 15966235 15993290 16008861 16005836 15985932 15961491 
1622.881 15950939 15971666 16033683 16135117 16265433 16411342 16562497 
1626.256 16713843 16864586 17015624 17166784 17315548 17458222 17592526 
1629.631 17719654 17844130 17971646 18105416 18243338 18376848 18492558 
1633.006 18574818 18608988 18585852 18505004 18378612 18227582 18077124 
1636.382 17946850 17844372 17766354 17701986 17639590 17566958 17474400 
1639.757 17356894 17214424 17053290 16883980 16718285 16564425 16423833 
1643.132 16290167 16150592 15989782 15792642 15551632 15269500 14962825 
1646.507 14657805 14383412 14162454 14005220 13909517 13863948 13852967 
1649.883 13857482 13853378 13812295 13699879 13485216 13160090 12762521 
1653.258 12375271 12079488 11911529 11853333 11861743 11892765 11915854 
1656.633 11915412 11886942 11834878 11766511 11688966 11605172 11513706 
1660.008 11410353 11291075 11154287 11001841 10839699 10676123 10519840 
1663.384 10377797 10254256 10150524 10065263 9994023 9929573 9862388 9781183 
1667.241 9674786 9536440 9365737 9171275 8968648 8776696 8610449 8476834 
1671.098 8374572 8296144 8231102 8167420 8093924 8000022 7878741 7729363 
1674.956 7560953 7391563 7240433 7121553 7037289 6979641 6935063 6890489 
1678.813 6838145 6777326 6713857 6656117 6609857 6572919 6534101 6474131 
1682.671 6373854 6221967 6027094 5819514 5640430 5519940 5462090 5450716 
1686.528 5461620 5475310 5478733 5467090 5441489 5405925 5365333 5323470 
1690.385 5284193 5250789 5226441 5212860 5208567 5207629 5199480 5171179 
1694.243 5111967 5019378 4904422 4791507 4707191 4665324 4661171 4674300 
1698.100 4678454 4648110 4567840 4439346 4287968 4153201 4066567 4037671 
1701.958 4052520 4087906 4121589 4138281 4130621 4098375 4046902 3985703 
1705.815 3924781 3871622 3829268 3796978 3772211 3751121 3730668 3708745 
1709.673 3685019 3660291 3636434 3615184 3597276 3582342 3568210 3552376 
1713.530 3532500 3507346 3476817 3441314 3400371 3353020 3298029 3236502 
1717.387 3173548 3118980 3083840 3075197 3093751 3133164 3183828 3234866 
1721.245 3277630 3307845 3325373 3334222 3339931 3347811 3361067 3380001 
1725.102 3403343 3429392 3456978 3484900 3511923 3535239 3551641 3557854 
1728.960 3552843 3538345 3518670 3497626 3476049 3449631 3408419 3339363 
1732.817 3232763 3089413 2926628 2774042 2661679 2603708 2594875 2617342 
1736.675 2649878 2676148 2685049 2673681 2645210 2607942 2571176 2541713 
1740.532 2522349 2511985 2508019 2508252 2511419 2517384 2525816 2535981 
1744.389 2546879 2557211 2566077 2573609 2579942 2584276 2585609 2581776 
1748.247 2570310 2549345 2518417 2478527 2432243 2383232 2335925 2294619 
1752.104 2262843 2242526 2233733 2233900 2238629 2241926 2237830 2222177 
1755.962 2194335 2158338 2121643 2092077 2074265 2067773 2067207 2064944 
1759.819 2053591 2028457 1989810 1942779 1895487 1855821 1829167 1817122 
1763.677 1817655 1826938 1840580 1854290 1863640 1864872 1855621 1836055 
1767.534 1809203 1781355 1758832 1745625 1741366 1740867 1736077 1718878 
1771.391 1685481 1638783 1588630 1547429 1523887 1520030 1531668 1550821 
1775.249 1570374 1586402 1598507 1608784 1619293 1630368 1639714 1643905 
1779.106 1640046 1627874 1610480 1593286 1581314 1576359 1576725 1577690 
1782.964 1574530 1564621 1548759 1530670 1515608 1507594 1507727 1514577 
1786.821 1524951 1536655 1547994 1558868 1568644 1575694 1576925 1568412 
1790.678 1547396 1514344 1474380 1436048 1407659 1394761 1397055 1410252 
1794.536 1428003 1444791 1457790 1466367 1471321 1473283 1471820 1465503 
1798.393 1453169 1434319 1410318 1384822 1362153 1345834 1337558 1336827 
1802.251 1342011 1351152 1362619 1375848 1390440 1405498 1419925 1432258 
1806.108 1441267 1447085 1450210 1451773 1452338 1451440 1447816 1440170 
1809.966 1428402 1414108 1400512 1391304 1388811 1393099 1401243 1409454 
1813.823 1413908 1412911 1406794 1398418 1391537 1389409 1393498 1404035 
1817.680 1419958 1439638 1462345 1487512 1514577 1542840 1570374 1595115 
1821.538 1614970 1628805 1636122 1637452 1634326 1628838 1623949 1623118 
1825.395 1629437 1645301 1670546 1702545 1736476 1765885 1784682 1790106 
1829.253 1783052 1769578 1757634 1755073 1765552 1788143 1817754 1848666 
1833.110 1876652 1899847 1919549 1938353 1959055 1983153 2010548 2040441 
1836.968 2072268 2107027 2146616 2193203 2247722 2309275 2374702 2440040 
1840.825 2501421 2556211 2603275 2642944 2676281 2706054 2735562 2769040 
1844.682 2810858 2863819 2928163 3000656 3075464 3145045 3201485 3239840 
1848.540 3257766 3256898 3240641 3213168 3177086 3132663 3079101 3015570 
1852.397 2943074 2864920 2785513 2708921 2636976 2568677 2501487 2433042 
1856.255 2362542 2291888 2224874 2164964 2113719 2069937 2030454 1991608 
1860.112 1951799 1911328 1873091 1840314 1815126 1797192 1785414 1777729 
1863.969 1772872 1771009 1772439 1776465 1780490 1780124 1770276 1748353 
1867.827 1715718 1678529 1645900 1626444 1624282 1638350 1662763 1689639 
1871.684 1713423 1730754 1741499 1746989 1748652 1746889 1741300 1731087 
1875.542 1716816 1699951 1683286 1668750 1656676 1645435 1632164 1614837 
1879.399 1593519 1569941 1548127 1531169 1520595 1514544 1510055 1503339 
1883.257 1492865 1479200 1464871 1452903 1444691 1439040 1433654 1425477 
1887.114 1413210 1397553 1381399 1367837 1359494 1357001 1359395 1365311 
1890.971 1373853 1385022 1399215 1415803 1432990 1447384 1456061 1457790 
1894.829 1454399 1449778 1449013 1455662 1469459 1487280 1503505 1513945 
1898.686 1516239 1511817 1504137 1496789 1491835 1488776 1485451 1479633 
1902.544 1470490 1458987 1447550 1438109 1431194 1425144 1417664 1407027 
1906.401 1393731 1380401 1370961 1368402 1373188 1383360 1394861 1403969 
1910.259 1408889 1410384 1410551 1411814 1414806 1418961 1422418 1423947 
1914.116 1423249 1421221 1418961 1415770 1409952 1398750 1380235 1355805 
1917.973 1330412 1310837 1303226 1309408 1325393 1344504 1357932 1360192 
1921.831 1350487 1333370 1316221 1305752 1305287 1313196 1324895 1335730 
1925.688 1342709 1346665 1350487 1356569 1366075 1377476 1387581 1394396 
1929.546 1397720 1399348 1401974 1406695 1411415 1411847 1402340 1380268 
1933.403 1346931 1307812 1270592 1242479 1227294 1224636 1231680 1245437 
1937.260 1264245 1288072 1317484 1350487 1382030 1405199 1412878 1401875 
1941.118 1374884 1340649 1310870 1295117 1297776 1316221 1343341 1370928 
1944.975 1393830 1411282 1425443 1439273 1454997 1471786 1487679 1501277 
1948.833 1513646 1527079 1544702 1567115 1590859 1609881 1617331 1608983 
1952.690 1585338 1552384 1517370 1486515 1462411 1442231 1420723 1393398 
1956.548 1359228 1321738 1286909 1259759 1242080 1230650 1220084 1204135 
1960.405 1180811 1152272 1123071 1098456 1080751 1068826 1060788 1053946 
1964.262 1047635 1043550 1043018 1045941 1049263 1047868 1037671 1018175 
1968.120 994230 973508 963545 967796 984168 1005621 1023888 1033220 1033553 
1972.459 1029036 1025249 1026877 1035545 1049462 1068527 1095566 1136724 
1976.317 1200945 1291694 1405099 1528708 1643539 1733449 1789507 1813995 
1980.174 1815625 1808205 1801684 1800453 1802150 1801318 1792634 1775167 
1984.032 1751280 1725332 1701281 1680957 1662530 1645102 1628572 1615868 
1987.889 1611112 1616699 1631466 1649293 1662331 1664193 1654082 1637120 
1991.747 1623816 1624182 1642973 1677531 1718712 1755206 1778261 1785015 
1995.604 1778993 1766750 1754075 1743662 1733582 1719743 1699452 1672974 
1999.461 1643639 1616998 1597077 1583775 1573799 1562160 1545101 1523521 
2003.319 1501410 1485817 1482725 1495991 1525350 1568279 1621920 1683851 
2007.176 1751846 1823045 1891860 1950035 1990542 2008051 2003324 1982387 
2011.034 1954561 1928668 1910763 1900512 1894422 1887933 1879547 1870595 
2014.891 1865637 1867634 1876851 1888965 1897517 1896652 1886402 1871394 
2018.749 1860246 1860446 1875487 1901511 1931397 1956192 1971903 1979924 
2022.606 1986947 1999330 2021300 2050994 2081656 2105395 2117981 2119979 
2026.463 2118980 2124341 2144086 2181181 2233833 2295318 2359378 2421780 
2030.321 2481093 2537280 2591775 2642977 2689917 2730994 2766039 2797351 
2034.178 2827766 2860117 2895006 2930698 2964791 2995685 3024945 3055376 
2038.036 3090414 3132196 3179155 3226254 3267515 3297828 3314889 3320565 
2041.893 3318095 3311384 3301601 3288413 3269651 3245314 3218609 3195277 
2045.750 3183828 3191906 3223583 3278097 3350716 3433433 3517000 3592599 
2049.608 3652506 3690933 3704701 3694208 3663967 3622701 3581373 3551607 
2053.465 3541820 3554480 3585015 3624873 3663299 3691936 3708010 3713724 
2057.323 3715061 3718202 3726925 3742131 3761983 3784544 3807741 3832310 
2061.180 3858618 3887335 3916823 3943939 3964436 3975839 3977544 3971357 
2065.038 3960524 3948487 3936416 3924747 3912343 3898669 3884694 3872391 
2068.895 3863031 3857715 3854640 3850996 3844143 3833011 3818939 3805401 
2072.752 3796376 3793936 3797680 3804632 3811050 3814326 3814861 3815329 
2076.610 3819774 3832076 3852300 3878375 3905623 3929595 3946781 3956043 
2080.467 3958584 3957113 3954438 3953402 3956645 3966141 3983563 4009412 
2084.325 4042320 4078909 4113427 4140790 4156177 4158352 4148785 4131256 
2088.182 4109714 4086836 4062654 4036233 4006068 3972996 3939993 3911841 
2092.040 3893921 3888906 3896763 3914182 3936884 3960725 3984432 4008442 
2095.897 4034427 4063591 4094830 4124834 4149721 4166682 4175246 4178023 
2099.754 4178826 4181435 4188494 4200003 4214857 4232055 4251695 4274516 
2103.612 4302792 4337128 4377322 4420936 4465257 4507606 4547348 4584851 
2107.469 4621720 4658994 4696909 4733553 4767386 4796599 4820989 4841595 
2111.327 4860224 4878251 4895877 4911928 4924529 4932203 4934213 4930829 
2115.184 4923255 4912398 4898859 4882976 4865250 4846319 4828025 4812714 
2119.042 4802529 4798542 4800686 4807956 4819414 4834559 4854260 4879491 
2122.899 4911225 4948389 4988273 5027188 5061412 5088835 5108983 5123366 
2126.756 5134363 5143483 5151162 5156794 5159410 5159041 5156493 5154179 
2130.614 5154917 5160483 5171481 5187140 5206287 5228353 5254008 5284059 
2134.471 5320115 5361173 5405422 5448803 5487692 5519605 5543129 5559775 
2138.329 5570918 5578335 5583268 5586054 5586658 5585752 5583973 5581490 
2142.186 5578771 5574441 5567629 5556520 5541686 5523329 5503396 5481988 
2146.043 5457762 5427599 5387373 5335445 5273259 5206254 5142343 5088835 
2149.901 5048138 5016964 4987401 4948959 4893095 4816835 4722097 4614755 
2153.758 4501044 4385389 4268861 4153201 4042955 3949657 3890277 3885195 
2157.616 3948720 4082488 4271873 4488088 4698684 4874666 4999166 5069928 
2161.473 5093763 5082331 5047836 5001412 4949630 4899362 4856270 4824206 
2165.331 4805377 4797537 4794388 4788290 4771406 4739247 4691282 4631164 
2169.188 4563287 4492406 4420869 4349343 4277528 4206259 4138080 4077370 
2173.045 4028541 3994832 3977510 3975537 3985736 4004798 4028976 4054226 
2176.903 4075196 4086401 4081652 4057303 4012790 3952666 3884460 3817000 
2180.760 3757805 3710416 3674559 3647126 3624305 3604192 3586852 3573355 
2184.618 3565271 3561629 3559792 3557086 3552042 3545527 3541118 3544191 
2188.475 3558189 3583678 3617924 3656081 3692872 3724285 3748848 3766228 
2192.333 3776923 3780466 3776188 3764724 3747411 3728462 3713858 3708611 
2196.190 3715596 3734310 3760078 3787753 3813089 3833847 3851163 3867210 
2200.047 3883658 3899839 3913011 3918495 3913847 3898568 3875935 3850662 
2203.905 3827529 3810114 3799084 3794204 3794939 3800688 3813323 3833513 
2207.762 3861158 3893420 3925884 3952666 3970655 3978982 3980754 3980219 
2211.620 3981590 3986572 3994330 4001152 4003760 3999814 3989816 3975638 
2215.477 3961059 3949523 3942869 3942367 3948119 3959955 3977477 3999079 
2219.334 4022053 4042955 4058574 4066400 4066601 4062086 4056835 4054193 
2223.192 4055129 4057236 4056199 4047236 4028073 4000249 3968649 3940194 
2227.049 3920634 3912978 3916556 3928425 3944775 3962898 3982025 4002724 
2230.907 4025665 4049878 4073290 4092154 4104128 4108510 4107406 4104931 
2234.764 4105634 4113227 4129182 4152766 4181703 4213687 4246108 4277093 
2238.622 4304699 4327087 4342716 4350849 4352187 4349309 4345762 4345528 
2242.479 4351351 4363902 4381841 4402492 4422978 4441522 4457992 4472956 
2246.336 4487753 4502819 4518119 4532817 4546210 4557963 4568142 4577283 
2250.194 4586023 4594126 4601594 4608526 4615257 4623428 4634546 4649416 
2254.051 4668339 4689841 4710943 4729097 4741960 4748727 4749899 4746684 
2257.909 4739951 4730505 4718211 4703138 4685320 4665994 4645766 4626241 
2261.766 4607856 4590945 4575609 4562215 4552170 4547549 4550395 4561512 
2265.624 4580129 4603134 4626107 4644426 4654842 4656349 4649918 4638097 
2269.481 4623763 4609329 4596169 4584951 4576011 4569682 4565697 4564325 
2273.338 4564794 4566300 4567807 4568878 4569783 4571859 4576413 4584616 
2277.196 4596504 4611004 4626007 4639536 4650454 4658994 4666229 4673932 
2281.053 4683109 4694296 4706857 4719953 4732782 4744909 4756265 4767152 
2284.911 4777068 4785845 4792244 4795627 4795661 4792545 4786984 4779949 
2288.768 4772210 4764371 4756432 4748660 4741424 4735194 4730974 4728729 
2292.625 4728662 4730471 4733519 4737572 4742664 4749062 4756934 4766281 
2296.483 4776230 4785644 4793349 4798643 4801624 4803132 4804003 4805511 
2300.340 4807923 4811407 4815629 4820687 4826685 4834424 4844376 4856706 
2304.198 4870645 4884886 4898256 4909616 4918966 4926606 4933912 4941352 
2308.055 4949194 4957338 4965080 4972352 4979626 4987703 4997457 5009456 
2311.913 5023199 5037143 5049647 5059468 5066341 5071369 5076364 5083337 
2315.770 5093495 5107139 5123366 5140332 5156459 5170643 5183116 5194349 
2319.627 5206287 5220707 5239152 5262259 5288620 5315755 5338631 5351647 
2323.485 5349399 5328400 5288318 5231941 5165781 5097149 5033624 4980664 
2327.342 4940950 4913704 4896346 4885489 4878050 4872488 4868768 4867294 
2331.200 4868735 4872856 4879290 4887567 4897452 4909381 4924059 4941720 
2335.057 4962231 4984285 5006138 5026182 5043814 5059234 5073515 5087896 
2338.915 5103351 5120215 5138186 5157163 5176510 5195926 5215006 5232310 
2342.772 5246194 5253908 5253505 5244652 5229259 5211754 5198307 5195657 
2346.629 5208500 5239319 5287949 5351445 5425586 5505007 5584275 5658556 
2350.487 5723684 5777036 5818003 5848327 5870762 5889133 5906397 5923829 
2354.344 5940758 5955135 5965347 5970487 5971226 5969681 5968505 5969177 
2358.202 5971898 5975357 5977440 5976735 5972805 5966657 5960140 5955135 
2362.059 5953120 5954195 5958427 5965716 5976231 5990240 6007843 6028673 
2365.917 6051016 6073091 6093218 6110221 6124872 6137878 6150715 6163923 
2369.774 6176896 6188525 6196994 6201498 6202237 6200725 6199111 6199145 
2373.631 6202473 6209598 6220824 6235748 6254236 6276019 6300156 6325741 
2377.489 6351057 6374493 6394936 6412422 6427958 6443898 6462024 6484087 
2381.346 6510556 6540492 6572347 6604440 6635526 6664865 6692793 6719578 
2385.204 6745927 6772278 6798933 6826062 6854100 6883319 6913685 6945096 
2389.061 6976711 7007252 7036077 7062513 7086929 7110101 7133038 7156482 
2392.918 7180669 7205328 7229887 7253875 7277292 7300339 7323826 7348190 
2396.776 7373667 7400023 7427323 7454996 7483346 7512236 7541938 7572551 
2400.633 7603639 7634965 7666631 7698704 7731791 7766702 7803944 7843483 
2404.491 7884949 7927600 7970997 8014973 8059628 8105570 8152970 8201758 
2408.348 8251195 8300264 8348698 8396293 8443926 8492680 8543535 8596693 
2412.206 8651312 8705904 8758710 8808446 8854603 8897586 8938510 8978930 
2416.063 9019963 9062083 9105594 9150362 9195574 9240148 9282864 9322267 
2419.920 9357306 9387303 9412901 9435588 9457530 9480931 9507753 9538980 
2423.778 9574578 9614347 9657574 9704364 9755157 9810396 9870421 9935065 
2427.635 10003414 10074453 10147708 10222876 10300499 10381327 10465698 
2431.010 10553312 10643219 10734230 10825126 10915632 11006191 11097721 
2434.386 11191480 11287946 11386984 11488597 11592071 11697237 11804336 
2437.761 11913470 12024744 12137409 12250717 12363680 12475785 12586657 
2441.136 12696465 12805483 12913504 13019640 13122694 13221673 13315960 
2444.511 13406441 13494752 13582842 13672626 13764583 13858508 13953208 
2447.887 14047209 14139587 14230206 14319438 14407661 14495321 14581455 
2451.262 14665585 14746372 14823368 14896022 14964814 15030460 15093648 
2454.637 15155300 15216755 15279145 15344221 15413359 15487898 15568185 
2458.012 15653433 15742134 15831988 15921172 16008312 16092306 16173048 
2461.388 16250677 16325016 16396202 16464854 16532000 16599262 16669219 
2464.763 16743870 16824874 16913264 17008664 17110326 17217732 17330720 
2468.138 17450012 17577172 17713512 17860462 18018476 18187052 18365304 
2471.513 18552134 18746138 18946216 19151338 19360158 19571160 19782958 
2474.889 19993888 20202038 20405774 20603458 20793582 20974958 21146530 
2478.264 21307974 21458824 21598896 21727344 21842904 21943508 22026984 
2481.639 22091580 22136172 22161522 22169576 22163196 22145692 22120066 
2485.014 22088304 22051700 22010950 21966128 21917264 21864228 21806668 
2488.390 21744064 21675480 21599906 21516478 21424952 21324990 21217050 
2491.765 21101308 20977984 20847462 20709786 20565624 20415706 20261052 
2495.140 20102324 19939350 19771270 19596152 19411850 19216616 19009870 
2498.515 18792048 18565516 18333056 18097990 17863120 17630860 17402554 
2501.891 17179330 16961702 16750000 16544081 16343456 16147118 15954033 
2505.266 15763883 15576703 15393893 15217303 15049189 14891359 14744349 
2508.641 14608012 14481138 14362589 14251399 14147289 14050495 13961762 
2512.016 13881429 13809593 13746080 13690406 13641886 13600380 13565339 
2515.392 13536488 13513825 13496974 13485899 13481217 13483097 13492223 
2518.767 13508936 13532454 13561818 13595423 13631561 13669275 13708155 
2522.142 13748508 13790952 13836274 13884132 13933431 13982840 14030166 
2525.517 14073664 14112341 14145304 14172279 14193743 14209868 14220756 
2528.893 14226679 14227329 14222126 14210348 14190765 14162660 14126169 
2532.268 14081948 14031501 13977365 13921970 13867232 13814450 13764069 
2535.643 13715952 13669993 13626227 13585098 13546947 13511877 13479474 
2539.018 13448475 13417512 13385424 13351835 13317464 13283162 13250674 
2542.394 13220716 13193699 13169209 13146532 13124675 13103399 13082364 
2545.769 13061535 13040502 13018684 12995604 12970955 12945079 12918999 
2549.144 12894321 12872306 12853808 12838449 12825379 12812956 12799921 
2552.519 12785759 12770438 12754878 12739796 12725909 12713320 12702061 
2555.895 12691450 12680909 12670265 12659144 12647578 12635639 12623700 
2559.270 12612068 12601255 12591364 12582325 12573252 12562202 12547127 
2562.645 12526187 12498667 12465077 12427741 12390135 12355771 12327544 
2566.020 12307433 12295503 12290766 12291924 12297310 12305661 12316329 
2569.396 12328226 12340566 12352225 12362452 12370463 12376497 12381135 
2572.771 12384987 12389419 12394873 12401625 12409705 12418978 12429276 
2576.146 12441141 12454644 12470363 12488572 12509170 12532019 12556642 
2579.521 12582632 12609339 12636254 12662929 12688925 12714138 12738602 
2582.896 12763135 12788762 12816506 12847733 12882853 12922105 12964777 
2586.272 13009943 13056174 13101896 13145712 13186389 13223415 13257063 
2589.647 13288526 13319616 13352826 13390448 13434156 13484327 13540213 
2593.022 13599799 13660487 13719953 13776518 13829193 13877905 13922791 
2596.397 13964430 14003440 14040296 14075205 14108781 14141299 14173032 
2599.773 14203946 14234211 14264102 14294097 14325294 14358787 14395811 
2603.148 14436776 14481480 14528723 14576727 14624186 14670245 14715282 
2606.523 14760254 14806911 14856556 14909910 14966700 15026757 15089394 
2609.898 15154785 15223308 15295893 15372884 15454421 15539063 15625233 
2613.274 15711043 15794842 15876181 15954891 16031759 16107572 16182782 
2616.649 16257556 16331380 16404048 16475074 16544495 16612653 16679721 
2620.024 16746074 16811508 16875920 16938686 16999464 17057976 17114324 
2623.399 17168852 17222044 17274308 17326168 17377586 17428180 17477676 
2626.775 17525420 17570720 17613986 17655430 17695840 17736498 17778160 
2630.150 17821346 17865672 17910558 17954760 17997546 18038094 18076088 
2633.525 18111772 18145456 18177412 18207920 18236982 18264868 18291582 
2636.900 18317606 18343494 18369762 18397312 18426038 18456392 18488132 
2640.276 18521254 18555522 18591004 18627354 18664742 18703034 18742574 
2643.651 18783918 18827512 18873814 18923094 18975186 19029188 19084164 
2647.026 19139112 19193204 19246296 19298980 19351808 19405962 19461852 
2650.401 19519622 19579202 19639620 19700188 19760106 19818886 19876218 
2653.777 19931928 19986082 20039272 20091600 20143936 20196798 20250812 
2657.152 20306014 20362506 20419980 20477840 20535746 20593208 20650086 
2660.527 20706206 20761674 20816524 20870582 20923948 20976836 21029520 
2663.902 21082144 21134912 21187476 21239492 21290608 21340338 21388856 
2667.278 21436266 21483124 21529882 21576784 21623864 21670848 21717556 
2670.653 21764026 21810326 21856980 21904164 21952082 22000178 22048318 
2674.028 22096184 22143878 22192208 22242216 22295054 22351458 22411812 
2677.403 22475560 22542106 22610584 22680364 22751378 22823660 22897248 
2680.779 22971998 23047708 23124058 23200596 23277568 23355146 23433826 
2684.154 23514232 23596472 23680476 23766316 23853786 23943092 24034974 
2687.529 24130026 24228674 24331060 24437042 24545436 24655436 24766446 
2690.904 24878360 24991286 25106174 25223828 25344958 25470058 25599130 
2694.280 25731896 25867760 26005816 26145216 26284838 26424012 26562206 
2697.655 26699672 26836898 26975016 27115116 27258154 27404840 27554962 
2701.030 27708174 27863704 28021090 28179770 28339606 28500666 28662852 
2704.405 28826192 28990304 29154478 29318144 29480316 29640238 29796888 
2707.781 29950042 30099344 30245392 30389038 30531312 30673416 30816600 
2711.156 30961254 31107878 31256332 31406478 31557884 31710162 31862818 
2714.531 32015060 32166146 32314748 32459938 32600996 32737456 32869134 
2717.906 32996204 33118666 33236760 33350450 33460234 33566928 33671828 
2721.281 33776960 33884240 33995660 34112848 34236664 34367864 34506420 
2724.657 34652204 34805140 34964704 35130432 35301580 35477220 35656632 
2728.032 35839360 36025224 36214332 36406592 36601744 36798684 36995996 
2731.407 37191848 37384936 37574280 37759440 37940412 38117192 38289452 
2734.782 38455804 38614756 38764424 38903484 39031248 39147916 39255004 
2738.158 39354176 39447560 39537048 39624412 39710996 39797740 39885300 
2741.533 39974476 40065780 40160412 40259716 40365620 40479996 40604944 
2744.908 40741616 40890344 41049720 41217456 41390476 41565096 41737992 
2748.283 41906508 42068560 42222308 42366428 42499268 42619248 42725000 
2751.659 42815748 42890864 42950632 42995404 43026096 43042892 43045780 
2755.034 43034400 43007404 42963360 42900556 42817616 42713044 42586604 
2758.409 42437992 42267880 42077100 41866664 41638168 41392700 41131484 
2761.784 40856304 40569076 40272548 39969900 39664780 39361320 39063008 
2765.160 38773588 38495952 38232820 37986376 37758212 37550180 37363016 
2768.535 37197440 37053188 36929756 36826164 36741416 36674604 36624960 
2771.910 36592048 36575212 36573664 36585632 36609208 36641864 36680660 
2775.285 36723096 36766368 36808560 36847444 36881456 36909012 36928532 
2778.661 36938668 36938452 36927052 36904400 36871248 36829408 36780900 
2782.036 36728720 36676440 36626656 36581920 36543496 36511564 36485616 
2785.411 36464352 36446336 36430228 36414412 36397616 36378088 36353628 
2788.786 36322212 36281292 36229064 36164848 36088692 36002436 35908020 
2792.162 35808632 35706884 35605632 35507640 35414736 35329580 35254108 
2795.537 35190432 35140172 35104964 35085420 35082152 35094868 35123824 
2798.912 35168804 35229564 35306072 35398092 35505120 35626672 35761892 
2802.287 35910360 36070980 36243004 36425148 36616164 36814152 37017212 
2805.663 37222964 37429284 37634364 37836360 38033748 38225400 38410260 
2809.038 38586692 38753520 38908560 39049776 39174712 39281120 39366764 
2812.413 39430760 39472308 39491828 39490668 39470784 39434752 39385736 
2815.788 39327040 39261788 39193640 39126124 39062640 39007036 38963212 
2819.164 38935016 38925848 38938964 38976228 39038604 39125364 39234696 
2822.539 39363604 39508628 39666592 39834344 40009352 40190104 40374312 
2825.914 40560380 40745836 40928024 41104312 41272548 41430900 41579132 
2829.289 41717968 41849188 41975012 42098128 42221280 42346772 42477088 
2832.665 42614384 42760720 42918256 43089060 43274944 43478372 43701428 
2836.040 43945860 44214128 44508480 44831168 45185644 45575844 46006952 
2839.415 46485872 47020668 47621224 48298636 49064308 49930124 50908300 
2842.790 52009908 53246704 54629192 56165844 57862044 59716480 61718488 
2846.166 63842700 66046292 68270304 70432272 72438792 74190456 75586544 
2849.541 76545624 77011224 76960152 76405752 75395528 74005824 72324264 
2852.916 70446648 68466784 66462264 64500324 62631860 60890088 59296200 
2856.291 57858900 56577140 55442632 54442140 53560584 52780660 52086516 
2859.667 51464012 50900180 50384816 49909644 49467740 49054032 48665108 
2863.042 48298672 47954080 47631800 47333292 47060804 46817488 46606220 
2866.417 46430596 46293748 46198472 46146256 46137632 46171568 46245128 
2869.792 46353536 46490152 46646944 46814204 46981676 47139204 47277540 
2873.167 47389496 47470768 47520592 47541408 47538744 47519668 47491540 
2876.543 47461672 47435912 47418360 47411856 47418284 47438280 47472392 
2879.918 47520812 47583732 47661452 47754016 47861584 47983904 48120364 
2883.293 48269380 48428744 48595208 48765296 48935344 49102668 49265568 
2886.668 49424036 49579408 49734200 49891768 50055744 50229528 50416816 
2890.044 50620904 50846056 51097000 51379684 51702144 52073704 52505296 
2893.419 53009672 53600016 54289040 55087700 56002712 57033520 58169392 
2896.794 59387936 60653044 61913548 63112384 64186388 65075024 65732620 
2900.169 66130316 66263028 66148376 65825148 65346808 64769940 64154276 
2903.545 63552944 63008368 62556236 62222476 62025020 61977060 62087176 
2906.920 62360692 62801296 63412168 64196648 65159248 66305064 67637968 
2910.295 69158488 70861008 72729880 74736328 76841064 78989552 81116248 
2913.670 83153120 85026752 86669080 88026312 89057592 89743392 90084232 
2917.046 90099808 89823048 89294184 88558544 87656960 86625200 85493112 
2920.421 84281888 83007008 81679184 80306128 78895096 77454600 75995464 
2923.796 74531608 73079688 71656728 70280008 68964848 67722344 66560508 
2927.171 65482324 64486748 63568896 62720968 61933456 61194932 60494268 
2930.547 59821196 59166176 58521960 57882524 57243536 56601560 55953864 
2933.922 55298396 54634112 53961048 53281124 52597140 51913592 51235448 
2937.297 50567256 49913472 49277852 48663660 48074240 47513420 46985072 
2940.672 46493872 46044084 45638776 45279740 44966200 44695152 44460608 
2944.048 44255328 44069796 43894280 43719272 43536680 43340400 43127848 
2947.423 42899968 42661424 42419836 42185460 41969276 41781108 41628616 
2950.798 41516420 41444676 41409720 41404944 41421820 41450584 41482516 
2954.173 41509932 41526772 41529140 41514488 41481384 41429148 41357964 
2957.549 41268500 41162268 41041780 40910436 40771860 40630012 40488540 
2960.924 40350316 40217260 40090528 39970624 39857588 39751256 39651492 
2964.299 39557988 39471072 39390704 39317064 39250324 39190704 39137980 
2967.674 39091824 39051876 39017876 38990288 38970532 38960748 38964372 
2971.050 38984744 39025416 39088636 39175112 39283732 39410876 39550768 
2974.425 39695564 39836124 39962092 40062912 40129376 40153760 40132028 
2977.800 40063672 39952900 39807072 39636644 39453656 39269440 39094652 
2981.175 38937552 38803300 38694400 38610300 38548236 38502760 38466952 
2984.551 38433104 38392780 38338124 38262564 38161400 38032052 37874648 
2987.926 37691460 37486676 37265852 37034784 36799116 36563104 36330028 
2991.301 36101548 35878368 35660660 35448384 35241892 35041708 34848404 
2994.676 34662000 34481740 34306040 34132272 33957428 33778752 33594028 
2998.052 33401936 33202600 32997098 32787230 32575388 32363828 32154940 
3001.427 31950432 31751584 31559128 31372924 31192886 31018190 30848830 
3004.802 30684938 30526760 30375642 30232570 30098490 29974004 29858746 
3008.177 29751892 29651662 29556386 29464430 29374368 29285498 29197462 
3011.552 29110610 29025230 28941920 28860752 28781756 28704478 28628518 
3014.928 28553460 28479402 28406986 28337236 28271386 28210708 28155800 
3018.303 28106662 28062726 28023104 27986810 27953238 27922284 27894442 
3021.678 27870204 27850066 27834450 27823218 27816364 27814210 27817282 
3025.053 27826786 27844166 27870874 27908008 27955888 28013596 28079126 
3028.429 28149224 28219972 28286804 28345088 28390962 28421386 28435182 
3031.804 28432386 28414840 28385516 28347316 28303284 28255720 28206180 
3035.179 28155552 28104682 28053890 28003986 27955428 27908892 27864798 
3038.554 27823464 27785066 27749852 27718206 27690376 27666538 27647082 
3041.930 27631192 27618408 27607780 27598494 27589668 27581052 27572508 
3045.305 27564316 27557046 27551432 27548502 27549384 27555138 27566542 
3048.680 27583842 27606616 27633804 27663962 27695672 27728058 27760764 
3052.055 27793826 27827562 27862360 27898186 27934756 27971472 28008118 
3055.431 28044946 28082272 28120872 28161350 28203778 28248224 28294584 
3058.806 28342754 28393262 28446856 28504524 28566978 28634358 28706106 
3062.181 28781226 28858344 28936536 29015488 29095624 29177650 29262532 
3065.556 29350972 29442798 29537412 29633464 29729252 29822792 29912094 
3068.932 29995448 30071360 30139224 30199036 30251360 30297544 30339362 
3072.307 30378414 30416686 30455496 30496262 30539666 30586520 30636614 
3075.682 30689810 30745110 30801056 30856832 30910942 30963354 31014274 
3079.057 31064492 31114820 31165866 31217522 31269260 31320502 31370432 
3082.433 31419088 31466960 31515092 31564332 31615612 31669066 31724670 
3085.808 31782098 31841208 31902362 31966020 32032750 32103170 32177206 
3089.183 32254536 32334380 32416236 32499284 32583136 32667686 32752498 
3092.558 32837436 32922212 33006824 33091240 33175956 33261870 33349804 
3095.934 33440548 33534572 33632048 33732200 33834232 33937008 34039416 
3099.309 34140592 34240136 34337988 34434824 34531392 34628732 34728000 
3102.684 34829484 34933392 35038976 35145668 35252276 35358336 35463376 
3106.059 35567148 35669688 35770816 35870592 35969032 36066156 36162548 
3109.435 36259104 36356692 36456316 36558776 36664256 36772356 36882864 
3112.810 36994948 37107968 37221376 37334488 37446764 37557548 37666416 
3116.185 37773104 37877900 37981312 38084204 38187340 38291188 38395784 
3119.560 38500696 38605088 38708272 38809856 38909756 39008268 39106112 
3122.936 39203832 39302192 39401808 39503224 39606844 39713064 39822144 
3126.311 39933936 40048304 40164880 40283092 40402388 40522004 40640928 
3129.686 40758104 40872616 40983660 41091128 41195744 41298528 41401300 
3133.061 41505408 41611948 41721212 41832916 41946320 42060932 42176696 
3136.437 42293812 42412748 42533764 42656380 42779840 42902824 43023940 
3139.812 43142452 43258292 43371960 43484452 43596940 43710476 43825696 
3143.187 43943220 44063012 44185260 44309668 44435724 44562372 44688724 
3146.562 44814268 44938308 45061460 45184612 45308644 45434220 45561380 
3149.938 45690124 45819160 45948124 46076244 46203556 46330352 46456556 
3153.313 46582208 46706932 46829852 46950444 47068852 47185372 47301072 
3156.688 47417100 47533936 47651988 47770960 47890440 48010140 48130024 
3160.063 48250160 48370852 48491908 48612960 48732788 48850944 48966828 
3163.438 49080632 49193384 49306248 49420252 49536180 49653956 49773180 
3166.814 49892916 50012504 50131564 50249948 50368072 50485740 50603220 
3170.189 50720208 50836368 50951332 51064800 51176508 51286828 51395796 
3173.564 51504116 51612056 51720136 51828468 51936896 52045056 52152608 
3176.939 52259060 52364612 52469288 52573840 52678828 52784516 52891052 
3180.315 52997880 53104392 53209960 53314468 53418096 53521264 53624576 
3183.690 53728316 53832160 53935576 54037556 54137192 54234000 54327940 
3187.065 54419268 54508816 54597592 54686344 54775984 54867256 54960656 
3190.440 55056556 55154472 55254068 55354284 55454264 55553476 55651768 
3193.816 55749328 55846420 55943232 56039500 56134472 56227388 56317460 
3197.191 56404532 56488940 56571440 56653312 56735544 56819184 56904504 
3200.566 56991772 57080564 57170660 57261112 57351436 57440456 57527296 
3203.941 57611888 57694636 57776268 57857804 57940148 58023380 58106660 
3207.317 58188864 58268696 58345508 58419568 58492008 58564312 58637992 
3210.692 58713464 58790396 58867680 58944376 59020208 59095332 59170768 
3214.067 59247400 59326360 59407124 59489420 59572376 59655544 59738568 
3217.442 59821460 59904140 59986340 60067264 60145692 60220932 60293256 
3220.818 60363460 60433680 60506040 60582216 60662948 60747920 60835844 
3224.193 60925012 61013924 61101180 61186352 61268984 61349464 61428344 
3227.568 61506676 61585480 61665972 61749004 61834880 61923212 62013288 
3230.943 62103840 62194220 62284124 62374192 62464900 62556764 62649504 
3234.319 62742488 62834716 62925712 63015452 63104840 63194812 63286536 
3237.694 63380032 63474672 63569440 63663312 63756624 63849764 63944420 
3241.069 64041524 64141408 64242624 64343168 64440900 64534224 64623652 
3244.444 64711444 64800672 64894884 64996124 65105356 65221540 65342808 
3247.820 65466760 65591520 65715820 65838448 65958804 66076344 66190356 
3251.195 66300928 66408364 66514128 66619568 66726960 66837364 66951304 
3254.570 67068220 67186592 67304616 67420392 67532088 67639016 67740856 
3257.945 67838112 67931896 68023768 68115352 68207968 68302488 68398472 
3261.321 68495600 68592448 68687680 68780408 68869896 68956224 69039576 
3264.696 69120368 69198624 69274480 69347784 69418768 69487552 69554856 
3268.071 69620864 69686208 69751136 69815808 69880288 69944784 70009672 
3271.446 70075320 70142176 70210208 70279272 70349120 70419144 70489008 
3274.822 70558312 70626680 70693624 70759296 70823336 70886088 70948200 
3278.197 71010232 71073096 71137224 71202528 71268784 71335472 71402136 
3281.572 71469040 71537048 71607096 71680680 71758656 71840944 71927192 
3284.947 72016664 72108592 72202520 72298200 72395968 72495840 72598392 
3288.323 72703360 72811256 72921800 73034920 73150424 73267888 73387016 
3291.698 73507296 73629160 73753736 73882592 74018008 74161608 74314048 
3295.073 74474336 74640552 74810328 74981784 75154296 75328528 75506384 
3298.448 75689432 75878920 76074440 76274800 76478128 76683104 76889552 
3301.823 77098152 77310344 77527512 77750416 77979616 78214848 78456480 
3305.199 78704840 78960656 79224536 79496216 79775144 80060040 80349664 
3308.574 80643632 80942504 81247224 81559072 81878344 82204368 82535216 
3311.949 82869072 83204488 83541272 83880808 84224608 84574384 84930808 
3315.324 85293136 85659512 86028264 86397696 86767192 87137008 87507576 
3318.700 87879688 88253736 88629816 89007648 89387104 89767472 90147592 
3322.075 90526096 90901168 91271208 91635760 91995368 92351832 92707392 
3325.450 93063424 93419608 93774040 94123040 94462808 94790184 95103416 
3328.825 95402264 95687304 95959112 96217816 96463056 96694240 96911048 
3332.201 97113960 97303160 97478552 97638416 97779616 97898616 97992280 
3335.576 98059248 98100824 98120464 98122624 98110456 98085664 98047456 
3338.951 97993232 97919784 97824728 97706832 97565736 97401416 97213704 
3342.326 97001352 96763008 96497360 96203880 95883664 95538360 95169576 
3345.702 94779472 94368752 93938064 93488112 93019664 92534208 92034064 
3349.077 91521200 90997576 90464720 89923784 89375384 88820032 88258328 
3352.452 87690120 87115456 86534640 85947848 85356976 84764760 84174768 
3355.827 83590872 83016232 82452640 81900024 81357536 80823760 80298040 
3359.203 79781240 79274880 78781144 78301896 77837488 77386912 76948208 
3362.578 76518520 76096000 75679576 75269224 74865992 74471432 74087168 
3365.953 73714632 73355280 73009712 72678256 72360896 72056288 71762872 
3369.328 71478448 71200776 70927368 70656512 70386208 70114520 69840088 
3372.704 69561352 69277552 68989312 68697776 68404488 68111168 67818312 
3376.079 67524888 67228488 66925952 66614000 66290892 65955488 65608248 
3379.454 65250112 64881848 64503512 64114600 63714416 63302672 62879332 
3382.829 62446000 62003888 61555124 61101256 60643932 60184472 59724312 
3386.205 59264568 58806256 58350284 57896496 57444500 56993808 56543700 
3389.580 56094320 55645892 55199508 54755688 54315364 53878972 53446836 
3392.955 53019776 52598488 52183952 51776760 51376848 50983228 50594840 
3396.330 50210184 49828512 49449880 49075548 48706284 48342632 47984200 
3399.706 47629616 47276652 46923308 46568556 46212252 45855468 45499308 
3403.081 45144796 44792520 44442040 44093524 43747304 43404108 43065500 
3406.456 42732604 42405480 42083124 41763744 41444492 41123836 40800904 
3409.831 40476576 40152416 39830640 39512912 39200024 38892148 38588936 
3413.207 38290356 37997008 37709640 37429284 37156872 36892024 36633684 
3416.582 36380108 36129236 35878944 35628256 35376592 35124400 34872744 
3419.957 34623208 34377332 34136860 33902688 33675516 33454936 33239980 
3423.332 33028812 32819890 32611604 32403276 32194726 31986882 31780210 
3426.708 31575878 31374172 31175300 30978832 30784660 30591960 30400696 
3430.083 30210758 30021970 29834506 29648682 29464676 29283016 29104232 
3433.458 28928674 28756584 28587926 28422270 28258620 28096164 27934120 
3436.833 27771750 27609122 27446416 27284190 27122768 26962534 26803276 
3440.208 26644814 26486376 26327574 26168302 26009334 25851232 25694982 
3443.584 25541354 25389536 25238542 25086374 24931238 24772442 24610584 
3446.959 24447698 24287186 24132444 23985284 23845944 23712772 23582688 
3450.334 23452324 23319344 23182876 23043794 22904372 22766114 22631074 
3453.709 22499532 22370540 22242774 22114764 21985192 21853566 21720170 
3457.085 21585456 21450538 21316360 21183894 21053900 20926626 20801578 
3460.460 20677504 20553186 20426926 20297888 20166252 20033406 19901296 
3463.835 19772070 19647180 19527108 19411400 19298600 19187732 19077760 
3467.210 18968470 18859902 18752330 18645406 18538648 18431570 18323688 
3470.586 18215454 18107696 18001898 17898992 17799250 17702192 17606430 
3473.961 17510484 17413210 17314168 17213872 17113360 17013902 16916570 
3477.336 16822254 16731199 16643329 16558401 16475659 16394379 16313560 
3480.711 16232515 16151039 16070059 15990848 15915398 15845390 15781544 
3484.087 15722997 15667964 15613658 15557230 15497203 15432515 15364028 
3487.462 15292907 15221112 15150153 15081435 15016089 14955108 14899520 
3490.837 14849630 14804889 14764333 14725394 14685463 14643000 14597526 
3494.212 14549966 14503337 14461132 14426123 14400434 14384405 14376938 
3497.588 14376459 14381322 14389988 14401188 14414066 14427117 14439174 
3500.963 14448834 14455582 14459864 14463392 14469285 14481274 14502412 
3504.338 14535233 14580804 14639162 14708598 14786273 14869345 14953909 
3507.713 15036978 15116290 15191567 15264044 15336978 15414182 15499057 
3511.089 15593909 15698537 15810991 15928527 16047368 16164932 16279468 
3514.464 16390525 16497582 16600845 16699828 16794150 16883258 16967318 
3517.839 17045916 17119666 17187466 17248590 17300722 17341858 17369446 
3521.214 17382482 17380688 17364410 17334546 17291928 17236626 17168024 
3524.590 17085340 16987748 16874612 16746040 16602119 16443448 16271282 
3527.965 16086908 15892094 15689297 15480790 15268917 15055741 14842601 
3531.340 14630149 14419101 14208636 13997793 13785377 13569612 13349376 
3534.715 13123991 12894697 12663510 12434049 12210365 11995552 11791568 
3538.091 11597856 11412529 11232723 11055675 10879278 10703257 10528327 
3541.466 10355672 10186919 10022809 9862931 9706668 9552630 9399188 9245427 
3545.323 9090943 8936514 8783425 8634175 8490586 8354440 8226340 8105132 
3549.181 7988580 7873612 7757089 7636921 7512741 7385362 7258087 7133746 
3553.038 7015502 6904797 6802198 6706824 6617325 6532621 6451498 6372576 
3556.896 6294811 6216623 6136164 6052427 5964608 5873448 5780797 5689541 
3560.753 5602097 5520745 5446522 5378751 5315956 5255450 5193880 5127557 
3564.610 5052597 4965918 4865719 4753149 4631298 4507238 4389037 4284019 
3568.468 4196791 4128714 4076735 4036032 4000684 3965740 3927221 3883189 
3572.325 3832911 3776589 3715428 3650701 3583812 3517000 3452102 3390686 
3576.183 3333787 3281369 3231628 3183161 3132897 3079401 3022276 2962590 
3580.040 2902577 2845075 2792549 2746432 2707121 2673747 2644377 2617042 
3583.897 2589175 2558544 2522749 2479760 2428077 2367406 2299116 2226306 
3587.755 2153876 2087350 2031120 1987946 1957723 1937920 1924441 1912160 
3591.612 1896186 1872592 1839183 1795928 1744427 1688375 1631399 1577058 
3595.470 1527644 1483689 1444725 1409221 1375681 1342809 1310571 1279132 
3599.327 1249989 1224769 1204932 1191409 1184897 1184266 1187622 1192572 
3603.185 1195928 1194765 1186858 1170445 1144897 1110580 1068361 1019902 
3607.042 967431 913338 860614 811647 768395 731187 699293 670354 641584 
3611.382 610393 575422 536141 494906 454372 418187 388968 367877 354546 
3615.721 346720 341282 334716 323309 304409 276392 240056 198087 155227 
3620.061 116813 87416 68924 60970 60937 65212 69553 72370 72437 70813 68592 
3625.365 66107 61567 50698 27767 -13783 -76367 -156695 -244592 -325155 
3629.704 -384913 -417288 -424438 -414077 -396532 -380675 -372664 -374882 
3633.562 -386502 -403517 -421624 -436520 -445953 -449925 -449628 -447344 
3637.419 -445258 -444960 -447476 -452871 -460981 -471175 -482561 -494310 
3641.277 -505066 -513671 -519231 -520720 -518172 -512744 -506191 -501227 
3645.134 -501227 -508971 -527240 -556692 -597194 -646162 -700385 -755792 
3648.991 -808744 -855605 -893401 -919324 -931359 -928879 -913141 -887548 
3652.849 -857159 -828190 -806892 -798326 -804973 -826206 -857126 -889664 
3656.706 -915951 -929871 -929243 -916480 -895715 -872569 -851835 -836821 
3660.564 -829116 -828752 -834473 -844031 -855142 -865393 -872602 -875710 
3664.421 -873495 -865757 -852728 -835664 -816350 -797433 -782550 -774479 
3668.279 -774810 -781822 -788602 -784501 -755329 -690395 -584587 -440724 
3672.136 -267176 -76035 119332 305934 468569 591049 659470 663751 603624 
3676.476 487675 329742 143494 -58875 -265753 -466574 -649405 -803584 -922729 
3680.815 -1005910 -1058104 -1088083 -1104872 -1115646 -1123743 -1129527 
3684.190 -1132071 -1131344 -1129163 -1129163 -1136269 -1153949 -1184185 
3687.566 -1224860 -1270685 -1314721 -1350859 -1375169 -1387390 -1389239 
3690.941 -1383162 -1371172 -1354789 -1335532 -1314787 -1294240 -1275739 
3694.316 -1260278 -1247657 -1236820 -1225620 -1211841 -1193734 -1171297 
3697.691 -1146183 -1121694 -1101766 -1090793 -1091850 -1106624 -1134186 
3701.067 -1171198 -1212403 -1251391 -1282875 -1303622 -1312442 -1310856 
3704.442 -1301210 -1286278 -1268570 -1249937 -1231600 -1214683 -1200178 
3707.817 -1189075 -1182830 -1182466 -1188051 -1199847 -1217095 -1238109 
3711.192 -1261599 -1285617 -1307487 -1325292 -1336292 -1339331 -1333880 
3714.568 -1321064 -1302862 -1282314 -1262789 -1246600 -1235333 -1229452 
3717.943 -1227899 -1229651 -1233417 -1238704 -1245245 -1253307 -1261864 
3721.318 -1269760 -1275178 -1276169 -1272238 -1264408 -1255157 -1248186 
3724.693 -1246435 -1251853 -1263945 -1280298 -1296816 -1308940 -1313730 
3728.069 -1309865 -1298733 -1283602 -1268306 -1256974 -1252481 -1256082 
3731.444 -1266621 -1281785 -1298204 -1313895 -1328760 -1345111 -1365293 
3734.819 -1391518 -1422629 -1454366 -1480388 -1494322 -1492539 -1475104 
3738.194 -1445251 -1406380 -1363080 -1318091 -1272964 -1230113 -1193040 
3741.570 -1166671 -1158145 -1175031 -1222051 -1296618 -1385573 -1467575 
3744.945 -1519681 -1529917 -1500860 -1446539 -1383922 -1327934 -1289846 
3748.320 -1275046 -1282776 -1307718 -1342502 -1378241 -1409584 -1432966 
3751.695 -1447002 -1450139 -1441586 -1420945 -1389801 -1352048 -1312673 
3755.071 -1276929 -1248747 -1230014 -1220531 -1218351 -1221192 -1227007 
3758.446 -1235267 -1245774 -1257734 -1269099 -1276433 -1276004 -1265729 
3761.821 -1246435 -1221390 -1196212 -1176221 -1165151 -1163631 -1169315 
3765.196 -1177344 -1182863 -1182565 -1176155 -1166109 -1155964 -1148892 
3768.572 -1146877 -1149487 -1154742 -1159632 -1161913 -1160260 -1155006 
3771.947 -1147405 -1138978 -1130783 -1123842 -1117497 -1111218 -1104079 
3775.322 -1095453 -1085240 -1075060 -1066863 -1063756 -1068020 -1080679 
3778.697 -1100113 -1122686 -1142977 -1155667 -1158806 -1152627 -1140498 
3782.073 -1127213 -1117034 -1112408 -1113465 -1117762 -1122322 -1124206 
3785.448 -1122322 -1116935 -1110160 -1103980 -1099188 -1096180 -1094065 
3788.823 -1091784 -1088942 -1085604 -1082067 -1078762 -1075358 -1070929 
3792.198 -1064715 -1056782 -1048254 -1041742 -1040619 -1047527 -1063062 
3795.573 -1085703 -1110491 -1131411 -1143076 -1142812 -1131774 -1114258 
3798.949 -1097006 -1087488 -1090859 -1109962 -1141622 -1178898 -1211015 
3802.324 -1228725 -1227734 -1209892 -1181574 -1151074 -1127478 -1117200 
3805.699 -1123743 -1145456 -1175593 -1204803 -1223835 -1226974 -1214220 
3809.074 -1189174 -1157253 -1122983 -1089768 -1058005 -1027595 -998009 
3812.450 -969446 -944584 -927490 -922729 -934103 -962140 -1002901 -1047163 
3816.307 -1084183 -1104806 -1105467 -1089405 -1063888 -1039363 -1025578 
3819.682 -1029512 -1053411 -1093536 -1139672 -1178964 -1201202 -1202590 
3823.058 -1186332 -1159599 -1131344 -1108772 -1095750 -1092577 -1095552 
3826.433 -1100014 -1100047 -1092412 -1076548 -1054766 -1030999 -1009149 
3829.808 -992323 -982075 -978306 -979496 -983265 -986901 -987926 -984455 
3833.666 -976058 -963396 -948816 -936417 -930797 -935690 -953378 -982868 
3837.523 -1019860 -1057443 -1088215 -1106987 -1111879 -1104509 -1088942 
3840.898 -1070268 -1053014 -1040354 -1034503 -1035297 -1041379 -1050105 
3844.273 -1058468 -1063128 -1061641 -1052948 -1037445 -1016554 -992587 
3847.649 -967528 -942534 -918034 -893765 -870254 -849057 -834539 -833051 
3851.506 -851603 -896377 -967925 -1058931 -1152461 -1229254 -1275079 
3854.881 -1286179 -1268075 -1230840 -1184879 -1137194 -1092313 -1052584 
3858.257 -1018604 -990967 -969743 -954569 -945047 -940187 -938500 -938864 
3862.114 -940650 -944584 -951461 -962040 -975066 -986637 -992125 -986736 
3865.971 -968851 -940650 -908479 -881199 -867146 -872569 -898394 -939823 
3869.829 -985810 -1024488 -1047031 -1051493 -1041577 -1024686 -1008025 
3873.204 -996587 -991397 -990141 -988191 -981215 -966338 -943493 -915720 
3877.062 -887482 -863938 -849719 -848429 -860830 -885068 -916183 -946997 
3880.919 -970372 -981480 -978669 -964884 -945873 -928053 -917836 -918861 
3884.776 -930731 -948882 -965677 -973611 -967528 -947361 -916943 -882654 
3888.634 -851438 -828818 -818566 -821939 -836921 -859077 -883051 -902891 
3892.491 -914265 -914893 -904445 -883679 -854943 -821113 -785692 -752385 
3896.349 -724831 -706472 -698963 -702800 -716131 -736243 -758372 -778680 
3900.206 -794390 -804874 -812051 -818831 -828851 -844031 -864236 -886986 
3904.063 -908016 -922895 -928714 -924746 -912777 -896344 -878885 -863409 
3907.921 -850876 -840955 -832225 -822899 -811588 -797697 -781888 -764722 
3911.778 -747721 -732274 -718976 -708754 -702039 -699227 -700484 -705645 
3915.636 -713650 -723111 -732472 -740312 -745968 -749672 -752021 -753410 
3919.493 -753708 -752021 -746927 -737533 -723938 -707133 -689898 -674747 
3923.351 -664094 -659065 -659264 -663102 -668329 -673192 -676401 -677956 
3927.208 -678055 -677162 -675309 -672630 -669321 -666211 -664921 -667138 
3931.065 -674416 -686822 -703131 -719704 -733233 -739981 -738261 -728536 
3934.923 -712922 -694728 -677063 -662109 -650695 -642689 -637163 -633127 
3938.780 -630017 -628065 -627734 -629851 -634616 -641795 -650232 -658040 
3942.638 -663432 -664392 -660455 -651621 -639479 -626311 -614599 -607055 
3946.495 -604904 -608510 -616749 -627502 -638487 -647585 -653540 -656220 
3950.353 -656286 -654930 -652978 -650861 -649107 -647221 -645368 -643218 
3954.210 -640604 -637362 -633392 -628164 -621481 -613474 -604441 -595176 
3958.067 -586440 -578830 -572576 -567877 -564568 -562748 -562715 -564766 
3961.925 -569068 -575256 -582006 -587466 -590014 -588360 -582006 -572112 
3965.782 -560431 -549015 -539352 -532038 -526875 -522673 -518436 -513340 
3969.640 -507217 -500300 -493118 -486400 -480178 -474385 -469156 -464191 
3973.497 -459491 -454824 -450323 -445622 -440558 -435130 -429337 -423610 
3977.354 -418314 -413680 -409476 -405503 -401034 -395870 -390540 -385840 
3981.212 -383092 -383456 -387329 -394049 -402458 -410469 -417089 -421591 
3985.069 -424471 -427119 -430462 -435394 -441915 -449032 -455817 -460947 
3988.927 -463728 -464555 -463728 -462371 -461212 -460219 -460021 -459955 
3992.784 -460120 -460054 -459921 -459193 -457737 -455652 -452342 -448337 
3996.642 -443504 -438274 -432813 -427483 -422419 -417553 -412985 -409112 
4000.499 -406596 
##END=
