
##TITLE=Z413_1_b
##JCAMP-DX=5.01  $$ Nicolet v. 1
##DATATYPE=INFRARED SPECTRUM
##ORIGIN=UniL
##OWNER=Nicolet
##LONGDATE=2011/09/21
##TIME=14:50:40
##SPECTROMETER/DATA SYSTEM=Nicolet iS5
##DATA PROCESSING=
Ratio against background
%Transmittance->Absorbance
Truncated
ElementMultiply or ElementDivide
##COMMENTS=
Number of sample scans: 32
Collection length: 51.19 sec
Sample gain: 2.0
Background collected on: Mer Sep 21 14:46:37 2011 (GMT+02:00);
Number of background scans: 32
Background gain: 2.0
Sample spacing:  1.000
Number of scan points: 12415
Resolution points: 8192
Number of FFT points: 65536
Apodization: N-B fort;
Phase correction: Mertz;
Laser frequency: 15798.0 cm-1
Number of rejected sample scans: 0
Number of rejected background scans: 0
Bench serial number: ASB1000141;
##RESOLUTION=4.000
##XUNITS=1/CM
##YUNITS=ABSORBANCE
##FIRSTX=649.893372
##LASTX=4000.122314
##FIRSTY=0.118822
##MAXX=4000.122314
##MINX=649.893372
##MAXY=0.277465
##MINY=-0.004500
##XFACTOR=1.000000
##YFACTOR=1.000000E-009
##NPOINTS=6950
##DELTAX=0.482117
##ZPD=6100
##XYDATA=(X++(Y..Y))
649.893 118821824 118240800 117753808 117374144 117090816 116881088 
652.786 116726040 116624952 116592408 116652392 116819728 117090384 
655.679 117439928 117834512 118244464 118656064 119074112 119512336 
658.571 119981000 120478336 120989368 121495176 121987272 122473768 
661.464 122979112 123531408 124151080 124837536 125571224 126316208 
664.357 127036856 127702672 128283280 128744480 129039568 129113256 
667.250 128927824 128505440 127944336 127372640 126886696 126503496 
670.142 126174896 125819488 125358104 124741128 123958016 123041088 
673.035 122046072 121033056 120039664 119071024 118110624 117136512 
675.928 116139632 115130360 114132256 113168560 112249424 111369584 
678.820 110512744 109664888 108823968 108000520 107212176 106470520 
681.713 105774712 105109912 104457000 103801192 103141792 102491616 
684.606 101869608 101288352 100746856 100229024 99712152 99179360 98627216 
687.981 98068976 97528320 97028976 96582768 96187792 95829696 95491216 
691.355 95160416 94834376 94519072 94224000 93958016 93725560 93529656 
694.730 93376104 93273416 93236000 93277152 93403008 93609800 93882736 
698.105 94202264 94549144 94912944 95292776 95694336 96123664 96580328 
701.480 97055328 97533672 97999672 98442392 98860264 99257432 99640080 
704.855 100010344 100363936 100691904 100987016 101246640 101476904 
707.747 101688032 101891008 102091272 102288912 102480800 102668912 
710.640 102864280 103089992 103373824 103738872 104193520 104724192 
713.533 105297480 105865104 106380896 106809200 107132232 107349824 
716.425 107474696 107525544 107520192 107478352 107423096 107382912 
719.318 107395304 107500968 107732200 108104080 108599512 109166832 
722.211 109715696 110135856 110316840 110163648 109628000 108717392 
725.104 107500752 106089928 104619704 103221504 101986792 100963896 
727.996 100155080 99530816 99046696 98660528 98345472 98086704 97878568 
731.371 97717496 97595688 97501736 97425144 97358752 97302336 97260752 
734.746 97239320 97238576 97254168 97276752 97298728 97317712 97339064 
738.121 97371944 97425720 97503768 97600616 97704672 97802896 97887448 
741.496 97958472 98023416 98091776 98170808 98261496 98358808 98455608 
744.870 98546264 98630216 98710352 98790504 98870712 98946352 99009808 
748.245 99054096 99077408 99085024 99087392 99094856 99113296 99140552 
751.620 99168528 99188272 99194224 99187936 99177408 99173448 99183896 
754.995 99210920 99250520 99295616 99340768 99384248 99428568 99478192 
758.370 99536440 99602408 99672464 99741624 99807080 99870376 99936640 
761.744 100012184 100102048 100208576 100331376 100471280 100633632 
764.637 100830344 101082312 101417776 101865416 102452768 103193776 
767.530 104081496 105075768 106100880 107050528 107790888 108195712 
770.423 108172160 107685032 106775976 105558000 104198104 102862352 
773.315 101689872 100760560 100082936 99607904 99251352 98929744 98572544 
776.690 98136048 97601200 96957648 96194368 95294632 94235768 92998600 
780.065 91574704 89970376 88206320 86313448 84330328 82296384 80252320 
783.440 78239608 76295216 74450464 72728712 71141016 69690368 68373192 
786.815 67184160 66119476 65177420 64356968 63656172 63069700 62589832 
790.189 62207600 61916372 61714168 61604568 61594984 61694424 61911368 
793.564 62251500 62717788 63310876 64030692 64875536 65843352 66931360 
796.939 68136632 69458544 70903136 72486520 74239472 76203000 78427624 
800.314 80958952 83820208 86993184 90396984 93885288 97226600 100138264 
803.689 102330008 103528560 103559128 102381008 100108848 96988296 93348704 
807.063 89543448 85845568 82420912 79305544 76427520 73654048 70849352 
810.438 67932128 64891504 61790636 58732356 55836208 53200632 50882524 
813.813 48901184 47240816 45866108 44731144 43791724 43008536 42347324 
817.188 41781952 41293648 40870464 40507416 40203116 39956784 39765200 
820.563 39621580 39515892 39439792 39387588 39358964 39357984 39391104 
823.938 39463492 39577768 39733356 39927508 40157940 40422532 40720072 
827.312 41049392 41408660 41795920 42212116 42663364 43163204 43733820 
830.687 44406732 45216488 46200976 47396848 48830732 50513804 52427564 
834.062 54516368 56670680 58725908 60488936 61740296 62288176 62013672 
837.437 60890660 59004680 56527020 53695508 50751192 47901132 45306736 
840.812 43057380 41184048 39673416 38486648 37572760 36878856 36359896 
844.186 35976048 35694184 35490164 35346044 35250872 35198912 35186124 
847.561 35208292 35259496 35331736 35417540 35512132 35614696 35727676 
850.936 35856200 36004776 36175836 36369840 36585884 36823244 37083028 
854.311 37367924 37681376 38027060 38408020 38826560 39285760 39790620 
857.686 40347188 40964432 41652100 42421296 43286180 44265564 45382244 
861.060 46664580 48139276 49821560 51705392 53752876 55889984 58003232 
864.435 59961084 61628472 62884540 63654252 63915060 63707240 63121856 
867.810 62295136 61387472 60548164 59912928 59583172 59616544 60036788 
871.185 60834740 61978472 63414424 65072364 66869052 68697000 70435624 
874.560 71959296 73139560 73875680 74106032 73818296 73052216 71891456 
877.935 70451944 68852776 67208648 65613984 64127312 62776216 61556688 
881.309 60443388 59399184 58389660 57394656 56412644 55462848 54576964 
884.684 53794204 53148392 52660500 52338372 52176668 52161872 52277712 
888.059 52510528 52850448 53290268 53825032 54449656 55159064 55949336 
891.434 56819788 57773848 58819040 59966144 61227552 62614636 64137644 
894.809 65802476 67608000 69539224 71560568 73612672 75602040 77413096 
898.183 78921712 80003312 80566208 80562528 79996816 78922904 77435824 
901.558 75659808 73720800 71743800 69839736 68090352 66555800 65270716 
904.933 64247848 63485332 62971868 62692984 62633812 62782072 63129096 
908.308 63668528 64396396 65310916 66412380 67703288 69185648 70858744 
911.683 72714288 74731648 76873056 79088920 81319136 83501872 85588776 
915.058 87548880 89376808 91091480 92733688 94357224 96014536 97749856 
918.432 99581072 101489168 103405816 105214264 106763992 107876256 108391592 
921.807 108202560 107281312 105703416 103647080 101388304 99239440 97529152 
925.182 96555792 96519128 97506752 99458312 102179432 105339704 108521192 
928.557 111310784 113321656 114283536 114082360 112747904 110430832 
931.450 107338840 103705512 99733368 95579648 91370280 87198880 83145488 
934.824 79291072 75710576 72474424 69644200 67260904 65349428 63917860 
938.199 62961028 62462332 62393208 62711744 63353048 64228528 65234132 
941.574 66245892 67141272 67818312 68198464 68245104 67963864 67400656 
944.949 66629568 65739020 64823216 63959824 63207464 62602004 62155836 
948.324 61864140 61711344 61678156 61744572 61891844 62104184 62365668 
951.698 62661328 62978492 63306772 63640556 63979320 64326264 64686792 
955.073 65065132 65464176 65884724 66326676 66789792 67275296 67784344 
958.448 68318080 68875608 69454576 70051136 70662392 71286624 71924144 
961.823 72576104 73243408 73924864 74618008 75319976 76029408 76747784 
965.198 77479192 78229048 79000912 79795856 80611592 81444704 82292864 
968.573 83157096 84042784 84957608 85909120 86902432 87939400 89019688 
971.947 90142984 91311232 92529080 93802744 95138472 96539112 98005400 
975.322 99535736 101128768 102785984 104510568 106306904 108177944 110123216 
978.697 112139776 114223576 116373088 118591192 120885144 123263712 
981.590 125733224 128294632 130941736 133662624 136439280 139249824 
984.482 142062768 144830176 147488480 149948656 152103936 153849328 
987.375 155085936 155744768 155799056 155265408 154204432 152709024 
990.268 150905088 148931392 146927376 145032160 143359360 141992512 
993.160 140984608 140353344 140090016 140169264 140560512 141234064 
996.053 142164400 143332384 144719328 146304736 148067632 149983760 
998.946 152029728 154183024 156417456 158699200 160983488 163207792 
1001.839 165298624 167181344 168784752 170058368 170977392 171544784 
1004.731 171790624 171768896 171557680 171247088 170939520 170742384 
1007.624 170747824 171032656 171648048 172616240 173937216 175595040 
1010.517 177568416 179833088 182365168 185140176 188126352 191286928 
1013.409 194583760 197979088 201443440 204955024 208489504 212010928 
1016.302 215457536 218730048 221705392 224244560 226215520 227529056 
1019.195 228150960 228120144 227540256 226583456 225471616 224436400 
1022.087 223721040 223538992 224042528 225325296 227404960 230235072 
1024.980 233713760 237710784 242088656 246701392 251413040 256091120 
1027.873 260593088 264780528 268519360 271688672 274203424 276012672 
1030.766 277098272 277465184 277129696 276113696 274442720 272152992 
1033.659 269293376 265921120 262099472 257886624 253330384 248476000 
1036.552 243371712 238077984 232679424 227275744 221973440 216881648 
1039.446 212091136 207673920 203684000 200150224 197078208 194442464 
1042.339 192184128 190202288 188357952 186501168 184479488 182173232 
1045.232 179523952 176538576 173292304 169903200 166523568 163306032 
1048.125 160380400 157856336 155804896 154260112 153224784 152672624 
1051.018 152556688 152814112 153380928 154194944 155199792 156349104 
1053.911 157597856 158894496 160180880 161383104 162416304 163198896 
1056.804 163652464 163715360 163350416 162542944 161306032 159678368 
1059.697 157730512 155559360 153279440 151024368 148921600 147083024 
1062.590 145602352 144540752 143931280 143781312 144074848 144773200 
1065.483 145813264 147113728 148569392 150057008 151457136 152652736 
1068.376 153548992 154084464 154224944 153963296 153311024 152291440 
1071.269 150934480 149272304 147341040 145176720 142814512 140291040 
1074.162 137643728 134915568 132162184 129448504 126851472 124456840 
1077.055 122343192 120581672 119227168 118310336 117839376 117796392 
1079.948 118139800 118798344 119673920 120652752 121600600 122386888 
1082.842 122906856 123089424 122918416 122432824 121723808 120913904 
1085.735 120138568 119537864 119227736 119298688 119810208 120783568 
1088.628 122203736 124017528 126144992 128477648 130890984 133267272 
1091.521 135493184 137475632 139147872 140460272 141381104 141892864 
1094.414 141989296 141676784 140975120 139919376 138557728 136948688 
1097.307 135164608 133281456 131377384 129529048 127793920 126205552 
1100.200 124762808 123429264 122136568 120797608 119333528 117684288 
1103.093 115829424 113792472 111638096 109460464 107360560 105443096 
1105.986 103796352 102483984 101548944 101008344 100858016 101075528 
1108.879 101624728 102460240 103526792 104767840 106123088 107526440 
1111.772 108911248 110203920 111325264 112201720 112765816 112966648 
1114.665 112778792 112201336 111257792 109987632 108444160 106686000 
1117.558 104769904 102753272 100685720 98605768 96542464 94511368 92517888 
1120.934 90560832 88638352 86751856 84909416 83125072 81417248 79805928 
1124.309 78307496 76934880 75696536 74597736 73642936 72836992 72186400 
1127.684 71698704 71381088 71238288 71269952 71468496 71817840 72290176 
1131.059 72847504 73443528 74022960 74532432 74926224 75172216 75261544 
1134.435 75208856 75052632 74844768 74645744 74515248 74498128 74624184 
1137.810 74900712 75312728 75823560 76378728 76916248 77366880 77666688 
1141.185 77764960 77623496 77221712 76554480 75628664 74461008 73075656 
1144.560 71505640 69788952 67968824 66093476 64207748 62354420 60572008 
1147.936 58889692 57331132 55913724 54648200 53540716 52592804 51801772 
1151.311 51161224 50661932 50293880 50046260 49909904 49877532 49943396 
1154.686 50102556 50350584 50682448 51093160 51578472 52135272 52762216 
1158.061 53459352 54226568 55062460 55963736 56924224 57936172 58989652 
1161.437 60072400 61170216 62263548 63327396 64332640 65244220 66025540 
1164.812 66642784 67063384 67261528 67218352 66922276 66371380 65573484 
1168.187 64547568 63320496 61925468 60400012 58779244 57096776 55383344 
1171.562 53665024 51965872 50308540 48712360 47195788 45774500 44460500 
1174.938 43262864 42187360 41237024 40413040 39715424 39144072 38698676 
1178.313 38379024 38185420 38118568 38179996 38372440 38699872 39166952 
1181.688 39778456 40538552 41449960 42513628 43728252 45089324 46586448 
1185.063 48199808 49898788 51635792 53347696 54963740 56402984 57589792 
1188.438 58463008 58977544 59114160 58879520 58305944 57445524 56364012 
1191.814 55136904 53835312 52524440 51261100 50087348 49036040 48130580 
1195.189 47385468 46809336 46404304 46165744 46081404 46130188 46284016 
1198.564 46505088 46749624 46973184 47127608 47169600 47063572 46782248 
1201.939 46313136 45658872 44838808 43884308 42836008 41740000 40637544 
1205.315 39564740 38549140 37607448 36748880 35976048 35288176 34682348 
1208.690 34155108 33702940 33322114 33009432 32762214 32579210 32461006 
1212.065 32409236 32426338 32514248 32673362 32902158 33197344 33554114 
1215.440 33966388 34426720 34926064 35452376 35992320 36530992 37053584 
1218.816 37548736 38007532 38425176 38800072 39132580 39424704 39679916 
1222.191 39903968 40104988 40293704 40483160 40686484 40915572 41179460 
1225.566 41482844 41826128 42205508 42614016 43042304 43478704 43912500 
1228.941 44334216 44738380 45125088 45501220 45880176 46278596 46716824 
1232.317 47214996 47791264 48463752 49249720 50165812 51229896 52458968 
1235.692 53867752 55468084 57267236 59267264 61465604 63855180 66423572 
1239.067 69150448 72009160 74964536 77974376 80997480 83993528 86927408 
1242.442 89772400 92505016 95102880 97543336 99798448 101836384 103623232 
1245.818 105119496 106283880 107075800 107454504 107387576 106855296 
1248.711 105853904 104395728 102506728 100222640 97582000 94626672 91404176 
1252.086 87966096 84374592 80701928 77021000 73408560 69937000 66664496 
1255.461 63639596 60895044 58446140 56293020 54420284 52800608 51394228 
1258.836 50154880 49033888 47980204 46949448 45906472 44826504 43698792 
1262.212 42524880 41316892 40094052 38879568 37698000 36570600 35515080 
1265.587 34544236 33664560 32877746 32180808 31567502 31029400 30557866 
1268.962 30145938 29788690 29483472 29229888 29027780 28876970 28776410 
1272.337 28724370 28719804 28762532 28853670 28995228 29188742 29434218 
1275.713 29728082 30062484 30423864 30793836 31148244 31458552 31697404 
1279.088 31838570 31863600 31765270 31548158 31228452 30828588 30375714 
1282.463 29895020 29406562 28926124 28464474 28029430 27628650 27269338 
1285.838 26959150 26705486 26514200 26390030 26336902 26358520 26459118 
1289.214 26643440 26915152 27275828 27723432 28252326 28852288 29509040 
1292.589 30205466 30918558 31621490 32285228 32878500 33374958 33757372 
1295.964 34021172 34176256 34245660 34262728 34262908 34281264 34348608 
1299.339 34487660 34713860 35034884 35449788 35947252 36505184 37093024 
1302.715 37670932 38196532 38632468 38947340 39123224 39156040 39055392 
1306.090 38842176 38544612 38197184 37833580 37484616 37176364 36925896 
1309.465 36742064 36625540 36571464 36571720 36618256 36705176 36828112 
1312.840 36984628 37172140 37387464 37626308 37884444 38158144 38444908 
1316.216 38743992 39055100 39377896 39712084 40057316 40413948 40783652 
1319.591 41168932 41571656 41991248 42422208 42853672 43268796 43645480 
1322.966 43961076 44193256 44324932 44348636 44269160 44106324 43891932 
1326.341 43670248 43489948 43394808 43420732 43586716 43893764 44326104 
1329.717 44856960 45455892 46093416 46747008 47402100 48050076 48687604 
1333.092 49314040 49930980 50541012 51147840 51754588 52362516 52968456 
1336.467 53564220 54137156 54670148 55144240 55542140 55847588 56048924 
1339.842 56139112 56116488 55985072 55754264 55438568 55055692 54625996 
1343.218 54172512 53717440 53281724 52884580 52539812 52257156 52041356 
1346.593 51892124 51803452 51762540 51750444 51741112 51704200 51611908 
1349.968 51440848 51178968 50828584 50408000 49949752 49495292 49094728 
1353.343 48796108 48640648 48659580 48865812 49252468 49790940 50436616 
1356.719 51131740 51812224 52421468 52910068 53242508 53400860 53383664 
1360.094 53207264 52902132 52516104 52108784 51742792 51481736 51373492 
1363.469 51440588 51676168 52043896 52486224 52928180 53292328 53505264 
1366.844 53502940 53246140 52725592 51966844 51023508 49969528 48884868 
1370.219 47835764 46873292 46027544 45309348 44718512 44250152 43901248 
1373.595 43672408 43566752 43584812 43719856 43955908 44271068 44640396 
1376.970 45043560 45467296 45906692 46365560 46855688 47396740 48012400 
1380.345 48731304 49581672 50582708 51735364 53010004 54345176 55640508 
1383.720 56768624 57599588 58002436 57874804 57164272 55887760 54146724 
1387.096 52111136 49999416 48011176 46285932 44893444 43834312 43066964 
1390.471 42528976 42158112 41896440 41692252 41503000 41291132 41027284 
1393.846 40696092 40298760 39852976 39384756 38919760 38473288 38047852 
1397.221 37638372 37240256 36856640 36503636 36207744 35996924 35893412 
1400.597 35905288 36027416 36245128 36541548 36900756 37310332 37762588 
1403.972 38252396 38775400 39326932 39901208 40491672 41093276 41703344 
1407.347 42322008 42952312 43597708 44260572 44941096 45636680 46343620 
1410.722 47058772 47780056 48506692 49237364 49968224 50692392 51400868 
1414.098 52085172 52741936 53374220 53992564 54612356 55251168 55926236 
1417.473 56651576 57436900 58284800 59186072 60119168 61050340 61939988 
1420.848 62747992 63441500 63999936 64416684 64704752 64896428 65042308 
1424.223 65196440 65402620 65684096 66038652 66447012 66882616 67324200 
1427.599 67758824 68182720 68600632 69022712 69464720 69946728 70495320 
1430.974 71140776 71908192 72814152 73858280 75025928 76289536 77620600 
1434.349 78998048 80408120 81848448 83322288 84834488 86382208 87956608 
1437.724 89546744 91136840 92708544 94233840 95675792 96980968 98083336 
1441.100 98917272 99416368 99524232 99200760 98420776 97181376 95505912 
1444.475 93451864 91105864 88570256 85962592 83392016 80952688 78724576 
1447.850 76760072 75080200 73671016 72491960 71488568 70610896 69833280 
1451.225 69160240 68625200 68270688 68130896 68207648 68464840 68823152 
1454.601 69171776 69389728 69355600 68996184 68326064 67469728 66615588 
1457.976 65933548 65529676 65432972 65630408 66096096 66803240 67723624 
1461.351 68818304 70037120 71308328 72537688 73626224 74475440 75016400 
1464.726 75232256 75163984 74893272 74506592 74078992 73657864 73266000 
1468.102 72911376 72588408 72277688 71938808 71509776 70910160 70053824 
1471.477 68883800 67405376 65706492 63931792 62234636 60724904 59447052 
1474.852 58399936 57564484 56926416 56482752 56235424 56177196 56282080 
1478.227 56504112 56788824 57079052 57330604 57518900 57639240 57706368 
1481.603 57747168 57796784 57891532 58069504 58374048 58850340 59545584 
1484.978 60500704 61737852 63248584 64981080 66844552 68700832 70374096 
1488.353 71677752 72415776 72424424 71614248 69993984 67683000 64871804 
1491.728 61779752 58590248 55420308 52337136 49361596 46499296 43771308 
1495.104 41221648 38921680 36956744 35396332 34273768 33579100 33275072 
1498.479 33312276 33644436 34234832 35049716 36053984 37209716 38471152 
1501.854 39789024 41115968 42394044 43556644 44521692 45170936 45356496 
1505.229 44916444 43724916 41776404 39240716 36426228 33636164 31062000 
1508.604 28760020 26700482 24829590 23106444 21513030 20054436 18745412 
1511.980 17595906 16606560 15766289 15058109 14464112 13968776 13558433 
1515.355 13218086 12932141 12687186 12475580 12299218 12167020 12087801 
1518.730 12062966 12082044 12122895 12161091 12178810 12177890 12181195 
1522.105 12222123 12325908 12496040 12717756 12967405 13224918 13479884 
1525.481 13735752 14005492 14304987 14642589 15016672 15417718 15836043 
1528.856 16267428 16715324 17188258 17695014 18239366 18818932 19425538 
1532.231 20049020 20682992 21327462 21988538 22671356 23376722 24098012 
1535.606 24823206 25536960 26224436 26874580 27475852 28018440 28491892 
1538.982 28884902 29186760 29390678 29502480 29538902 29522870 29475776 
1542.357 29407662 29315026 29184136 29000468 28757328 28464510 28146890 
1545.732 27837136 27561458 27328472 27129224 26942508 26747348 26531810 
1549.107 26301664 26077588 25887982 25753588 25679516 25655576 25663802 
1552.483 25689498 25726938 25782594 25871102 26006342 26192304 26419750 
1555.858 26666306 26903096 27094942 27202766 27192256 27047192 26790482 
1559.233 26486024 26215778 26035718 25958784 25967508 26030616 26116714 
1562.608 26197230 26252278 26272868 26262274 26235700 26214194 26216516 
1565.984 26249990 26308212 26373484 26424680 26442814 26419046 26357394 
1569.359 26275720 26198252 26146202 26131986 26157816 26218172 26303706 
1572.734 26402566 26501064 26580136 26617828 26593346 26494688 26329510 
1576.109 26127446 25932544 25780378 25685174 25636596 25610516 25579062 
1579.485 25519460 25420062 25278998 25102662 24900114 24678932 24442686 
1582.860 24191748 23926568 23650104 23368958 23090824 22821600 22562070 
1586.235 22308588 22056056 21801268 21545690 21295410 21058110 20840128 
1589.610 20643034 20465198 20302784 20154556 20021784 19908060 19815244 
1592.986 19740930 19676544 19610606 19531266 19432052 19314258 19185446 
1596.361 19055878 18934274 18825092 18729082 18646098 18578658 18533702 
1599.736 18521082 18551166 18630224 18759458 18935104 19151476 19403466 
1603.111 19686806 19996732 20323512 20650120 20952634 21201324 21366372 
1606.487 21425822 21367486 21193322 20916300 20558188 20141784 19687500 
1609.862 19214086 18738492 18277758 17849690 17468674 17141794 16866756 
1613.237 16632311 16420392 16210433 15984936 15732480 15451502 15153001 
1616.612 14858441 14593482 14379610 14228323 14140443 14108200 14117715 
1619.988 14151910 14193435 14226131 14239826 14233971 14218804 14211854 
1623.363 14231575 14290023 14388378 14519268 14671857 14837322 15010361 
1626.738 15188548 15369898 15550327 15723789 15884258 16028905 16160840 
1630.113 16287105 16416950 16556852 16707059 16860592 17004598 17123010 
1633.489 17198774 17218354 17175022 17072898 16926906 16760228 16596783 
1636.864 16452430 16332069 16231725 16141685 16049327 15942449 15812503 
1640.239 15656423 15478936 15290539 15105208 14933812 14780240 14640121 
1643.614 14501007 14346560 14159099 13926931 13647768 13333454 13007076 
1646.990 12698649 12436163 12237016 12106983 12041640 12029615 12054040 
1650.365 12090902 12110151 12071176 11930294 11660307 11278798 10858520 
1653.740 10488848 10226574 10073571 9997583 9958695 9925878 9881200 9817852 
1657.597 9738485 9648901 9555272 9460002 9361132 9253889 9133036 8995201 
1661.455 8840163 8670950 8493762 8316611 8147838 7995195 7864468 7757932 
1665.312 7674017 7606708 7546455 7480143 7394394 7278842 7129401 6950146 
1669.170 6753532 6556604 6374896 6218539 6090833 5989467 5908009 5836842 
1673.027 5764679 5678161 5564809 5418037 5241901 5053300 4875168 4728059 
1676.885 4621084 4550060 4502283 4462444 4419362 4368688 4315007 4267422 
1680.742 4235133 4219742 4213218 4197193 4148651 4047671 3890444 3696781 
1684.599 3504942 3351484 3252158 3201519 3181558 3174215 3164736 3144911 
1688.457 3112305 3067589 3013868 2955284 2897207 2846042 2808256 2788948 
1692.314 2788481 2801820 2817027 2818395 2789648 2721624 2619509 2505353 
1696.172 2409719 2354614 2345053 2367406 2398124 2409386 2376268 2287791 
1700.029 2153542 2004723 1876086 1790771 1749916 1740901 1745724 1748818 
1703.886 1738505 1707967 1656011 1586635 1507960 1429034 1357301 1296812 
1707.744 1248161 1209019 1175794 1145096 1115198 1086099 1060091 1040062 
1711.601 1028471 1025681 1030065 1038535 1048000 1056204 1061818 1064143 
1715.459 1061054 1048034 1019304 970021 900754 820046 742571 682202 647756 
1719.798 640057 653065 677722 705167 729461 748380 763515 777821 794286 
1724.138 813904 835681 857692 878708 898895 919215 940666 962582 982374 
1728.478 997053 1004525 1005522 1003429 1002466 1004559 1006983 999677 
1732.335 967397 894944 774004 613014 437224 280470 167458 104451 82312 84334 
1737.157 94409 98783 89802 65179 28164 -15307 -58510 -95879 -125129 -145135 
1741.979 -156430 -159378 -155039 -144937 -131058 -115191 -98926 -82562 
1745.836 -66097 -49333 -33232 -19614 -11795 -12590 -24551 -48869 -85212 
1750.176 -131754 -184947 -240917 -293600 -337438 -367996 -382926 -382893 
1754.033 -372035 -357170 -346013 -345450 -358792 -384019 -414176 -440525 
1757.890 -456545 -460617 -456645 -451746 -454460 -470910 -503246 -548187 
1761.748 -599411 -648677 -689369 -717653 -732770 -736408 -730917 -719902 
1765.605 -707564 -698367 -696382 -703528 -718347 -735879 -749309 -754138 
1769.463 -749209 -739154 -732108 -737963 -762969 -807057 -861822 -915025 
1773.320 -955759 -978901 -986571 -984819 -980025 -976289 -973777 -970471 
1777.177 -963958 -953874 -942402 -933772 -932185 -939360 -953478 -969909 
1781.035 -983265 -990405 -991629 -990405 -990769 -996025 -1006670 -1020521 
1784.892 -1033842 -1043494 -1048519 -1049444 -1047593 -1043660 -1037115 
1788.268 -1026339 -1010405 -990108 -968851 -952221 -946138 -954701 -977711 
1792.125 -1010240 -1045213 -1075589 -1097205 -1109863 -1116076 -1118687 
1795.500 -1119877 -1120967 -1122058 -1123446 -1125759 -1129857 -1136401 
1798.875 -1145456 -1155667 -1165217 -1172652 -1176882 -1178534 -1178865 
1802.251 -1178600 -1177576 -1174734 -1168588 -1158542 -1145588 -1132369 
1805.626 -1121959 -1116836 -1117828 -1123644 -1131807 -1139507 -1145224 
1809.001 -1148595 -1150776 -1152792 -1155138 -1157319 -1158344 -1157980 
1812.376 -1156857 -1157055 -1160921 -1169777 -1182400 -1196543 -1207777 
1815.752 -1211742 -1206356 -1191190 -1168422 -1141358 -1112804 -1084414 
1819.127 -1056518 -1028719 -1000587 -972025 -943757 -916381 -891285 -869427 
1822.984 -851835 -840029 -834440 -834539 -837780 -839599 -835168 -820881 
1826.842 -796540 -765119 -733299 -708556 -696548 -698764 -710872 -724765 
1830.699 -731083 -723475 -701245 -668263 -630745 -594084 -561821 -534024 
1834.557 -508475 -482296 -453500 -421591 -387296 -351542 -314129 -273832 
1838.414 -228266 -175111 -113204 -43138 33632 114360 196562 277321 353850 
1842.754 423394 484126 536207 582323 627813 677954 735601 799663 865428 
1847.093 924860 969888 995226 999245 985031 958132 924262 886577 844844 
1851.433 796045 736498 665178 583949 497660 411653 330239 254577 183037 
1855.772 112769 41651 -30184 -100649 -167029 -227438 -281846 -331843 -379483 
1860.112 -425100 -467766 -505000 -534322 -555765 -571285 -584720 -599709 
1863.969 -617808 -637990 -657113 -672100 -681363 -686789 -692611 -703462 
1867.827 -722284 -747820 -775174 -797797 -810034 -809670 -798690 -781094 
1871.684 -760952 -742230 -727246 -717057 -713088 -716694 -728800 -749639 
1875.542 -777225 -808281 -838210 -863409 -882125 -895616 -906396 -917571 
1879.399 -930731 -945675 -960288 -972686 -982240 -989943 -998472 -1010306 
1883.257 -1026041 -1044387 -1062599 -1077076 -1085604 -1088380 -1087355 
1886.632 -1085141 -1083885 -1085075 -1088810 -1095354 -1105004 -1118687 
1890.007 -1136731 -1157782 -1178799 -1195948 -1205497 -1205795 -1198459 
1893.382 -1187522 -1177344 -1171661 -1170636 -1171463 -1169612 -1161516 
1896.758 -1146282 -1126024 -1105533 -1088810 -1078729 -1075226 -1076448 
1900.133 -1080183 -1085703 -1093139 -1103616 -1117497 -1133162 -1146744 
1903.508 -1154940 -1154841 -1147471 -1136566 -1127379 -1124437 -1129527 
1906.883 -1141093 -1155138 -1167861 -1177344 -1184185 -1190727 -1199451 
1910.259 -1210949 -1222943 -1231005 -1230675 -1219474 -1197072 -1165415 
1913.634 -1128238 -1089008 -1050733 -1017116 -992058 -979496 -983595 
1917.009 -1005480 -1042470 -1087256 -1130056 -1161714 -1177774 -1179327 
1920.384 -1171760 -1163400 -1160888 -1166803 -1179724 -1195386 -1208901 
1923.760 -1217161 -1220036 -1218516 -1214121 -1206522 -1193965 -1174767 
1927.135 -1148892 -1119116 -1090594 -1068747 -1056088 -1052121 -1053113 
1930.510 -1054105 -1051989 -1047725 -1045114 -1048981 -1062302 -1083323 
1933.885 -1106359 -1124636 -1132270 -1128304 -1116076 -1101898 -1091123 
1937.260 -1085339 -1082398 -1076713 -1064120 -1042536 -1013744 -983066 
1940.636 -955792 -935128 -921638 -914067 -910429 -910529 -915852 -927160 
1944.493 -943757 -962106 -975893 -979099 -968983 -947130 -919754 -894955 
1948.351 -877893 -868997 -864236 -856299 -838872 -810563 -774909 -738922 
1952.208 -710342 -694067 -690593 -697739 -711599 -729230 -749838 -773917 
1956.065 -801567 -830968 -859176 -881761 -897104 -905833 -911488 -918497 
1959.923 -928978 -941906 -954337 -962404 -964388 -963429 -965346 -974636 
1963.780 -994802 -1023628 -1053741 -1078101 -1090925 -1090231 -1079654 
1967.156 -1064219 -1047163 -1030272 -1012554 -993149 -973215 -957280 -949841 
1971.013 -954205 -968256 -984554 -992786 -985248 -958437 -917142 -869064 
1974.870 -820650 -772462 -718314 -647221 -551066 -431157 -299693 -177529 
1978.728 -85510 -37009 -33397 -66163 -119001 -177164 -230154 -274263 -310222 
1983.067 -340484 -365579 -384085 -395010 -398816 -399247 -402690 -415533 
1986.925 -439929 -473194 -508210 -537201 -555468 -563476 -566024 -569234 
1990.782 -577506 -588194 -595077 -589220 -565097 -523037 -469983 -416262 
1994.640 -372432 -345020 -334524 -337835 -349721 -365910 -382993 -400339 
1998.497 -416924 -430826 -439433 -440724 -434666 -424901 -417453 -419704 
2002.354 -436520 -469586 -515657 -569134 -622639 -668428 -701609 -717124 
2006.212 -710872 -681198 -628329 -555931 -472532 -389316 -315487 -257905 
2010.069 -217073 -187365 -162392 -135993 -105717 -74810 -48306 -29653 -18753 
2014.409 -12160 -3114 12856 36250 63124 84798 94508 89504 72801 50167 29722 
2019.713 16567 11431 13187 18489 25812 36183 51758 73132 99546 127021 150951 
2025.017 169381 183899 198186 217579 243736 273773 300165 315716 314986 
2029.356 300032 279675 264722 265484 286869 326559 378058 433808 488471 
2033.696 541184 593571 647159 700654 750404 791365 820411 839167 852745 
2038.036 868316 890959 921706 955609 985994 1005455 1010038 1001470 984533 
2042.375 965073 946875 931966 918020 903510 888735 875355 868549 873827 
2046.715 894412 931733 984201 1047303 1115331 1181309 1237362 1276274 
2050.572 1292492 1284516 1256236 1217126 1179448 1156657 1157720 1184299 
2054.430 1229919 1283519 1331708 1364679 1380235 1381099 1374651 1368003 
2058.287 1364613 1364447 1364846 1363018 1358165 1352614 1349457 1351617 
2062.145 1359594 1370463 1380036 1385254 1385022 1380734 1375947 1373155 
2066.002 1372424 1372158 1368635 1358929 1343441 1324330 1305120 1289900 
2069.859 1279996 1274247 1270260 1265508 1258795 1251617 1246267 1244839 
2073.717 1248294 1256004 1265707 1275211 1283885 1291262 1298141 1304788 
2077.574 1310538 1314393 1315689 1315323 1315589 1319743 1330179 1346964 
2081.432 1368469 1390373 1408357 1420390 1426441 1428834 1431128 1435616 
2085.289 1442564 1450775 1457690 1460882 1460450 1456759 1451174 1444027 
2089.146 1434652 1421188 1402174 1377643 1349324 1320408 1294685 1274513 
2093.004 1260855 1253279 1251351 1255605 1268299 1291462 1326125 1371061 
2096.861 1421255 1470423 1512881 1544735 1566217 1580450 1590626 1599173 
2100.719 1606822 1611611 1611777 1608052 1602931 1601933 1610879 1632962 
2104.576 1668517 1714554 1765586 1816290 1863707 1906236 1943977 1977461 
2108.434 2006087 2029090 2046367 2059251 2071169 2086517 2109124 2139690 
2112.291 2175920 2211886 2240594 2257114 2259146 2248321 2229504 2208256 
2116.148 2188807 2173988 2164598 2159403 2158304 2160369 2165297 2172357 
2120.006 2180316 2187675 2193270 2197333 2201362 2207856 2219546 2237297 
2123.863 2260511 2286991 2314205 2340322 2365574 2390628 2416682 2444171 
2127.721 2471529 2495822 2515118 2527615 2533881 2536047 2537014 2538880 
2131.578 2542180 2547646 2554911 2566243 2584009 2611708 2650678 2700152 
2135.436 2755568 2811425 2862318 2905580 2942040 2975100 3007662 3040928 
2139.293 3072661 3097355 3109369 3105064 3083406 3047768 3003158 2954416 
2143.150 2905613 2859083 2815393 2775609 2741730 2714289 2693117 2677148 
2147.008 2661112 2640277 2612175 2576109 2534914 2492856 2451435 2408786 
2150.865 2360177 2297384 2214683 2110756 1989577 1858449 1725731 1596379 
2154.723 1471487 1350919 1236199 1135196 1064807 1045908 1096961 1226098 
2158.580 1421687 1657009 1896020 2102732 2253217 2339589 2367073 2348750 
2162.438 2301880 2243026 2182780 2130534 2090313 2063945 2049130 2040708 
2166.295 2030920 2011913 1978759 1929699 1868033 1799422 1728792 1658938 
2170.152 1588364 1513214 1429432 1335896 1235402 1134930 1042653 965338 
2174.010 905535 862871 832760 810883 794020 780576 769191 758669 746953 
2178.349 730557 708818 682202 654326 630567 616432 613445 620447 632558 
2182.689 643442 648851 646860 637801 624993 611056 597353 584712 573995 
2187.029 565236 559795 559729 564606 573431 583219 590352 592642 590551 
2191.368 586371 584479 589224 601600 620812 644570 669326 692722 714261 
2195.708 733776 751500 767432 780112 788344 792095 792327 791132 790867 
2200.047 791132 790568 786087 774203 753558 726175 696372 669956 651904 
2204.387 644670 647855 659370 676328 695775 716617 737195 754852 766868 
2208.727 770486 763914 749210 731254 716650 711606 719670 738987 764279 
2213.066 789141 807697 818186 822602 824228 827017 832395 838204 841159 
2217.406 837839 826818 809987 791033 774071 761391 754255 750604 749110 
2221.745 748778 750404 755118 763880 775830 787813 797041 799696 794784 
2226.085 783066 767797 751898 737858 727038 719803 716119 717181 724284 
2230.425 739219 762420 792560 826751 861045 891823 916825 936083 950063 
2234.764 960822 969888 977625 984699 991806 999610 1008810 1020301 1032921 
2239.104 1045210 1055607 1063080 1068261 1073908 1082644 1097127 1118121 
2242.961 1143900 1171176 1197257 1220283 1240851 1261719 1285280 1313063 
2246.819 1344770 1378241 1410052 1438076 1460882 1478868 1492832 1503006 
2250.676 1508958 1510520 1507594 1501975 1497387 1498551 1508858 1529539 
2254.533 1558269 1589362 1617131 1635756 1643007 1639581 1628605 1613606 
2258.391 1597410 1581647 1565984 1550322 1534560 1519066 1504935 1492932 
2262.248 1483124 1475311 1469293 1465536 1465935 1472684 1487712 1510886 
2266.106 1540446 1571637 1599472 1619559 1629736 1629936 1622552 1610979 
2269.963 1598075 1586668 1577623 1571438 1567879 1566283 1566217 1566317 
2273.821 1566084 1565319 1564687 1566483 1573001 1587134 1610181 1641177 
2277.678 1677398 1714354 1747920 1775433 1796660 1813296 1828302 1844939 
2281.535 1864306 1886502 1910297 1933094 1952731 1967642 1976596 1979225 
2285.393 1975930 1967409 1955094 1941315 1927869 1916454 1907801 1901245 
2289.250 1894921 1886901 1875886 1861844 1847036 1833593 1824143 1820184 
2293.108 1821015 1824742 1829234 1831962 1832229 1830398 1827969 1826539 
2296.965 1827337 1830898 1836721 1844374 1853059 1862043 1870662 1878349 
2300.823 1883707 1886336 1885437 1881178 1874189 1865504 1855887 1845904 
2304.680 1835589 1824476 1813130 1801917 1792102 1784749 1780890 1780124 
2308.537 1781355 1782886 1782686 1779891 1774136 1766417 1757535 1748685 
2312.395 1740468 1732850 1725798 1719510 1714155 1710096 1707602 1705805 
2316.252 1703909 1700150 1693464 1683086 1669548 1654016 1638483 1625047 
2320.110 1615602 1611345 1613007 1620025 1630268 1639947 1643572 1635290 
2323.967 1609781 1564089 1498784 1418130 1328551 1237794 1153335 1079455 
2327.824 1018242 968991 929841 898696 874823 858024 848496 846073 849127 
2332.164 855202 862008 867951 872732 877911 884518 893748 905967 919780 
2336.504 933825 947473 960291 973574 988651 1006020 1025714 1046871 1068029 
2340.843 1088092 1107225 1126061 1145295 1165594 1186824 1209085 1233175 
2344.701 1261653 1298740 1348792 1415437 1498784 1595647 1699019 1800619 
2348.558 1891760 1964746 2014776 2039676 2040208 2019403 1982221 1934392 
2352.416 1881078 1827005 1775300 1727528 1684882 1647729 1615967 1589462 
2356.273 1567713 1550089 1535292 1522590 1510886 1500246 1491103 1484620 
2360.130 1482126 1485119 1494262 1509190 1529373 1553215 1579652 1608019 
2363.988 1638450 1671145 1706304 1744028 1783252 1823178 1863075 1903042 
2367.845 1944210 1988346 2037246 2092277 2153443 2219879 2289756 2361177 
2371.703 2432109 2501654 2569510 2635576 2700452 2764938 2829800 2895906 
2375.560 2964391 3035422 3109035 3184396 3260137 3334589 3406315 3474513 
2379.417 3538980 3599949 3658153 3713925 3767732 3819473 3869115 3917224 
2383.275 3963834 4009312 4053825 4097305 4139485 4180064 4219107 4257016 
2387.132 4294694 4332543 4370896 4409087 4445874 4479852 4510184 4536935 
2390.990 4561043 4584014 4607722 4632972 4660200 4688435 4716771 4744238 
2394.847 4770368 4795293 4819214 4842499 4865183 4887332 4909180 4931298 
2398.705 4954791 4980664 5009724 5042037 5076833 5112906 5148982 5184826 
2402.562 5220640 5257798 5297945 5342153 5391130 5444542 5501954 5562460 
2406.419 5625492 5690951 5758401 5827573 5897429 5966758 6034653 6100207 
2410.277 6163419 6224421 6284121 6342315 6399274 6454155 6506385 6555864 
2414.134 6602556 6647302 6690841 6733846 6776384 6818118 6858712 6897324 
2417.992 6934154 6969338 7003379 7036649 7069417 7101984 7134420 7167430 
2421.849 7201453 7237333 7276146 7317861 7362748 7410673 7461300 7514292 
2425.707 7569753 7627648 7687845 7750444 7815043 7881710 7951086 8023748 
2429.564 8100777 8183221 8271423 8365046 8463353 8565061 8669463 8776020 
2433.421 8884836 8996047 9109756 9225356 9342072 9459156 9576103 9693353 
2437.279 9811718 9932658 10057091 10185529 10317227 10451138 10586040 
2440.654 10720680 10854273 10986209 11116043 11242923 11366100 11484786 
2444.029 11598230 11706734 11811078 11912516 12012822 12113695 12216159 
2447.405 12321068 12428184 12536759 12644986 12750783 12851794 12946069 
2450.780 13032922 13112859 13187857 13260854 13334615 13411190 13491437 
2454.155 13574501 13659017 13743413 13826833 13909893 13993653 14079654 
2457.530 14169095 14262185 14358068 14455445 14552604 14648140 14740921 
2460.906 14830464 14916426 14998940 15078622 15157050 15235800 15317482 
2464.281 15404330 15497718 15598648 15706919 15822057 15944099 16074013 
2467.656 16213357 16364031 16527940 16705373 16895554 17097056 17307444 
2471.031 17525420 17749822 17980520 18217286 18459712 18706216 18954730 
2474.406 19202866 19448512 19690064 19926688 20157228 20380424 20594736 
2477.782 20797614 20986920 21160896 21318554 21459380 21583610 21691224 
2481.157 21781480 21854158 21908518 21944344 21962396 21963688 21949746 
2484.532 21922390 21883010 21833252 21775140 21710346 21641174 21569716 
2487.907 21497084 21423422 21347472 21266772 21178814 21080890 20971480 
2491.283 20850104 20717224 20573820 20420952 20259318 20089622 19912084 
2494.658 19726296 19532410 19329222 19116122 18891740 18655126 18406022 
2498.033 18145212 17874546 17597252 17316962 17037024 16760333 16488394 
2501.408 16221955 15960598 15704136 15452086 15204470 14961659 14724160 
2504.784 14492854 14268314 14051658 13843970 13645955 13458181 13281078 
2508.159 13114429 12958358 12812206 12676406 12550640 12434730 12328158 
2511.534 12230132 12138806 12052950 11971812 11895694 11825514 11763720 
2514.909 11711772 11670927 11641452 11622529 11612626 11610719 11615893 
2518.285 11627737 11645944 11669837 11698089 11729337 11761745 11794292 
2521.660 11827216 11861368 11898350 11939489 11985367 12035100 12087631 
2525.035 12140442 12191521 12238924 12281017 12316091 12342987 12360543 
2528.410 12368316 12366407 12355907 12338248 12315341 12288277 12257568 
2531.786 12222975 12183683 12139181 12089573 12035883 11979816 11922938 
2535.161 11867055 11812882 11760894 11710615 11661839 11614327 11567910 
2538.536 11522484 11477982 11434266 11391474 11349672 11309677 11271725 
2541.911 11236872 11204808 11175297 11147080 11118966 11089971 11059551 
2545.287 11028213 10996472 10965548 10936256 10908803 10883219 10859029 
2548.662 10835657 10812489 10789492 10766089 10742416 10718167 10693477 
2552.037 10668619 10644068 10620401 10598229 10578129 10560475 10544961 
2555.412 10531755 10520723 10511387 10503648 10496485 10489323 10481041 
2558.788 10470994 10458299 10443332 10426633 10408544 10389607 10369958 
2562.163 10349191 10327033 10303349 10278514 10253577 10229864 10208459 
2565.538 10189870 10174267 10160835 10149336 10139942 10132683 10128479 
2568.913 10128105 10131734 10138484 10147811 10158190 10168738 10179388 
2572.289 10190243 10201878 10214803 10229220 10244180 10259481 10274273 
2575.664 10288319 10302196 10316684 10332258 10350242 10370332 10392525 
2579.039 10416553 10442042 10468618 10496248 10524796 10553991 10584038 
2582.414 10614798 10646343 10679146 10713446 10749209 10786469 10824786 
2585.790 10863650 10902924 10943087 10984577 11029029 11077156 11129776 
2589.165 11186890 11247548 11310391 11373753 11436205 11496762 11554707 
2592.540 11610107 11663336 11714733 11764877 11814244 11863105 11911256 
2595.915 11958494 12004340 12048249 12089880 12129061 12165964 12200824 
2599.291 12234051 12265918 12297071 12328158 12360032 12394124 12431696 
2602.666 12473636 12520321 12571172 12624792 12680021 12735395 12790639 
2606.041 12846333 12903742 12964128 13028619 13097594 13170507 13246815 
2609.416 13325698 13406816 13490548 13576825 13665924 13757400 13850367 
2612.792 13943799 14036429 14127743 14217469 14306219 14394269 14482234 
2616.167 14570250 14658216 14745652 14832728 14918826 15003775 15087370 
2619.542 15168921 15247845 15323935 15397017 15467364 15535972 15603354 
2622.917 15670162 15736328 15801337 15864464 15924918 15982253 16036401 
2626.292 16087871 16137214 16184948 16231174 16275926 16319271 16361382 
2629.668 16402911 16444618 16487533 16532620 16579984 16629523 16680375 
2633.043 16731370 16781166 16828386 16872268 16911884 16947712 16979996 
2636.418 17009596 17037678 17064936 17092370 17120596 17150032 17180882 
2639.793 17213528 17248452 17285722 17325720 17368342 17412694 17458256 
2643.169 17504066 17549536 17594870 17640590 17687454 17736672 17789034 
2646.544 17844890 17904274 17966984 18032292 18100234 18170330 18242094 
2649.919 18315220 18388394 18460368 18529830 18595534 18656820 18714172 
2653.294 18768522 18821458 18874956 18930882 18990380 19053904 19121212 
2656.670 19191438 19262956 19334452 19404680 19472628 19538128 19601282 
2660.045 19662502 19722344 19781052 19839140 19896510 19953644 20010612 
2663.420 20068108 20126616 20186488 20247964 20310978 20374694 20438386 
2666.795 20501114 20562218 20621142 20677850 20732482 20785344 20836860 
2670.171 20887582 20937856 20988276 21039190 21090874 21143852 21198088 
2673.546 21254140 21312254 21372602 21435710 21501818 21570830 21642740 
2676.921 21716930 21793080 21870606 21949572 22029528 22110582 22192800 
2680.296 22276116 22360320 22445238 22530868 22617426 22705570 22795760 
2683.672 22888690 22984716 23083628 23185254 23289034 23394766 23502304 
2687.047 23611864 23723832 23838452 23955836 24075528 24197738 24322054 
2690.422 24448716 24577762 24709692 24844818 24983214 25124708 25268954 
2693.797 25415530 25563986 25714212 25865898 26019394 26174848 26332642 
2697.173 26492962 26656054 26822060 26990810 27161990 27335072 27509350 
2700.548 27684832 27861054 28038374 28217248 28397862 28580530 28765012 
2703.923 28950668 29136442 29321798 29506168 29689338 29871524 30052896 
2707.298 30233456 30413276 30591960 30769436 30945882 31121334 31296178 
2710.674 31470880 31645614 31820494 31995158 32169678 32343910 32518104 
2714.049 32691940 32865596 33038606 33210040 33378966 33544090 33704516 
2717.424 33859344 34008308 34151448 34289368 34422592 34552236 34679120 
2720.799 34804708 34930592 35058232 35189428 35325840 35468952 35619588 
2724.175 35778764 35946532 36123116 36307876 36500244 36699336 36904432 
2727.550 37114752 37330048 37549748 37773572 38000912 38230684 38461996 
2730.925 38693388 38923564 39151180 39375180 39594172 39807108 40012332 
2734.300 40208824 40395224 40570784 40735608 40889904 41034712 41170936 
2737.676 41299840 41422220 41538768 41650240 41757472 41861480 41963220 
2741.051 42064068 42165488 42268904 42376324 42489548 42610912 42742256 
2744.426 42885232 43040660 43208508 43387672 43576572 43773032 43974528 
2747.801 44178432 44381700 44581096 44772872 44953408 45119500 45268560 
2751.177 45398872 45509900 45601496 45673964 45727596 45762280 45777924 
2754.552 45774428 45751748 45710000 45648936 45568192 45466968 45343992 
2757.927 45198104 45027976 44832968 44613408 44369664 44103136 43815400 
2761.302 43508736 43185600 42849096 42502700 42150264 41796140 41444164 
2764.677 41098048 40760976 40436168 40126356 39834236 39562704 39313764 
2768.053 39089072 38889464 38714828 38564528 38437592 38332552 38248740 
2771.428 38184952 38140560 38114120 38104320 38109200 38126492 38153692 
2774.803 38188500 38228080 38270344 38312396 38351772 38386192 38413412 
2778.178 38431948 38440708 38439220 38426952 38404220 38370952 38327592 
2781.554 38275448 38215924 38151924 38086156 38022176 37963124 37910944 
2784.929 37867016 37830976 37801588 37776392 37752536 37726696 37696048 
2788.304 37657708 37609976 37551844 37482812 37403352 37314268 37216320 
2791.679 37110924 36999244 36883116 36764348 36646196 36531456 36423960 
2795.055 36327148 36243868 36176448 36126500 36094816 36081964 36087828 
2798.430 36112564 36156136 36218476 36299304 36398376 36515096 36648788 
2801.805 36798608 36963528 37142256 37333584 37535732 37747224 37966160 
2805.180 38190996 38420072 38651804 38884680 39116624 39345684 39569708 
2808.556 39786264 39992532 40186324 40364788 40525572 40666252 40785032 
2811.931 40880328 40951472 40998332 41021568 41022224 41001832 40962028 
2815.306 40905268 40834136 40751988 40662976 40571548 40482684 40401256 
2818.681 40332532 40280364 40249028 40241576 40260152 40306140 40379840 
2822.057 40480104 40605200 40752024 40917320 41097176 41287524 41484444 
2825.432 41683976 41882424 42076296 42262804 42440076 42606744 42762768 
2828.807 42908532 43045084 43173668 43295812 43413300 43528220 43642768 
2832.182 43759728 43882108 44012480 44153676 44308344 44478632 44666728 
2835.558 44874852 45104616 45357896 45636016 45940612 46274024 46639752 
2838.933 47042748 47490688 47992380 48558600 49200992 49930200 50756812 
2842.308 51691288 52742988 53922260 55239996 56705416 58325876 60102576 
2845.683 62027392 64077160 66211736 68373880 70483824 72450576 74177088 
2849.059 75564336 76531680 77022304 77010872 76508200 75558352 74234200 
2852.434 72620048 70809688 68894752 66951924 65047464 63232064 61538820 
2855.809 59988700 58590664 57343684 56239460 55264756 54404096 53640468 
2859.184 52957936 52343120 51784264 51272208 50799752 50361000 49951088 
2862.560 49565852 49201700 48856056 48527588 48216356 47924036 47654280 
2865.935 47412076 47202880 47032628 46905924 46825868 46793244 46806528 
2869.310 46862296 46955092 47077828 47222752 47380736 47541736 47696432 
2872.685 47835024 47949900 48036492 48092788 48120508 48123844 48109260 
2876.061 48083164 48052516 48022800 47998484 47982868 47978280 47986016 
2879.436 48006924 48041152 48088344 48148644 48221912 48308632 48409188 
2882.811 48523700 48651244 48790064 48936936 49088048 49239328 49387800 
2886.186 49532056 49672160 49809968 49948340 50090916 50240912 50401968 
2889.562 50577196 50769884 50983600 51222624 51492068 51798300 52149692 
2892.937 52555628 53028052 53579816 54223940 54972312 55832592 56805932 
2896.312 57883280 59044420 60255988 61470108 62632964 63683832 64564288 
2899.687 65228736 65646708 65810420 65733784 65451928 65014676 64476452 
2903.063 63894904 63321992 62799380 62361688 62033776 61832736 61770928 
2906.438 61856196 62093672 62487740 63041776 63760532 64649916 65715896 
2909.813 66964068 68395840 70006680 71781720 73693312 75703600 77760552 
2913.188 79801624 81762648 83574528 85172864 86506456 87535424 88239080 
2916.563 88615104 88678864 88458328 87989264 87312504 86466264 85484152 
2919.939 84395680 83222264 81980336 80682408 79337560 77954912 76544480 
2923.314 75117816 73689264 72275496 70892608 69557192 68283568 67081988 
2926.689 65959504 64918816 63958592 63073844 62256548 61497132 60783972 
2930.064 60105620 59451840 58813540 58183980 57558692 56934916 56311196 
2933.440 55686496 55060320 54432040 53801780 53170112 52538164 51907584 
2936.815 51280860 50660480 50049496 49451368 48870332 48311408 47780648 
2940.190 47284188 46827896 46416292 46051820 45734336 45461448 45227852 
2943.565 45026252 44848324 44684244 44523824 44357552 44177480 43977464 
2946.941 43755700 43513896 43258140 42997340 42742768 42506244 42298012 
2950.316 42126240 41995484 41906836 41857872 41843352 41855864 41886404 
2953.691 41925888 41965520 41997308 42015412 42015632 41995372 41954240 
2957.066 41892936 41813652 41719244 41613588 41500560 41384168 41267956 
2960.442 41154692 41046296 40944080 40848480 40759960 40678332 40603600 
2963.817 40535316 40472864 40415256 40361476 40310868 40263132 40218604 
2967.192 40178292 40143400 40115636 40096412 40087220 40089512 40105316 
2970.567 40136424 40185236 40253460 40342424 40451772 40579916 40723308 
2973.943 40876620 41032748 41183832 41320464 41433012 41512916 41552768 
2977.318 41548320 41498992 41408408 41283444 41133816 40970808 40804764 
2980.693 40645400 40500544 40375040 40272040 40191996 40133336 40091580 
2984.068 40060440 40031664 39995876 39943820 39867792 39762224 39624484 
2987.444 39454888 39256636 39034548 38794240 38541972 38283192 38022068 
2990.819 37761936 37504484 37250692 37000864 36755620 36515380 36281292 
2994.194 36054384 35835364 35623760 35418080 35215264 35011428 34802952 
2997.569 34586716 34361264 34126680 33884776 33637740 33388448 33139408 
3000.945 32892402 32649036 32410738 32178704 31954392 31739212 31533834 
3004.320 31338878 31153762 30977622 30809202 30647282 30491180 30340748 
3007.695 30196122 30057830 29926186 29801252 29682740 29569936 29461876 
3011.070 29357530 29255938 29156426 29058638 28962216 28867090 28773332 
3014.446 28681008 28590510 28502188 28416610 28334300 28255684 28181042 
3017.821 28110444 28043568 27980094 27919740 27862466 27808558 27758328 
3021.196 27712344 27671234 27634898 27603402 27576780 27555386 27540028 
3024.571 27531908 27532862 27544618 27568448 27604886 27653684 27713156 
3027.947 27780722 27852858 27925322 27993312 28052016 28096870 28124442 
3031.322 28132504 28120908 28091356 28046750 27991014 27928008 27861230 
3034.697 27792944 27724632 27657074 27590408 27524744 27460286 27397074 
3038.072 27335672 27276570 27220580 27168550 27121040 27078472 27040492 
3041.448 27006324 26974802 26944272 26914200 26884132 26855332 26829214 
3044.823 26807646 26792138 26783328 26780826 26783468 26789638 26797812 
3048.198 26806836 26816174 26825620 26835384 26845746 26857024 26869608 
3051.573 26884308 26901722 26922450 26947128 26975860 27008440 27044406 
3054.948 27083162 27124356 27167598 27212714 27259248 27307160 27355962 
3058.324 27405614 27456228 27508328 27562660 27619892 27680028 27742964 
3061.699 27807780 27873596 27939774 28006424 28074354 28145088 28220326 
3065.074 28300950 28387532 28479084 28574162 28670636 28766038 28858130 
3068.449 28945038 29024982 29097042 29160784 29216386 29264940 29308044 
3071.825 29347354 29384756 29421594 29458968 29497124 29536170 29576318 
3075.200 29617536 29660354 29704808 29751182 29799158 29848026 29896794 
3078.575 29944148 29989306 30031768 30071608 30109996 30148386 30188806 
3081.950 30232746 30281166 30333998 30389750 30446574 30502518 30556018 
3085.326 30607104 30657096 30708338 30763424 30824568 30892372 30965988 
3088.701 31043456 31122188 31200186 31276238 31350524 31423752 31497206 
3092.076 31571672 31647470 31724706 31802810 31881716 31961418 32042238 
3095.451 32124828 32209464 32296258 32385570 32477290 32571278 32667968 
3098.827 32767038 32868206 32970574 33073146 33174992 33275500 33374670 
3102.202 33473008 33571332 33670468 33770728 33872164 33974520 34077328 
3105.577 34180344 34283484 34386476 34489240 34591416 34692648 34792652 
3108.952 34891448 34989520 35087540 35186300 35286272 35387488 35489804 
3112.328 35592936 35696956 35802080 35909032 36018168 36129344 36242032 
3115.703 36354960 36466804 36576656 36683940 36788980 36892528 36994948 
3119.078 37096636 37197300 37296612 37394328 37490504 37586024 37681736 
3122.453 37778560 37876924 37976720 38077516 38178692 38279792 38381088 
3125.829 38482920 38585892 38690456 38797212 38905660 39015768 39127248 
3129.204 39239664 39352724 39465920 39578676 39690120 39799844 39907748 
3132.579 40014040 40120144 40227108 40335808 40446680 40559072 40671968 
3135.954 40784124 40894820 41003724 41111564 41219424 41328592 41439904 
3139.330 41553864 41670480 41789320 41910084 42032240 42155776 42280228 
3142.705 42405732 42531712 42657588 42782984 42907356 43030304 43151928 
3146.080 43272712 43393200 43514268 43636324 43759836 43884236 44009072 
3149.455 44133284 44256244 44377336 44496548 44614472 44731876 44849280 
3152.831 44967264 45085756 45204544 45323504 45442460 45561344 45680296 
3156.206 45799388 45918220 46036460 46153808 46269936 46385648 46501912 
3159.581 46620532 46742428 46868240 46997512 47129120 47260952 47391232 
3162.956 47519004 47643740 47766036 47886964 48007476 48128100 48249012 
3166.332 48369964 48490392 48610144 48728744 48846344 48963120 49079408 
3169.707 49195988 49313152 49431536 49550848 49670784 49790384 49908344 
3173.082 50023916 50136548 50246524 50354896 50462556 50570308 50678424 
3176.457 50786420 50893176 50998132 51100988 51202268 51303384 51405568 
3179.833 51509452 51615268 51722152 51829064 51935400 52040908 52145880 
3183.208 52251292 52357732 52465472 52574512 52684368 52794468 52905048 
3186.583 53015960 53127684 53240108 53353016 53465536 53577152 53687108 
3189.958 53795552 53902940 54009640 54116292 54222588 54327976 54431624 
3193.333 54532972 54631668 54728140 54822932 54916812 55010068 55102976 
3196.709 55195332 55287748 55380408 55474408 55570196 55668228 55768128 
3200.084 55868916 55969200 56067964 56164340 56258316 56350280 56441016 
3203.459 56531360 56622060 56713872 56807328 56902544 56999060 57095604 
3206.834 57190804 57282400 57369020 57450324 57527904 57604548 57683704 
3210.210 57768548 57860604 57958624 58059812 58160300 58256304 58345696 
3213.585 58428552 58506644 58583196 58661316 58743776 58831560 58924716 
3216.960 59021800 59121376 59221504 59320476 59417420 59511156 59601684 
3220.335 59689524 59775604 59861200 59947616 60035760 60125940 60218228 
3223.711 60312444 60408084 60505160 60603360 60702420 60801848 60901184 
3227.086 60999852 61097556 61194440 61291156 61388044 61485640 61583800 
3230.461 61682128 61779984 61877172 61974116 62071540 62170284 62270696 
3233.836 62372244 62473584 62573420 62670632 62765188 62858344 62951640 
3237.212 63046640 63144268 63243836 63344724 63445756 63546696 63648304 
3240.587 63752092 63859208 63969760 64082496 64194724 64303904 64408192 
3243.962 64507508 64603812 64700520 64800708 64907044 65020332 65140000 
3247.337 65264432 65392256 65522432 65654224 65787444 65921204 66054432 
3250.713 66185304 66312312 66434696 66552548 66667236 66780744 66895024 
3254.088 67011424 67130368 67251232 67373448 67495824 67617528 67738064 
3257.463 67857208 67975256 68091864 68207384 68321528 68434080 68544448 
3260.838 68652128 68756536 68857200 68954792 69050024 69144656 69239976 
3264.214 69337368 69436920 69537792 69638328 69736120 69829544 69917456 
3267.589 69999784 70077336 70151752 70224696 70297736 70371840 70447856 
3270.964 70525136 70602792 70679240 70752944 70822824 70888744 70951864 
3274.339 71014568 71079696 71150024 71226968 71310248 71397992 71487480 
3277.715 71575960 71661616 71744424 71825264 71905960 71988432 72073968 
3281.090 72163120 72255896 72352208 72451752 72554528 72660272 72768160 
3284.465 72877280 72986704 73095528 73203648 73312088 73422216 73535472 
3287.840 73653192 73775296 73901488 74030664 74161880 74294424 74428680 
3291.216 74564968 74704488 74848152 74996784 75151376 75312536 75481112 
3294.591 75657296 75840840 76031104 76227056 76427832 76632544 76841496 
3297.966 77055224 77274520 77499744 77730832 77966448 78204968 78444976 
3301.341 78685384 78926560 79169344 79415248 79666464 79924560 80191016 
3304.717 80467328 80754552 81053064 81362776 81682696 82010864 82344848 
3308.092 82682536 83022288 83364032 83708656 84057536 84412256 84773544 
3311.467 85141504 85515784 85895720 86281440 86673256 87071848 87477424 
3314.842 87889624 88307288 88728648 89152176 89577088 90003184 90431128 
3318.218 90861672 91295288 91732040 92171248 92611592 93052136 93491640 
3321.593 93929168 94364136 94795832 95224448 95650424 96074840 96499216 
3324.968 96924424 97349928 97774016 98194032 98605928 99007280 99396744 
3328.343 99774472 100141552 100499264 100847144 101183600 101505624 
3331.236 101809496 102092152 102351896 102588000 102800424 102988712 
3334.129 103151752 103288872 103399264 103484232 103546472 103590256 
3337.022 103619024 103635224 103638288 103625336 103592064 103534272 
3339.916 103448368 103332968 103187728 103013200 102809616 102576960 
3342.809 102314616 102022672 101701776 101353160 100978360 100578496 
3345.702 100154288 99705560 99232360 98735512 98216920 97679152 97124488 
3349.077 96555208 95971760 95373864 94761208 94133904 93493248 92842040 
3352.452 92183376 91520136 90854112 90186416 89517304 88847272 88178064 
3355.827 87511832 86851440 86199280 85556696 84923880 84300720 83687008 
3359.203 83083464 82492184 81915384 81355696 80814376 80290904 79783944 
3362.578 79290712 78808672 78335624 77870344 77412416 76961864 76519312 
3365.953 76085504 75661592 75249320 74850200 74465328 74094944 73737800 
3369.328 73391888 73054328 72722520 72394872 72070608 71749744 71432512 
3372.704 71118216 70805816 70492984 70176992 69855544 69526944 69190312 
3376.079 68845904 68494048 68135432 67770672 67400072 67023872 66641972 
3379.454 66254340 65860048 65458244 65047888 64627804 64197720 63757852 
3382.829 63309036 62852868 62390836 61924360 61454420 60981780 60506724 
3386.205 60029676 59551248 59071944 58592828 58114884 57638976 57166120 
3389.580 56697372 56233652 55775924 55324704 54880416 54443308 54013204 
3392.955 53589896 53172620 52760120 52350672 51941976 51531760 51117912 
3396.330 50700172 50279524 49858836 49442344 49034184 48637456 48253384 
3399.706 47880452 47515564 47154380 46793020 46428568 46060144 45688464 
3403.081 45315304 44943084 44573644 44208332 43847944 43492548 43141612 
3406.456 42794576 42450488 42108460 41767908 41428200 41089380 40751808 
3409.831 40416604 40084604 39756848 39434096 39116624 38804672 38498380 
3413.207 38197652 37902884 37613300 37328384 37047268 36768748 36492172 
3416.582 36217180 35944016 35673612 35406860 35144264 34886172 34631856 
3419.957 34380200 34130624 33882556 33636520 33393278 33153784 32918636 
3423.332 32687974 32461222 32237690 32016664 31797640 31580758 31366478 
3426.708 31155080 30946808 30741234 30537886 30336272 30135852 29936516 
3430.083 29737982 29540568 29344272 29148596 28953572 28758994 28564960 
3433.458 28372642 28182916 27997164 27815940 27639064 27466180 27295694 
3436.833 27126472 26956928 26786924 26616632 26446582 26277128 26108480 
3440.208 25940246 25771658 25602432 25432254 25262106 25093394 24927450 
3443.584 24765182 24606166 24448786 24290516 24129222 23963224 23793056 
3446.959 23620822 23449352 23282496 23121856 22968228 22820274 22675860 
3450.334 22532438 22389170 22245180 22101378 21958668 21817330 21676874 
3453.709 21536254 21394286 21249896 21103430 20955868 20808982 20664264 
3457.085 20522754 20384140 20247654 20112074 19976506 19840492 19704558 
3460.460 19568942 19434408 19301128 19168998 19037840 18907798 18778866 
3463.835 18651424 18525680 18401426 18278380 18155854 18033328 17910800 
3467.210 17788310 17666508 17545464 17425318 17305478 17185432 17064522 
3470.586 16943166 16821912 16701791 16584013 16468845 16356530 16246205 
3473.961 16137524 16030349 15925502 15824428 15728392 15637804 15552422 
3477.336 15470352 15389087 15306018 15219157 15127680 15032313 14933949 
3480.711 14834373 14735128 14637688 14543319 14453012 14367726 14288413 
3484.087 14214730 14145920 14079894 14014595 13947665 13877905 13805524 
3487.462 13731820 13659529 13591115 13527874 13470075 13416248 13364444 
3490.837 13311963 13257643 13201315 13144072 13087520 13034151 12985533 
3494.212 12942177 12903742 12869269 12837563 12807702 12779855 12754571 
3497.588 12733177 12717038 12706735 12702095 12702129 12705097 12709294 
3500.963 12713149 12716322 12719563 12724477 12733621 12749282 12773133 
3504.338 12805654 12846470 12894219 12947195 13003388 13061773 13121840 
3507.713 13183623 13248079 13316473 13389936 13469426 13554913 13645818 
3511.089 13740985 13838805 13937674 14036258 14133700 14230137 14325259 
3514.464 14419238 14512039 14603009 14691290 14776469 14857550 14934223 
3517.839 15006416 15073511 15135229 15190401 15237859 15275679 15302483 
3521.214 15316659 15316864 15302483 15272864 15228353 15168852 15095226 
3524.590 15007926 14906961 14791998 14662054 14515910 14353273 14174539 
3527.965 13981847 13778469 13568450 13355424 13142058 12930025 12719461 
3531.340 12509920 12300378 12090255 11878598 11664425 11446921 11225209 
3534.715 10999224 10769520 10538511 10308880 10084051 9866421 9657066 
3538.091 9455498 9260388 9070136 8883652 8700698 8521908 8348360 8180318 
3541.948 8017606 7859239 7703763 7549928 7396551 7242959 7088647 6933447 
3545.805 6777393 6620858 6465186 6312460 6165502 6026086 5895749 5773443 
3549.663 5657113 5543364 5428974 5311595 5190527 5066810 4942223 4818912 
3553.520 4698483 4581971 4469742 4361726 4258354 4159690 4065631 3975738 
3557.378 3888773 3803396 3718302 3633092 3548400 3465462 3385678 3310082 
3561.235 3238838 3171145 3106365 3043831 2983007 2923859 2865053 2804288 
3565.093 2737729 2660812 2569276 2461932 2341322 2213618 2087283 1970671 
3568.950 1869131 1784117 1713722 1653883 1599838 1547562 1493663 1436414 
3572.807 1374983 1309507 1240585 1169016 1096164 1023589 952421 883755 
3576.665 817689 753690 690631 627813 564606 501541 439546 380048 324039 
3581.004 272082 224408 180783 141173 105611 73795 45462 19019 -7720 -38268 
3585.826 -76002 -123969 -183192 -252408 -327638 -403583 -475014 -538392 
3589.684 -592297 -637527 -676699 -712889 -749276 -788139 -830769 -876967 
3593.541 -925474 -974504 -1021744 -1065541 -1105004 -1139805 -1170339 
3596.916 -1197072 -1220928 -1242867 -1263813 -1285188 -1308379 -1334145 
3600.292 -1363245 -1395382 -1429433 -1463778 -1496535 -1525988 -1551410 
3603.667 -1572111 -1588453 -1601196 -1611198 -1620474 -1631368 -1647146 
3607.042 -1670614 -1704511 -1748702 -1801434 -1858449 -1914335 -1965068 
3610.417 -2008638 -2046070 -2079673 -2113406 -2149280 -2187392 -2225138 
3613.792 -2258992 -2284932 -2301840 -2310739 -2316045 -2323197 -2337863 
3617.168 -2364095 -2403671 -2455665 -2516218 -2579727 -2640954 -2695619 
3620.543 -2740993 -2777111 -2804831 -2825933 -2842227 -2854506 -2862702 
3623.918 -2865664 -2861813 -2850259 -2831726 -2809670 -2790313 -2782411 
3627.293 -2795416 -2835677 -2903944 -2991682 -3083843 -3162960 -3218152 
3630.669 -3246567 -3253769 -3248573 -3240812 -3237688 -3243180 -3256729 
3634.044 -3275047 -3293626 -3308325 -3317170 -3320919 -3321840 -3323089 
3637.419 -3327134 -3336077 -3350051 -3368299 -3389505 -3412222 -3435069 
3640.794 -3456699 -3475797 -3491245 -3501730 -3506200 -3504097 -3495683 
3644.170 -3481582 -3463503 -3443221 -3422873 -3404924 -3391609 -3385329 
3647.545 -3388518 -3403510 -3431716 -3473890 -3528057 -3589808 -3652141 
3650.920 -3706745 -3746725 -3767616 -3768865 -3753722 -3728493 -3700799 
3654.295 -3678557 -3668766 -3675239 -3697513 -3731187 -3769226 -3804306 
3657.671 -3831566 -3849465 -3859219 -3863752 -3865788 -3867627 -3870911 
3661.046 -3875738 -3882208 -3889695 -3897543 -3904702 -3909988 -3911565 
3664.421 -3907394 -3895540 -3874884 -3844901 -3806769 -3763215 -3718243 
3667.796 -3676520 -3642382 -3617936 -3601802 -3586620 -3560889 -3512051 
3671.172 -3429349 -3307799 -3148059 -2956306 -2743002 -2522510 -2315617 
3674.547 -2148324 -2046466 -2029943 -2102492 -2251245 -2452502 -2683007 
3677.922 -2924152 -3161940 -3386414 -3588362 -3759864 -3895868 -3995915 
3681.297 -4063803 -4106802 -4132961 -4148681 -4157477 -4160135 -4156230 
3684.673 -4145498 -4129252 -4111102 -4095577 -4087929 -4091933 -4109297 
3688.048 -4138244 -4174279 -4212181 -4246898 -4275541 -4297228 -4311729 
3691.423 -4319569 -4321177 -4317207 -4308907 -4298343 -4287451 -4278199 
3694.798 -4272195 -4269734 -4269996 -4270915 -4269898 -4264944 -4254936 
3698.174 -4240827 -4224519 -4210016 -4201451 -4202928 -4217104 -4244469 
3701.549 -4282365 -4325770 -4368874 -4405677 -4431916 -4445493 -4446313 
3704.924 -4435753 -4415844 -4388817 -4356999 -4322555 -4287680 -4254576 
3708.299 -4225602 -4203551 -4190753 -4189145 -4200073 -4222879 -4255429 
3711.675 -4293159 -4330428 -4361362 -4381044 -4387145 -4380224 -4363035 
3715.050 -4340072 -4316453 -4296703 -4284039 -4279642 -4282858 -4291847 
3718.425 -4304314 -4318290 -4333249 -4349258 -4366873 -4386456 -4407218 
3721.800 -4427521 -4445658 -4459858 -4469369 -4475075 -4478617 -4482027 
3725.176 -4486553 -4492128 -4497473 -4499801 -4495768 -4482749 -4459792 
3728.551 -4427324 -4387899 -4345092 -4302969 -4265173 -4234232 -4210836 
3731.926 -4193575 -4180679 -4170374 -4163712 -4163548 -4174575 -4200368 
3735.301 -4241714 -4294209 -4349618 -4397575 -4430440 -4445231 -4443493 
3738.677 -4429161 -4406825 -4379436 -4347880 -4311532 -4270784 -4227702 
3742.052 -4188161 -4160759 -4154753 -4176577 -4224027 -4284465 -4337809 
3745.427 -4366578 -4363823 -4334135 -4288107 -4238366 -4196595 -4170440 
3748.802 -4162629 -4171719 -4192624 -4219499 -4247849 -4275640 -4301624 
3752.177 -4324753 -4342435 -4351718 -4350242 -4338170 -4317667 -4292569 
3755.553 -4266879 -4244273 -4226751 -4214774 -4208342 -4207095 -4211033 
3758.928 -4220844 -4235873 -4254510 -4273080 -4287319 -4293652 -4290371 
3762.303 -4279085 -4263237 -4247390 -4235151 -4228063 -4224946 -4222387 
3765.678 -4216021 -4203289 -4184289 -4161874 -4140936 -4126757 -4123508 
3769.054 -4132731 -4153473 -4181926 -4212936 -4241648 -4264812 -4280725 
3772.429 -4289846 -4293389 -4293159 -4290601 -4286598 -4281545 -4275246 
3775.804 -4267339 -4258218 -4248735 -4240466 -4234888 -4233051 -4234691 
3779.179 -4238334 -4240893 -4239876 -4233083 -4221205 -4205651 -4189342 
3782.555 -4175100 -4164139 -4156788 -4152291 -4149010 -4146220 -4143824 
3785.930 -4142117 -4142347 -4144644 -4148583 -4152948 -4156131 -4157214 
3789.305 -4156591 -4155343 -4155147 -4157345 -4161973 -4167781 -4172376 
3792.680 -4173754 -4170965 -4164434 -4156591 -4149863 -4146942 -4148484 
3796.056 -4152488 -4155310 -4152587 -4140542 -4118388 -4087929 -4054086 
3799.431 -4024214 -4005862 -4005599 -4025461 -4061866 -4104538 -4140936 
3802.806 -4160890 -4159938 -4140017 -4108181 -4074734 -4049983 -4042696 
3806.181 -4056319 -4089209 -4132370 -4174017 -4204273 -4217826 -4214839 
3809.557 -4199253 -4176183 -4150289 -4124033 -4098137 -4072239 -4045814 
3812.932 -4019716 -3996768 -3980780 -3975953 -3984424 -4004713 -4030615 
3816.307 -4053003 -4063114 -4055760 -4031600 -3996374 -3959110 -3929789 
3819.682 -3917410 -3927622 -3959996 -4007307 -4057107 -4097251 -4119865 
3823.058 -4123968 -4113727 -4096791 -4080281 -4069974 -4068431 -4075423 
3826.433 -4087765 -4101616 -4113203 -4121014 -4124690 -4125346 -4124230 
3829.808 -4121966 -4118224 -4112021 -4101715 -4086320 -4065247 -4038986 
3833.183 -4008587 -3975428 -3941380 -3908675 -3880007 -3858464 -3846411 
3836.559 -3845787 -3856198 -3875640 -3900071 -3924765 -3945944 -3961802 
3839.934 -3972374 -3979335 -3985244 -3992303 -4002218 -4015711 -4032979 
3843.309 -4052839 -4073716 -4093214 -4108739 -4118093 -4119504 -4112185 
3846.684 -4096758 -4074143 -4045552 -4011903 -3973294 -3929723 -3881715 
3850.060 -3831107 -3782595 -3743440 -3723434 -3732205 -3776387 -3853833 
3853.435 -3951525 -4048900 -4126692 -4173459 -4188948 -4180187 -4156394 
3856.810 -4125477 -4092951 -4061604 -4031961 -4003564 -3976249 -3949949 
3860.185 -3925619 -3904899 -3889563 -3881124 -3880927 -3890056 -3908183 
3863.561 -3934123 -3965315 -3996571 -4022211 -4036852 -4037246 -4023951 
3866.936 -4001233 -3976577 -3957337 -3950080 -3957633 -3977398 -4001594 
3870.311 -4019716 -4024476 -4013150 -3989808 -3962098 -3939278 -3928081 
3873.686 -3931792 -3948045 -3970733 -3991351 -4002940 -4001857 -3989250 
3877.062 -3969551 -3948866 -3933762 -3928902 -3936816 -3955630 -3980583 
3880.437 -4004943 -4021357 -4024837 -4014168 -3991712 -3962754 -3934189 
3883.812 -3913567 -3906114 -3914191 -3935174 -3961671 -3984325 -3994273 
3887.187 -3987083 -3963378 -3928640 -3890384 -3856264 -3833373 -3825293 
3890.563 -3832223 -3850155 -3873176 -3894719 -3910185 -3917771 -3917968 
3893.938 -3912221 -3902797 -3890844 -3877019 -3861847 -3845623 -3829103 
3897.313 -3813404 -3799478 -3788770 -3781215 -3776124 -3772379 -3768799 
3900.688 -3764759 -3760587 -3758320 -3760127 -3768273 -3784139 -3806934 
3904.063 -3834490 -3862963 -3887954 -3906114 -3915603 -3916195 -3909463 
3907.439 -3897806 -3884276 -3870911 -3859548 -3850713 -3844408 -3839712 
3910.814 -3835770 -3831172 -3824439 -3814750 -3801284 -3783876 -3763675 
3914.189 -3742487 -3722974 -3708552 -3701292 -3702639 -3711837 -3725471 
3917.564 -3739235 -3748827 -3750995 -3744162 -3729741 -3709768 -3687658 
3920.940 -3666072 -3647607 -3633379 -3624541 -3621518 -3624409 -3633084 
3924.315 -3646588 -3663509 -3681547 -3698335 -3711476 -3720083 -3723533 
3927.690 -3722547 -3717948 -3710490 -3701160 -3690581 -3679740 -3669522 
3931.065 -3661636 -3657267 -3656807 -3659731 -3664593 -3669357 -3672150 
3934.441 -3672314 -3669982 -3666499 -3663476 -3661932 -3661998 -3662392 
3937.816 -3661111 -3656445 -3647541 -3635285 -3621485 -3609064 -3600717 
3941.191 -3598384 -3602262 -3611298 -3622898 -3634628 -3643697 -3649052 
3944.566 -3650235 -3648067 -3643861 -3639195 -3635187 -3632427 -3630981 
3947.942 -3630455 -3630258 -3629634 -3628418 -3626545 -3624442 -3622503 
3951.317 -3620663 -3618659 -3615833 -3611627 -3605252 -3596971 -3587474 
3954.692 -3577846 -3569302 -3562795 -3558720 -3557077 -3556945 -3557537 
3958.067 -3558062 -3557602 -3555663 -3552476 -3548137 -3543438 -3539001 
3961.443 -3536142 -3535517 -3537686 -3542288 -3548105 -3553231 -3555893 
3964.818 -3554053 -3546987 -3534893 -3518920 -3500449 -3481582 -3463635 
3968.193 -3447528 -3433984 -3422939 -3414523 -3408671 -3405121 -3403510 
3971.568 -3403017 -3402688 -3401767 -3399861 -3396705 -3392792 -3388979 
3974.944 -3385757 -3383653 -3382864 -3383291 -3384573 -3386513 -3388880 
3978.319 -3391543 -3393976 -3395521 -3395422 -3393055 -3388222 -3381187 
3981.694 -3372968 -3364584 -3357383 -3352188 -3349328 -3348308 -3348769 
3985.069 -3349591 -3349985 -3349525 -3348046 -3345875 -3343837 -3342850 
3988.445 -3343409 -3346500 -3351695 -3358731 -3366392 -3373428 -3378721 
3991.820 -3381680 -3382370 -3381318 -3379543 -3377932 -3377011 -3377077 
3995.195 -3377833 -3379083 -3380858 -3383390 -3386677 -3390886 -3395981 
3998.570 -3400945 -3404858 -3407027 -3406797 -3404332 
##END=
