
##TITLE=Z413_3_e
##JCAMP-DX=5.01  $$ Nicolet v. 1
##DATATYPE=INFRARED SPECTRUM
##ORIGIN=UniL
##OWNER=Nicolet
##LONGDATE=2011/09/21
##TIME=15:40:45
##SPECTROMETER/DATA SYSTEM=Nicolet iS5
##DATA PROCESSING=
Ratio against background
%Transmittance->Absorbance
Truncated
ElementMultiply or ElementDivide
##COMMENTS=
Number of sample scans: 32
Collection length: 51.20 sec
Sample gain: 2.0
Background collected on: Mer Sep 21 15:28:47 2011 (GMT+02:00);
Number of background scans: 32
Background gain: 2.0
Sample spacing:  1.000
Number of scan points: 12415
Resolution points: 8192
Number of FFT points: 65536
Apodization: N-B fort;
Phase correction: Mertz;
Laser frequency: 15798.0 cm-1
Number of rejected sample scans: 0
Number of rejected background scans: 0
Bench serial number: ASB1000141;
##RESOLUTION=4.000
##XUNITS=1/CM
##YUNITS=ABSORBANCE
##FIRSTX=649.893372
##LASTX=4000.122314
##FIRSTY=0.124807
##MAXX=4000.122314
##MINX=649.893372
##MAXY=0.292031
##MINY=-0.000907
##XFACTOR=1.000000
##YFACTOR=1.000000E-009
##NPOINTS=6950
##DELTAX=0.482117
##ZPD=6100
##XYDATA=(X++(Y..Y))
649.893 124807328 124100416 123463160 122896792 122383024 121901232 
652.786 121444336 121028768 120687832 120459400 120364656 120397832 
655.679 120527088 120711680 120916088 121124096 121341888 121585736 
658.571 121868368 122189816 122535672 122888656 123241488 123603544 
661.464 123999712 124457680 124998472 125625016 126326400 127085056 
664.357 127889768 128738376 129627776 130540968 131422904 132161824 
667.250 132615848 132668960 132317584 131684112 130950288 130258056 
670.142 129658688 129134224 128628224 128084808 127469448 126781984 
673.035 126048104 125305000 124576712 123863304 123144160 122393432 
675.928 121596432 120758624 119902168 119052928 118227800 117426816 
678.820 116637784 115846640 115049984 114256768 113485264 112748848 
681.713 112048112 111367264 110682392 109972520 109232528 108475000 
684.606 107726640 107014408 106353208 105742808 105169560 104617808 
687.498 104077704 103551600 103050672 102587328 102166016 101780552 
690.391 101415936 101057472 100698472 100344104 100008640 99709736 99461024 
693.766 99267712 99129480 99045776 99020344 99064296 99192096 99414456 
697.141 99731904 100132088 100593528 101090752 101605632 102130640 102669920 
700.516 103232520 103825264 104447224 105088432 105733760 106367648 
703.408 106980496 107568240 108129528 108662624 109162192 109620704 
706.301 110032920 110399384 110728352 111032936 111326160 111615608 
709.194 111902328 112184392 112463584 112750184 113065592 113435704 
712.086 113880960 114406880 114997864 115618568 116220816 116759632 
714.979 117200952 117528208 117742816 117857544 117892056 117867496 
717.872 117810864 117757024 117747464 117833680 118065744 118478792 
720.765 119082616 119848768 120709968 121558864 122270296 122721856 
723.657 122809864 122480792 121741176 120663424 119366808 117997216 
726.550 116699080 115573952 114675520 114004376 113523992 113180040 
729.443 112922296 112720792 112564048 112454568 112396536 112387648 
732.335 112415680 112464272 112518672 112572160 112628336 112696576 
735.228 112785272 112896640 113025528 113162840 113300576 113435272 
738.121 113569392 113707520 113852112 114000704 114147120 114284784 
741.013 114412576 114535968 114665728 114811800 114978128 115159248 
743.906 115343432 115516840 115672024 115810952 115943992 116083536 
746.799 116236792 116401192 116565360 116713768 116833080 116919552 
749.692 116977464 117017064 117047736 117074504 117097456 117115592 
752.584 117129824 117146704 117175352 117224256 117295224 117381960 
755.477 117471016 117548880 117607744 117649400 117683632 117723000 
758.370 117776752 117846200 117926304 118009568 118092360 118178824 
761.262 118279704 118406496 118566768 118759360 118975536 119204416 
764.155 119441000 119692688 119983360 120349752 120831832 121466424 
767.048 122272664 123241704 124327424 125444960 126478880 127287344 
769.940 127739128 127739312 127255232 126335440 125103552 123739752 
772.833 122420224 121288128 120416936 119799424 119362792 118997408 
775.726 118601160 118095624 117442312 116636312 115685640 114593984 
778.619 113350688 111930488 110305104 108456368 106383648 104107560 
781.511 101664800 99105752 96484456 93856000 91276648 88795240 86452592 
784.886 84278392 82286456 80478024 78844432 77373656 76053832 74877560 
788.261 73841352 72944144 72184480 71559120 71062912 70689960 70436056 
791.636 70299024 70280360 70383216 70612576 70973720 71471928 72112072 
795.010 72897192 73826816 74894328 76087472 77388944 78780984 80253912 
798.385 81813816 83488784 85326000 87389000 89738952 92411504 95395736 
801.760 98609672 101899440 105022936 107687616 109599168 110487056 110186968 
805.135 108673344 106079096 102665168 98771744 94757248 90893608 87340056 
808.510 84122168 81156544 78298728 75403336 72383680 69227808 66001348 
811.885 62811896 59784692 57022788 54586244 52496432 50739160 49280636 
815.259 48077796 47088276 46274544 45600796 45037052 44558004 44144140 
818.634 43784208 43473576 43211548 42998912 42834396 42714984 42635984 
822.009 42593880 42587304 42617456 42686684 42796588 42947080 43136376 
825.384 43362224 43623608 43920712 44254044 44623324 45025700 45456996 
828.759 45913988 46398664 46921244 47502628 48175336 48977732 49952836 
832.133 51142552 52577732 54271168 56203444 58315076 60490496 62557764 
835.508 64316316 65539928 66031672 65671100 64433208 62408240 59773928 
838.883 56775532 53662512 50648528 47901316 45515532 43526132 41922604 
842.258 40666108 39704204 38979888 38442696 38046840 37753620 37535840 
845.633 37374608 37260148 37189320 37161092 37172932 37219788 37293544 
849.008 37386416 37493540 37614384 37752392 37912352 38097876 38309208 
852.382 38543636 38797028 39066556 39352868 39659768 39993116 40359112 
855.757 40762760 41208060 41698968 42241404 42843068 43514888 44269600 
859.132 45120348 46083468 47178244 48426600 49854860 51486176 53331848 
862.507 55380708 57589184 59878204 62128728 64205788 65972076 67307056 
865.882 68137528 68445016 68274800 67724160 66936388 66080852 65316268 
869.256 64789788 64614348 64857840 65552100 66691460 68241848 70139880 
872.631 72298200 74609344 76933616 79114960 80991576 82401128 83218088 
876.006 83369088 82844224 81699176 80043864 78027432 75801384 73510784 
879.381 71275880 69173992 67246016 65495768 63901312 62425532 61031540 
882.756 59694924 58409068 57188084 56059596 55059604 54219848 53561072 
886.131 53091176 52805356 52691136 52732588 52916092 53231380 53671136 
889.505 54230136 54903840 55688076 56581064 57584720 58706524 59957584 
892.880 61352892 62908516 64637692 66550656 68651312 70933176 73371840 
896.255 75917824 78492808 80976880 83223544 85075392 86375136 87005696 
899.630 86906400 86083408 84607960 82605776 80242952 77687608 75106632 
903.005 72646376 70411112 68473144 66868744 65603620 64664452 64027356 
906.379 63667528 63562728 63697456 64062872 64654372 65470612 66511424 
909.754 67778232 69272304 70994864 72941712 75100216 77442560 79920576 
913.129 82471232 85017120 87476328 89782096 91886808 93773224 95455792 
916.504 96978104 98404648 99803656 101240368 102754448 104345752 105961520 
919.879 107493792 108794384 109681400 109989888 109606552 108501072 
922.771 106750048 104537296 102147024 99900448 98132224 97143672 97132448 
926.146 98179368 100213464 103027864 106278512 109534056 112370744 114392264 
929.521 115322560 115044328 113586352 111099896 107795216 103910032 99653088 
932.896 95189912 90658104 86163800 81800008 77659984 73827368 70377920 
936.271 67374496 64856612 62845364 61344576 60345376 59828272 59761724 
939.646 60101320 60778140 61697364 62747344 63794576 64707100 65374888 
943.020 65714000 65686488 65300592 64608508 63692964 62651032 61585592 
946.395 60580388 59697624 58974240 58421616 58033188 57790880 57673676 
949.770 57659940 57729604 57865752 58051024 58268352 58502928 58742296 
953.145 58979704 59214020 59448840 59691088 59946628 60220932 60516852 
956.520 60836648 61182500 61557068 61963340 62402312 62872856 63370952 
959.894 63890488 64426368 64975464 65537268 66113456 66705792 67314368 
963.269 67937512 68572160 69216304 69870288 70537576 71223488 71932544 
966.644 72667360 73427360 74210536 75014976 75841744 76694728 77580152 
970.019 78504040 79469912 80478896 81529688 82622016 83758240 84943504 
973.394 86185584 87491608 88865888 90309304 91820576 93398248 95043032 
976.768 96758784 98550840 100424184 102382048 104425648 106556264 108778632 
980.143 111102632 113544048 116120368 118847352 121734288 124781928 
983.036 127980736 131310672 134742016 138228320 141698912 145061664 
985.929 148191136 150938576 153158256 154712096 155501008 155482464 
988.821 154673632 153152640 151043408 148515664 145756384 142951440 
991.714 140284032 137901104 135909792 134377520 133326768 132748336 
994.607 132611040 132877768 133511512 134480608 135761424 137331744 
997.500 139168192 141246544 143538704 146014816 148644768 151391536 
1000.392 154207120 157030160 159776000 162346960 164643472 166570688 
1003.285 168060000 169078192 169629984 169757600 169536512 169074112 
1006.178 168491120 167921456 167501856 167347072 167552048 168179904 
1009.070 169258128 170788528 172752304 175123888 177873024 180969856 
1011.963 184384752 188080576 192014880 196143648 200421312 204809792 
1014.856 209276528 213782000 218269440 222648256 226778336 230488784 
1017.748 233589248 235899248 237298592 237745328 237300480 236116368 
1020.641 234437536 232572496 230834064 229542128 228967664 229297824 
1023.534 230641248 233010768 236341328 240498816 245313744 250607312 
1026.427 256187408 261874944 267496320 272868736 277819968 282187744 
1029.320 285832512 288662848 290633920 291746528 292031168 291534976 
1032.213 290310688 288408128 285882176 282791072 279191360 275136928 
1035.106 270669344 265816752 260603072 255059504 249236560 243216192 
1037.999 237103600 231015824 225076256 219389728 214041456 209098048 
1040.892 204599312 200561792 196971616 193779856 190897472 188195856 
1043.785 185534816 182770064 179788224 176534592 173017936 169313424 
1046.678 165538480 161844544 158383920 155287232 152665168 150589424 
1049.571 149094592 148182416 147824608 147970832 148553392 149502672 
1052.464 150751136 152235712 153904496 155704736 157575568 159446560 
1055.357 161226800 162809856 164091920 164971216 165367728 165233328 
1058.250 164551936 163346176 161673680 159633376 157355504 154988544 
1061.144 152700960 150649920 148970208 147772128 147124544 147061312 
1064.037 147582992 148661344 150240256 152233184 154533568 157005952 
1066.930 159494144 161847328 163917936 165585344 166769616 167424480 
1069.823 167536896 167117072 166191008 164793792 162965488 160754016 
1072.716 158210000 155385328 152337216 149124640 145813392 142484928 
1075.609 139229040 136147680 133351488 130938992 128997608 127592608 
1078.502 126757752 126497328 126780688 127546904 128696304 130095112 
1081.395 131591368 133008408 134177152 134964544 135283840 135121760 
1084.288 134536960 133656728 132646832 131688328 130964800 130625832 
1087.181 130784408 131510984 132824672 134696128 137045952 139759936 
1090.074 142687024 145655408 148504144 151080208 153260240 154960144 
1092.967 156124016 156724640 156757552 156236800 155192928 153671264 
1095.860 151733296 149450688 146902000 144176288 141361680 138545920 
1098.753 135812880 133225664 130821976 128604472 126539320 124560424 
1101.646 122583384 120531688 118348792 116018304 113567240 111064632 
1104.540 108607768 106299712 104246968 102538480 101238272 100389984 
1107.433 100011768 100100536 100634176 101576160 102878648 104480984 
1110.326 106319520 108323976 110415272 112512144 114522760 116346096 
1113.219 117886584 119052544 119771488 120002448 119734160 118987560 
1116.112 117805560 116250216 114391800 112300016 110047136 107697256 
1119.005 105302800 102906064 100533720 98199928 95911176 93671008 91485816 
1122.380 89369120 87340456 85424248 83646352 82028080 80586144 79331952 
1125.755 78272376 77412976 76760040 76320296 76101248 76108120 76341400 
1129.131 76794680 77452424 78290152 79270624 80345960 81459128 82541872 
1132.506 83526816 84354352 84980688 85390616 85599672 85655280 85623840 
1135.881 85584416 85615320 85776128 86105104 86610592 87271312 88036736 
1139.256 88832960 89576712 90175408 90544176 90616912 90344968 89704480 
1142.632 88692640 87323888 85625376 83633816 81397016 78967928 76406024 
1146.007 73776040 71138160 68549648 66061100 63710192 61526872 59530876 
1149.382 57733276 56138772 54746892 53552788 52548072 51721888 51062268 
1152.757 50556424 50193040 49963056 49859356 49877160 50012988 50263716 
1156.133 50626560 51099460 51681136 52371676 53171912 54082736 55103952 
1159.508 56233424 57466360 58795972 60212860 61703972 63252844 64834952 
1162.883 66417552 67961536 69418656 70738424 71873544 72778072 73415000 
1166.258 73756568 73783584 73489000 72878096 71969696 70793576 69388752 
1169.634 67801192 66075496 64255416 62382152 60490040 58610916 56773304 
1173.009 55000444 53313904 51731184 50265200 48926292 47721436 46654584 
1176.384 45728704 44945176 44304896 43807668 43452884 43239512 43166384 
1179.759 43233292 43441536 43794472 44296496 44952676 45767468 46743132 
1183.135 47880228 49176540 50626152 52217172 53927848 55725820 57560700 
1186.510 59366856 61070592 62589108 63844928 64776056 65337336 65509944 
1189.885 65301404 64745440 63896136 62821396 61600100 60306584 59009500 
1193.260 57768852 56629492 55625820 54783088 54116624 53635480 53341476 
1196.635 53229060 53283260 53478468 53780816 54144440 54516592 54842860 
1200.011 55064948 55129420 54992736 54622012 54003072 53141876 52066048 
1203.386 50819424 49457900 48044004 46633852 45276208 44008376 42853048 
1206.761 41822408 40919796 40143000 39486348 38942268 38502684 38158544 
1210.136 37901328 37723732 37620488 37588840 37628508 37740464 37925588 
1213.512 38183832 38513112 38909792 39368724 39882904 40443840 41040432 
1216.887 41657860 42280076 42889476 43468996 44005992 44490928 44918204 
1220.262 45285660 45592660 45840372 46031856 46173412 46275464 46351956 
1223.637 46420788 46500624 46608360 46758296 46959488 47215624 47525400 
1227.013 47882596 48277304 48695944 49124336 49549064 49960272 50354748 
1230.388 50736816 51118620 51517100 51953288 52449248 53025396 53702668 
1233.763 54501680 55442520 56546568 57833880 59321348 61022236 62943904 
1237.138 65088496 67452584 70028128 72801344 75750024 78844512 82046128 
1240.514 85307816 88583208 91825976 94994744 98055888 100978192 103730880 
1243.889 106283928 108603296 110654000 112402760 113814768 114856520 
1246.782 115496216 115703112 115453376 114734768 113549384 111914800 
1249.675 109860368 107424328 104646264 101567240 98233000 94692264 91004808 
1253.050 87241376 83475008 79783872 76243048 72913728 69847600 67079516 
1256.426 64626000 62486860 60644696 59068108 57710872 56517736 55430020 
1259.801 54385920 53331736 52226588 51043148 49772656 48421744 47010216 
1263.176 45565172 44117988 42700980 41341276 40061892 38879644 37803864 
1266.551 36838172 35980548 35225216 34563252 33985376 33483102 33049438 
1269.927 32679260 32368932 32114658 31913024 31760458 31654276 31593158 
1273.302 31578336 31612794 31700182 31843350 32042634 32294686 32591350 
1276.677 32918636 33258222 33585400 33871380 34087976 34208052 34212424 
1280.052 34093244 33855368 33515132 33095456 32623320 32123148 31613972 
1283.427 31110690 30623672 30161672 29734328 29351680 29024344 28761930 
1286.803 28572074 28459556 28428248 28481668 28624342 28862274 29200898 
1290.178 29644248 30192606 30841784 31581224 32393922 33257720 34141236 
1293.553 35006972 35814600 36520900 37090136 37499464 37742632 37832636 
1296.928 37798836 37683832 37532624 37390028 37296036 37280292 37364024 
1300.304 37558672 37863836 38267232 38742764 39255364 39759608 40207844 
1303.679 40559324 40780628 40853140 40772984 40550852 40208244 39774136 
1307.054 39283584 38771488 38269980 37807480 37403604 37070148 36811232 
1310.429 36625140 36507168 36452500 36457580 36520500 36639236 36811160 
1313.805 37031716 37294916 37595520 37929712 38296036 38695560 39129860 
1317.180 39600236 40106588 40647912 41222960 41831272 42473104 43147356 
1320.555 43850256 44571696 45295444 45997524 46647500 47214260 47666888 
1323.930 47980684 48143760 48159936 48053220 47863396 47647288 47467552 
1327.306 47380108 47430964 47643668 48018580 48534664 49157396 49848356 
1330.681 50570832 51298500 52015660 52716272 53401612 54077708 54753620 
1334.056 55439356 56145032 56878632 57642984 58434048 59239388 60040476 
1337.431 60812064 61526260 62156904 62678284 63069432 63315900 63410172 
1340.807 63354388 63158788 62842452 62428900 61944196 61416592 60871484 
1344.182 60331668 59817012 59341556 58914964 58541864 58221976 57949160 
1347.557 57710948 57489736 57262172 57003028 56691064 56310860 55859648 
1350.932 55347436 54799776 54254652 53757304 53360356 53113044 53056092 
1354.308 53217640 53604592 54200588 54962952 55831840 56733240 57587672 
1357.683 58326180 58890828 59241476 59360168 59249872 58936064 58461608 
1361.058 57890624 57300920 56771868 56381932 56188060 56215132 56452184 
1364.433 56853704 57350644 57854020 58273432 58522948 58526888 58238420 
1367.809 57644916 56775040 55690640 54478536 53233180 52033292 50940380 
1371.184 49991980 49203332 48577680 48112516 47806168 47658608 47669552 
1374.559 47833024 48133540 48546632 49044796 49600652 50194640 50815848 
1377.934 51461408 52135604 52848540 53616964 54462764 55413156 56496264 
1381.310 57730248 59112336 60604996 62135800 63591188 64831988 65720520 
1384.685 66122404 65937444 65119556 63697496 61788120 59578308 57303948 
1388.060 55177648 53346120 51880328 50777148 49987964 49441560 49067276 
1391.435 48799476 48579352 48358592 48094196 47751948 47313120 46777556 
1394.811 46165084 45506812 44835172 44171976 43524560 42891376 42270216 
1398.186 41666580 41100744 40603708 40208024 39939056 39806164 39803584 
1401.561 39915412 40123416 40411368 40766872 41182484 41653048 42173084 
1404.936 42735820 43332564 43953596 44591600 45242232 45905808 46585676 
1408.312 47286112 48010552 48759220 49529124 50314868 51110940 51912884 
1411.687 52717696 53522388 54322644 55111776 55882028 56626588 57343912 
1415.062 58039208 58724920 59418140 60138040 60903204 61727844 62620296 
1418.437 63578604 64586476 65613256 66617204 67554456 68384432 69077488 
1421.813 69618216 70005472 70256912 70408072 70510640 70618224 70773456 
1425.188 70999584 71296496 71649496 72038880 72450496 72877360 73319544 
1428.563 73781504 74270088 74795568 75372000 76020800 76767704 77634352 
1431.938 78633432 79761728 81003200 82331432 83722528 85161856 86643640 
1435.313 88170592 89745384 91364064 93009808 94659056 96290600 97887112 
1438.689 99432608 100902656 102262616 103458120 104420168 105079864 
1441.582 105368680 105230472 104628264 103542056 101976160 99962128 97566608 
1444.957 94885240 92028000 89118288 86268872 83575168 81116528 78944128 
1448.332 77078048 75504368 74184280 73066560 72105968 71280216 70595384 
1451.708 70081624 69774720 69697720 69840872 70158960 70567160 70953080 
1455.083 71196240 71176648 70819896 70137888 69251168 68346000 67593872 
1458.458 67104608 66911184 67003496 67357120 67945848 68742288 69710248 
1461.833 70803792 71958592 73090080 74109840 74928976 75483752 75756648 
1465.208 75781584 75628976 75374280 75082096 74790608 74514848 74254328 
1468.584 73996200 73716392 73374352 72913024 72263600 71357808 70158416 
1471.959 68688304 67045988 65375736 63821176 62479476 61384036 60526376 
1475.334 59882464 59433872 59172784 59095668 59191348 59432352 59774688 
1478.709 60168332 60562140 60917764 61214848 61451824 61644508 61819788 
1482.085 62012256 62257504 62592356 63059284 63702248 64566672 65691188 
1485.460 67094936 68764840 70642824 72631056 74583072 76315320 77634672 
1488.835 78341304 78271264 77339008 75561104 73067624 70060632 66770048 
1492.210 63387208 60034924 56784592 53659552 50667032 47828884 45187996 
1495.586 42813700 40788020 39177360 38013136 37284592 36955444 36977052 
1498.961 37303292 37896124 38719176 39732920 40895692 42157708 43466912 
1502.336 44774044 46021464 47143560 48060956 48659804 48797848 48318556 
1505.711 47099540 45133988 42584196 39747844 36920052 34289332 31913810 
1509.087 29768534 27805308 25988754 24304952 22762306 21377544 20160560 
1512.462 19110962 18215350 17454324 16807582 16258107 15791405 15393001 
1515.837 15048229 14745411 14478499 14250372 14070139 13946056 13878589 
1519.212 13856285 13856285 13852865 13827551 13781136 13735684 13724501 
1522.588 13772927 13885432 14047859 14237122 14433385 14625763 14817093 
1525.963 15019381 15247399 15508913 15801337 16114485 16437769 16766118 
1529.338 17102158 17453944 17830598 18236808 18671936 19129902 19603362 
1532.713 20088372 20586538 21103744 21643160 22202912 22773272 23341338 
1536.089 23892536 24414924 24901730 25347418 25749156 26103412 26404188 
1539.464 26642138 26809408 26905846 26941592 26933872 26899642 26847084 
1542.839 26773390 26667398 26518144 26321554 26087190 25836252 25594770 
1546.214 25381840 25201846 25045198 24893484 24729648 24545612 24347528 
1549.590 24153074 23985284 23860296 23781578 23741330 23727436 23730446 
1552.965 23748748 23788610 23859770 23968266 24111812 24278356 24448190 
1556.340 24600486 24712182 24760202 24725896 24603712 24413910 24202082 
1559.715 24023696 23914664 23881440 23910078 23976740 24057982 24132094 
1563.091 24183972 24207128 24205132 24190734 24180574 24188912 24220162 
1566.466 24268056 24318444 24355800 24367750 24350648 24310698 24262974 
1569.841 24225170 24210490 24225100 24267530 24332880 24413910 24502140 
1573.216 24587688 24656384 24692366 24680898 24615460 24504314 24372098 
1576.592 24252184 24169048 24129640 24122952 24128872 24126594 24100256 
1579.967 24042816 23954226 23839818 23705950 23557570 23396792 23224294 
1583.342 23041382 22851388 22659314 22469696 22284172 22100750 21914652 
1586.717 21721598 21520794 21316394 21116266 20928782 20760076 20612664 
1590.093 20485206 20375804 20284314 20212486 20162574 20134114 20121132 
1593.468 20112144 20093648 20052976 19983652 19886728 19770022 19644370 
1596.843 19519206 19401560 19295688 19205532 19137694 19101440 19107812 
1600.218 19166712 19283394 19457624 19684690 19958430 20272126 20618952 
1603.594 20990538 21373610 21747792 22088792 22367994 22558718 22641928 
1606.969 22607442 22457030 22201796 21860222 21452942 20999334 20519004 
1610.344 20030700 19553760 19107570 18706874 18358944 18061650 17804120 
1613.719 17569650 17339512 17098574 16836790 16554339 16261753 15979400 
1617.094 15730968 15535286 15402029 15330148 15310789 15329462 15369417 
1620.470 15414697 15451605 15473579 15483400 15493735 15522545 15585288 
1623.845 15689880 15832502 16002502 16187081 16377380 16569279 16761813 
1627.220 16955328 17148136 17336548 17516104 17684764 17844406 17999790 
1630.595 18156578 18317364 18480282 18637312 18776410 18884472 18948636 
1633.971 18960510 18917420 18826442 18702100 18564722 18433678 18320164 
1637.346 18227030 18149222 18077644 18001276 17909558 17795524 17657638 
1640.721 17501342 17337098 17177572 17031854 16902582 16784164 16664432 
1644.096 16528318 16361037 16153859 15907595 15634919 15357368 15099891 
1647.472 14884089 14721829 14614865 14557059 14537152 14539790 14543593 
1650.847 14522386 14442257 14270711 13993550 13638502 13277082 12985191 
1654.222 12802071 12717175 12695033 12697387 12696909 12679715 12641404 
1657.597 12585736 12518241 12444209 12364668 12277301 12177208 12060274 
1660.973 11924675 11771890 11607079 11437940 11273425 11121618 10989063 
1664.348 10879244 10792074 10723499 10665528 10607125 10534811 10436102 
1667.723 10302535 10133090 9935879 9726490 9523535 9342139 9189651 9066075 
1671.581 8965502 8879290 8797288 8709149 8604467 8475178 8318840 8142841 
1675.438 7963809 7800874 7668823 7570764 7499493 7441311 7382564 7315199 
1679.295 7238781 7160491 7090904 7038165 7002302 6973344 6931797 6855952 
1683.153 6729875 6555158 6355932 6170409 6031260 5947577 5908815 5894440 
1687.010 5885808 5869385 5839092 5794262 5738188 5675509 5610958 5549942 
1690.868 5497591 5458601 5435450 5426794 5426727 5423942 5404953 5357651 
1694.725 5277351 5172252 5063961 4977916 4928919 4915045 4919334 4918698 
1698.583 4889175 4814757 4694329 4547884 4410024 4310924 4262738 4256346 
1702.440 4273546 4294995 4306774 4300650 4273947 4228776 4171265 4109514 
1706.297 4050681 3999346 3956979 3922674 3893386 3866039 3838427 3809880 
1710.155 3781569 3756402 3737151 3725956 3722948 3725621 3730701 3734344 
1714.012 3733575 3727259 3714526 3694342 3665069 3624238 3571518 3510921 
1717.870 3451334 3404512 3379466 3379533 3400972 3435938 3475081 3510085 
1721.727 3536575 3553879 3565170 3575126 3588623 3608368 3634930 3667275 
1725.584 3703899 3743501 3784343 3824354 3860122 3887268 3902279 3903717 
1729.442 3893453 3876002 3856010 3835084 3809947 3771575 3707208 3606564 
1733.299 3468234 3306576 3148649 3024178 2949212 2922091 2928429 2949813 
1737.157 2970730 2979771 2972097 2948411 2914052 2876660 2843274 2818361 
1741.014 2803421 2797685 2799652 2807022 2817794 2829700 2840773 2849911 
1744.872 2856882 2862652 2868856 2876360 2884732 2892204 2895706 2891870 
1748.729 2878161 2853380 2817527 2772508 2720891 2666746 2614975 2570876 
1752.586 2538313 2519250 2512218 2513085 2514751 2509852 2492356 2460199 
1756.444 2416682 2369572 2328363 2299049 2282827 2275633 2270170 2258946 
1760.301 2236797 2202894 2161035 2117848 2080291 2053158 2038277 2034316 
1764.159 2038244 2046766 2055655 2060882 2058418 2045668 2022498 1991841 
1768.016 1960319 1934758 1919682 1915122 1915888 1914091 1901245 1872858 
1771.874 1830964 1784084 1743529 1717182 1707103 1709198 1716483 1723170 
1775.731 1726796 1728426 1731919 1740169 1754341 1771641 1788009 1798656 
1779.588 1801185 1797026 1789507 1783085 1779925 1779459 1778927 1774934 
1783.446 1765785 1752345 1737574 1725432 1718612 1717714 1721540 1727893 
1787.303 1735744 1744959 1756237 1769678 1783618 1794630 1797625 1788375 
1791.161 1765586 1731819 1693597 1658639 1632863 1618428 1613639 1615103 
1795.018 1619426 1624648 1630235 1635822 1640845 1643905 1643073 1637186 
1798.875 1626344 1612575 1599173 1589429 1585172 1586170 1590194 1595082 
1802.733 1599239 1601800 1603795 1606156 1609216 1612509 1615136 1616134 
1806.590 1615369 1613140 1610247 1606788 1602033 1594616 1583509 1569276 
1810.448 1554046 1541843 1536689 1541044 1554412 1573100 1592189 1606888 
1814.305 1614371 1614238 1609449 1603629 1600769 1603729 1613739 1630534 
1818.163 1653051 1680458 1711327 1744760 1779226 1813196 1845206 1874222 
1822.020 1899614 1921113 1938186 1950401 1957124 1958689 1956525 1953596 
1825.877 1953397 1958655 1970238 1986681 2004490 2019769 2030255 2036180 
1829.735 2041040 2049463 2065942 2091478 2124507 2160336 2195235 2226473 
1833.592 2253917 2279363 2305078 2332960 2363076 2394459 2425779 2456667 
1837.450 2489157 2526315 2571710 2627576 2694351 2769640 2849944 2931699 
1841.307 3011599 3087444 3158095 3222682 3281803 3337460 3393024 3452870 
1845.165 3520541 3596708 3678670 3760412 3834248 3892350 3929896 3945243 
1849.022 3940830 3920467 3888639 3847486 3796944 3735246 3661026 3575126 
1852.879 3480993 3383741 3288247 3197380 3111204 3027715 2945209 2862852 
1856.737 2782745 2708388 2642944 2587776 2541280 2499988 2459633 2418015 
1860.594 2374669 2331661 2291321 2255382 2223875 2195568 2169293 2144785 
1864.452 2123142 2105828 2093709 2085285 2077228 2065077 2045302 2017672 
1868.309 1985649 1955294 1932928 1922511 1924042 1934192 1948337 1963115 
1872.167 1976429 1987946 1997732 2005388 2009583 2008584 2001294 1987746 
1876.024 1969739 1949835 1929799 1910263 1889763 1866402 1839183 1808904 
1879.881 1778062 1750448 1728658 1713356 1702512 1692600 1680093 1663661 
1883.739 1643905 1623284 1604593 1589296 1577191 1566815 1556507 1545733 
1887.596 1535059 1526347 1520994 1519664 1521626 1525716 1530870 1537387 
1891.454 1545800 1556573 1569243 1581647 1591091 1595415 1594982 1592821 
1895.311 1593552 1601168 1617431 1640246 1664460 1683851 1694263 1694130 
1899.168 1685315 1671278 1655213 1638916 1622153 1604361 1585837 1568644 
1903.026 1556108 1551386 1555509 1566017 1578355 1587400 1589761 1585571 
1906.883 1577922 1571671 1570307 1574697 1582877 1591524 1597876 1601201 
1910.741 1603363 1606788 1613506 1623218 1633794 1642874 1649160 1653151 
1914.598 1656510 1660967 1665757 1667919 1662797 1646466 1618961 1584972 
1918.456 1552417 1528708 1517769 1517702 1522856 1525749 1521460 1509689 
1922.313 1494727 1483257 1481195 1490438 1508326 1529706 1549723 1565386 
1926.170 1577856 1589628 1602798 1617630 1631998 1642441 1646964 1646000 
1930.028 1641876 1638051 1636654 1636754 1635357 1629005 1615967 1598474 
1933.885 1581481 1570141 1568013 1574697 1586303 1597576 1605525 1610280 
1937.743 1615568 1625645 1642774 1664659 1685947 1699053 1699186 1685814 
1941.600 1663428 1639681 1621754 1613540 1614504 1622187 1633661 1648761 
1945.458 1669382 1698021 1735644 1779392 1823544 1861344 1888432 1904573 
1949.315 1913026 1919116 1927037 1937154 1947272 1953330 1952498 1944443 
1953.172 1931596 1916454 1900546 1882109 1857218 1822479 1778195 1728293 
1957.030 1681722 1647829 1632829 1637386 1655978 1680059 1701315 1714887 
1960.887 1720309 1719045 1713057 1702013 1684583 1660967 1632729 1606057 
1964.745 1587466 1582977 1593253 1613739 1636055 1652220 1659337 1659670 
1968.602 1660435 1668917 1687810 1714321 1740701 1758699 1763157 1755339 
1972.459 1741067 1727195 1718945 1718013 1722371 1732883 1753775 1793965 
1976.317 1864472 1971470 2111588 2269971 2424979 2555111 2646277 2695985 
1980.174 2709721 2698785 2673614 2639577 2598509 2549712 2493189 2433475 
1984.032 2377234 2331494 2300548 2284959 2280030 2280796 2283294 2286991 
1987.889 2293986 2306511 2324599 2345153 2363775 2375868 2381332 2383232 
1991.747 2387629 2399190 2418482 2440939 2457933 2462765 2452502 2430077 
1995.604 2403655 2382632 2372937 2376502 2389029 2404121 2417515 2427045 
1999.461 2433409 2439740 2446204 2450136 2446004 2428377 2394559 2347318 
2003.319 2293886 2243492 2205725 2186743 2188907 2211786 2253583 2312640 
2007.176 2386463 2470996 2558644 2639110 2703320 2745131 2764705 2767606 
2011.034 2763704 2762204 2768806 2783812 2803254 2822163 2836471 2845109 
2014.891 2849845 2851479 2850545 2844908 2832168 2811391 2786180 2762971 
2018.749 2749399 2751200 2769773 2800386 2837071 2872791 2904979 2934634 
2022.606 2965725 3000556 3039026 3077266 3108735 3129426 3139037 3141207 
2026.463 3143343 3152254 3171345 3199583 3233931 3269651 3305174 3341868 
2030.321 3382338 3428557 3481460 3537610 3594369 3649398 3703264 3758240 
2034.178 3817133 3879947 3942902 4000784 4048039 4082354 4106804 4127075 
2038.036 4150290 4179963 4215460 4251328 4281509 4301186 4309987 4311961 
2041.893 4313501 4318956 4330166 4344022 4355601 4361090 4360153 4356003 
2045.750 4356170 4368152 4397806 4446376 4512059 4588434 4667233 4738678 
2049.608 4792847 4821559 4819884 4788391 4733687 4668339 4606952 4565028 
2053.465 4552070 4569448 4609932 4660669 4707794 4740085 4754054 4752345 
2057.323 4741793 4729835 4721427 4718747 4721159 4728126 4738544 4753920 
2061.180 4774321 4798977 4824641 4846687 4860090 4863340 4856806 4844242 
2065.038 4829432 4815294 4801189 4785376 4764874 4738879 4709268 4680530 
2068.895 4656784 4641043 4632805 4628384 4623864 4616161 4605043 4593457 
2072.752 4585286 4583645 4588534 4597944 4607822 4615223 4619041 4621084 
2076.610 4623897 4630896 4642082 4656349 4670683 4681836 4687932 4688669 
2080.467 4685018 4678922 4672257 4666865 4664956 4668874 4680932 4702167 
2084.325 4731375 4764740 4795393 4816935 4824138 4815595 4793952 4764639 
2088.182 4733519 4704679 4678956 4654741 4629289 4600857 4570352 4540987 
2092.040 4517751 4504325 4503455 4514905 4537304 4568410 4606383 4649383 
2095.897 4695133 4740621 4781657 4814389 4836301 4847491 4851278 4852283 
2099.754 4854829 4861296 4872019 4884752 4897586 4909583 4922183 4937967 
2103.612 4959583 4987569 5020886 5056585 5091752 5124942 5157498 5191130 
2107.469 5227884 5267893 5308845 5346380 5377510 5400356 5416561 5429914 
2111.327 5444710 5463633 5487189 5513162 5538196 5559976 5577932 5592364 
2115.184 5604414 5614416 5620793 5621263 5614080 5598506 5577126 5554271 
2119.042 5534672 5521853 5517121 5519504 5527054 5538431 5553801 5574408 
2122.899 5602534 5637408 5677355 5718111 5754875 5784155 5805142 5819211 
2126.756 5829655 5839327 5849738 5860283 5869687 5876236 5879427 5880031 
2130.614 5880367 5882281 5887117 5895279 5906934 5922922 5944621 5972838 
2134.471 6008649 6050042 6094260 6137037 6174879 6207145 6235009 6261766 
2138.329 6289802 6319554 6348804 6372946 6387707 6390834 6382899 6367499 
2142.186 6350015 6334078 6322210 6313805 6306745 6298105 6286306 6269195 
2146.043 6245732 6214909 6175786 6128636 6075342 6019837 5966724 5919630 
2149.901 5878352 5837782 5790669 5727747 5642947 5536048 5411226 5276814 
2153.758 5140265 5006808 4877346 4753216 4637561 4541154 4481326 4480321 
2157.616 4554949 4710742 4934649 5197367 5463063 5697263 5876807 5994741 
2161.473 6055922 6071848 6057131 6025549 5985134 5942841 5902937 5867101 
2165.331 5836002 5807895 5778077 5742586 5696927 5639624 5570918 5494269 
2169.188 5412099 5327327 5240795 5151598 5058731 4962700 4865183 4769865 
2173.045 4681903 4605378 4544502 4501814 4478179 4473458 4485242 4508343 
2176.903 4533889 4552605 4554346 4532784 4486682 4421471 4346130 4271270 
2180.760 4205055 4151294 4110082 4078340 4053858 4036334 4027471 4028742 
2184.618 4039945 4056968 4072220 4078808 4072086 4051785 4023625 3995902 
2188.475 3976039 3968348 3972963 3985970 4003493 4022287 4041952 4063356 
2192.333 4088107 4115100 4141860 4164608 4179997 4187189 4188026 4185316 
2196.190 4182338 4180398 4178525 4174945 4169291 4161731 4155642 4154405 
2200.047 4160125 4171834 4186219 4197393 4200773 4194416 4179729 4160025 
2203.905 4139953 4122760 4109313 4099680 4093659 4090615 4092555 4100516 
2207.762 4114966 4134100 4154538 4171834 4183208 4188227 4189431 4190334 
2211.620 4194416 4202345 4213218 4223556 4230482 4232022 4229177 4222620 
2215.477 4214857 4206694 4197560 4186788 4174510 4161798 4151896 4147848 
2219.334 4150658 4159623 4171165 4180499 4183576 4179428 4169793 4158686 
2223.192 4150692 4148550 4152732 4161463 4171700 4180499 4186754 4190200 
2227.049 4191639 4192141 4192342 4192843 4194684 4199133 4207966 4222519 
2230.907 4242862 4266853 4292184 4314973 4332944 4345661 4354597 4362061 
2234.764 4371164 4383347 4398911 4417254 4437304 4458461 4480723 4504392 
2238.622 4529235 4554481 4578756 4600757 4619477 4635551 4649684 4662947 
2242.479 4676109 4688568 4699487 4707995 4714125 4719417 4726217 4736702 
2246.336 4752043 4772043 4794522 4816801 4837004 4853992 4867964 4880395 
2250.194 4892794 4905695 4919636 4934549 4950166 4967225 4986664 5008518 
2254.051 5033020 5058965 5083706 5104894 5120215 5128094 5128194 5121020 
2257.909 5106872 5087125 5062686 5035031 5005669 4977078 4950032 4926070 
2261.766 4905494 4888404 4875269 4867361 4866423 4874364 4892157 4918698 
2265.624 4950534 4982575 5009422 5027322 5035233 5035165 5031042 5027422 
2269.481 5027121 5031210 5038685 5047200 5054239 5058664 5059200 5056787 
2273.338 5051725 5044451 5035802 5027020 5019780 5016361 5018908 5028260 
2277.196 5044048 5064362 5085918 5105966 5122595 5135772 5146635 5156995 
2281.053 5167893 5179595 5191600 5202565 5211586 5218426 5223658 5228755 
2284.911 5234792 5243075 5253673 5266585 5281409 5297072 5312099 5325046 
2288.768 5333902 5337222 5334237 5325381 5312367 5297945 5285199 5276345 
2292.625 5273158 5275707 5283589 5296033 5312367 5332291 5355571 5381871 
2296.483 5410019 5438738 5466754 5493195 5517826 5541417 5564675 5588504 
2300.340 5613174 5638080 5662820 5687191 5711094 5735805 5762329 5791374 
2304.198 5823174 5857294 5892492 5927793 5962962 5997362 6031865 6066371 
2308.055 6101081 6135828 6170275 6204556 6238975 6274607 6312124 6351931 
2311.913 6393793 6436701 6479614 6521622 6562626 6603330 6645081 6689461 
2315.770 6737312 6789610 6846257 6906648 6970415 7036784 7105689 7176828 
2319.627 7250506 7326757 7405651 7485874 7564190 7636146 7694657 7732162 
2323.485 7742618 7722988 7674624 7603875 7520900 7436997 7362883 7306405 
2327.342 7270755 7255021 7254987 7265499 7280931 7297543 7313279 7327061 
2331.200 7339024 7349268 7358637 7368679 7381284 7398742 7423245 7455266 
2335.057 7493830 7536509 7579766 7620364 7656480 7687777 7715703 7742315 
2338.915 7769502 7798412 7829111 7860926 7892338 7922167 7948826 7970120 
2342.772 7983349 7984463 7968602 7932122 7872633 7790956 7692768 7588263 
2346.629 7489649 7410437 7363051 7355570 7392305 7472794 7592175 7742214 
2350.487 7911571 8089097 8264263 8429636 8581418 8719494 8845642 8961341 
2354.344 9067428 9163356 9248101 9321319 9384086 9438194 9485807 9527870 
2358.202 9564213 9593276 9613601 9624612 9627152 9623222 9614686 9602897 
2362.059 9587958 9569125 9545787 9518760 9489499 9459901 9431592 9404774 
2365.917 9377078 9346303 9309809 9266717 9218520 9167756 9117370 9069797 
2369.774 9025275 8982549 8939660 8894576 8846149 8794515 8740251 8683762 
2373.631 8625219 8564250 8500722 8434771 8367209 8299251 8232216 8166745 
2377.489 8102836 8039949 7978017 7917578 7860116 7808296 7764004 7729228 
2381.346 7704404 7688485 7679919 7676917 7677828 7681538 7687912 7696512 
2385.204 7707237 7720054 7734692 7751287 7770076 7791530 7815650 7842066 
2389.061 7869766 7897332 7923888 7948926 7972819 7996849 8022095 8049198 
2392.918 8078126 8107934 8137339 8165327 8191629 8216075 8239375 8262237 
2396.776 8284932 8307694 8331033 8355183 8381260 8410177 8442609 8478828 
2400.633 8518259 8559857 8602506 8645701 8689204 8733692 8779807 8828159 
2404.491 8879188 8932658 8988638 9046758 9107050 9169143 9232464 9296268 
2408.348 9359507 9421467 9482624 9543654 9606149 9671465 9740382 9812023 
2412.206 9884589 9955779 10023555 10087069 10146691 10203710 10259583 
2415.581 10315530 10371315 10426464 10479582 10530058 10577213 10621250 
2418.956 10662166 10700438 10735827 10768128 10797611 10824854 10851250 
2422.331 10878429 10907987 10940980 10978053 11019615 11066008 11117709 
2425.707 11175841 11240748 11312669 11391270 11475260 11563656 11655882 
2429.082 11751839 11852141 11957745 12068280 12182695 12299423 12416251 
2432.457 12531644 12645395 12758290 12872067 12988333 13108180 13231887 
2435.832 13359763 13491847 13628586 13771012 13919780 14074418 14233458 
2439.208 14394269 14553769 14709798 14861424 15008921 15153996 15298159 
2442.583 15441649 15584121 15724063 15859755 15990470 16116753 16239807 
2445.958 16361484 16483093 16605148 16727272 16848638 16968214 17085994 
2449.333 17202530 17318168 17433732 17548948 17663230 17775468 17884836 
2452.708 17990502 18092460 18191096 18286640 18379890 18471810 18563200 
2456.084 18655438 18749596 18846684 18947116 19050858 19156740 19263026 
2459.459 19368438 19470756 19568388 19659832 19743912 19819962 19887908 
2462.834 19949306 20006586 20063596 20124570 20193188 20272126 20362436 
2466.209 20463462 20573684 20691298 20815238 20945124 21081656 21225886 
2469.585 21379356 21543426 21719160 21907368 22108560 22322298 22547866 
2472.960 22783640 23026884 23274492 23523536 23771392 24015538 24254566 
2476.335 24486294 24708780 24919836 25117266 25299262 25464718 25613328 
2479.710 25745078 25859918 25957658 26037476 26098450 26139834 26161860 
2483.086 26165556 26152992 26126462 26088634 26041734 25987628 25927902 
2486.461 25863680 25796026 25725356 25651746 25574318 25491772 25402568 
2489.836 25304918 25198300 25082230 24956822 24822434 24679214 24527066 
2493.211 24365824 24195216 24015432 23826868 23629742 23424034 23209054 
2496.587 22983458 22746104 22496252 22234230 21961316 21680530 21395156 
2499.962 21108162 20822190 20539220 20260254 19986288 19718634 19457936 
2503.337 19205220 18960856 18724376 18494596 18270604 18051634 17837604 
2506.712 17629824 17429974 17240176 17062042 16896382 16743388 16602876 
2510.088 16473835 16355222 16245930 16144574 16049396 15959498 15874051 
2513.463 15793467 15718875 15652334 15595351 15549125 15513891 15489100 
2516.838 15473442 15466334 15467364 15476636 15494799 15521687 15556302 
2520.213 15596656 15640277 15684761 15728770 15771752 15814463 15858483 
2523.589 15904674 15953517 16004702 16056547 16106954 16154168 16196504 
2526.964 16232824 16262854 16286761 16304512 16316554 16322436 16320853 
2530.339 16310567 16289823 16257487 16213907 16161047 16101899 16040491 
2533.714 15980432 15923990 15871646 15822573 15774431 15726089 15676724 
2537.090 15627019 15578660 15533465 15491915 15453562 15417101 15380573 
2540.465 15342916 15303959 15264524 15225917 15189269 15154579 15120991 
2543.840 15087370 15052277 15015506 14977915 14941013 14906275 14874900 
2547.215 14847230 14822716 14800843 14780857 14762379 14745480 14730158 
2550.591 14716036 14702634 14688856 14673913 14657702 14639984 14621547 
2553.966 14602872 14584333 14566207 14548562 14531258 14514368 14498609 
2557.341 14484358 14471922 14461371 14452157 14443764 14435200 14425609 
2560.716 14414306 14400400 14382898 14360841 14333615 14301563 14265575 
2564.092 14228117 14191860 14159475 14133084 14113744 14100943 14093618 
2567.467 14090538 14090230 14092249 14096527 14102791 14111006 14120761 
2570.842 14131372 14141983 14152390 14162557 14172450 14182686 14193367 
2574.217 14204768 14217298 14231130 14246605 14264444 14285058 14308549 
2577.593 14334609 14362623 14391426 14420129 14448115 14474765 14500116 
2580.968 14524646 14548938 14574260 14602323 14634569 14672781 14717887 
2584.343 14769853 14827481 14888856 14951371 15012659 15071143 15125828 
2587.718 15177259 15226123 15273722 15321017 15369348 15419401 15471932 
2591.094 15527456 15585769 15646426 15708156 15769243 15828243 15884258 
2594.469 15937224 15987789 16037397 16086977 16137077 16187321 16236849 
2597.844 16284352 16329212 16371187 16410861 16449125 16486982 16525220 
2601.219 16564254 16604323 16645841 16689602 16736122 16786160 16840096 
2604.594 16897622 16958048 17020414 17084064 17148378 17213908 17281342 
2607.970 17351478 17424972 17502722 17584554 17670786 17761316 17856040 
2611.345 17954518 18056262 18159930 18264212 18367826 18469288 18568282 
2614.720 18664500 18758764 18851666 18943930 19035902 19127584 19218416 
2618.095 19307812 19394840 19479318 19560762 19639378 19715478 19789442 
2621.471 19861546 19932170 20001068 20068316 20133696 20197074 20258380 
2624.846 20317888 20375736 20431996 20487114 20541374 20594528 20647342 
2628.221 20700126 20753264 20807418 20862862 20919394 20976488 21033626 
2631.596 21089588 21143852 21195756 21244954 21291408 21335188 21376430 
2634.972 21415136 21451408 21485526 21517870 21548894 21579536 21610458 
2638.347 21642602 21676490 21712820 21752078 21794718 21840604 21889840 
2641.722 21941626 21995334 22050166 22105490 22160788 22216234 22272104 
2645.097 22328994 22387286 22447156 22508848 22572156 22636938 22703266 
2648.473 22771280 22840912 22912476 22985728 23060460 23136464 23213388 
2651.848 23290852 23368540 23445892 23522486 23597870 23671588 23743954 
2655.223 23815210 23886236 23958182 24031646 24106804 24183622 24260978 
2658.598 24337822 24413382 24486854 24558128 24627380 24695278 24762130 
2661.974 24828642 24895238 24962158 25029894 25098380 25167506 25236716 
2665.349 25305270 25372322 25436996 25499186 25558818 25616702 25673680 
2668.724 25730594 25788042 25846378 25905638 25965748 26026748 26088740 
2672.099 26151656 26215814 26280824 26346550 26412884 26479860 26547800 
2675.475 26616984 26687868 26760774 26835558 26912260 26990704 27070892 
2678.850 27152642 27236562 27322756 27411578 27502926 27596658 27692460 
2682.225 27789942 27889388 27990590 28094006 28199748 28307988 28418554 
2685.600 28531770 28647490 28766250 28888514 29014566 29144342 29277666 
2688.976 29413902 29552590 29693098 29835676 29980394 30127860 30278466 
2692.351 30432002 30588438 30747278 30907920 31070222 31234328 31400706 
2695.726 31569782 31741996 31917732 32096892 32279198 32464362 32652040 
2699.101 32842044 33033922 33227708 33423658 33621772 33822412 34025868 
2702.477 34232036 34440600 34650840 34861720 35072276 35281456 35488616 
2705.852 35693536 35895856 36095856 36292924 36487200 36678064 36865620 
2709.227 37050156 37232028 37411692 37590100 37767176 37943232 38118204 
2712.602 38292164 38465252 38637644 38809640 38981008 39151288 39319208 
2715.978 39483232 39641872 39793888 39938116 40074464 40202828 40323628 
2719.353 40437660 40546192 40650680 40753336 40856596 40962904 41074736 
2722.728 41194032 41321888 41459148 41606044 41762396 41928188 42102728 
2726.103 42285740 42476684 42674404 42878136 43087124 43300680 43518332 
2729.479 43739608 43963824 44190208 44417632 44644804 44870516 45093476 
2732.854 45312912 45527568 45736580 45939216 46133724 46319404 46495092 
2736.229 46660668 46815644 46960708 47096476 47223752 47343712 47457460 
2739.604 47566764 47673212 47778764 47884964 47993856 48106592 48224540 
2742.979 48349148 48481868 48623968 48776828 48941128 49116732 49302904 
2746.355 49497480 49698016 49901316 50104380 50304340 50498208 50683008 
2749.730 50855960 51014156 51155188 51277020 51378860 51460620 51522996 
2753.105 51567096 51594296 51605528 51600976 51580376 51542808 51486624 
2756.480 51410040 51311476 51189108 51042108 50869780 50671908 50448820 
2759.856 50201072 49930124 49637164 49324584 48994980 48651948 48299484 
2763.231 47942016 47583552 47228368 46879972 46541484 46215572 45904740 
2766.606 45611028 45336488 45082888 44851372 44643040 44457824 44295832 
2769.981 44156204 44038628 43942196 43866640 43811296 43775488 43758152 
2773.357 43757496 43770944 43795572 43828152 43865028 43902892 43939044 
2776.732 43970788 43996236 44013652 44021320 44018200 44002908 43974900 
2780.107 43933796 43880828 43817672 43747012 43672152 43596720 43523712 
2783.482 43455560 43393528 43337800 43288016 43243024 43201740 43162468 
2786.858 43123460 43082988 43038680 42988196 42929340 42859924 42778564 
2790.233 42684968 42579624 42463968 42340124 42211312 42080240 41950048 
2793.608 41823904 41704252 41593496 41493600 41406184 41332748 41274732 
2796.983 41233600 41210460 41206420 41222196 41258044 41313616 41388288 
2800.359 41481200 41591456 41718008 41860240 42016984 42187032 42368836 
2803.734 42560404 42759768 42964416 43172792 43383236 43594960 43807040 
2807.109 44018716 44228876 44435544 44636504 44828484 45008424 45172592 
2810.484 45317840 45441472 45541472 45616436 45666052 45690160 45689384 
2813.860 45664688 45617612 45550192 45465568 45367788 45261132 45151228 
2817.235 45043600 44943232 44854864 44782604 44729676 44698824 44692140 
2820.610 44711128 44756448 44828048 44924600 45044296 45184060 45341048 
2823.985 45511672 45692628 45881024 46073148 46266140 46456040 46639308 
2827.361 46812616 46972928 47118040 47247320 47361116 47461192 47550164 
2830.736 47631060 47707272 47782424 47859180 47940204 48027316 48122212 
2834.111 48226464 48341484 48469048 48610920 48768744 48944316 49139100 
2837.486 49354616 49592740 49856348 50149264 50477108 50846128 51264340 
2840.862 51740292 52282796 52900784 53604180 54401580 55303252 56318404 
2844.237 57454864 58717828 60107596 61616520 63226128 64904816 66608480 
2847.612 68275504 69835376 71212440 72328800 73120200 73540616 73568480 
2850.987 73210352 72499160 71490600 70249976 68849752 67361768 65846204 
2854.363 64355932 62931724 61600944 60381664 59281848 58301588 57434364 
2857.738 56669472 55994232 55394524 54857108 54370860 53926008 53515344 
2861.113 53133228 52775536 52438968 52121448 51821220 51537320 51269156 
2864.488 51016876 50781468 50565208 50371344 50204348 50069536 49972204 
2867.864 49916596 49905740 49940272 50018156 50134764 50283132 50454440 
2871.239 50638288 50823740 51000332 51158240 51290744 51393296 51465172 
2874.614 51508708 51528852 51531872 51524336 51512396 51500872 51493260 
2877.989 51492068 51498820 51514712 51540492 51576796 51624484 51684304 
2881.365 51756868 51843064 51943168 52056748 52182384 52317180 52457324 
2884.740 52597924 52734532 52863024 52981184 53088628 53186852 53279252 
2888.115 53370476 53465576 53569952 53688980 53827472 53991176 54186404 
2891.490 54420432 54703220 55046440 55463640 55971200 56585896 57323684 
2894.865 58199056 59220552 60388780 61690988 63100620 64573364 66045864 
2898.241 67445816 68692224 69705584 70424592 70808432 70846808 70559048 
2901.616 69992664 69214208 68295512 67312008 66330224 65402508 64571328 
2904.991 63865848 63304700 62899932 62657616 62579764 62666460 62916784 
2908.366 63330076 63907340 64650648 65562388 66643016 67888696 69288392 
2911.742 70821032 72456800 74154008 75862424 77528544 79094368 80504704 
2915.117 81714096 82685296 83396592 83840824 84025328 83968768 83696528 
2918.492 83239800 82629024 81892576 81056616 80142128 79166088 78142648 
2921.867 77082488 75995344 74890864 73779504 72673120 71585536 70530288 
2925.243 69521024 68569704 67684856 66871948 66132596 65464564 64862184 
2928.618 64316892 63818596 63355536 62915944 62489120 62065232 61636720 
2931.993 61197532 60742544 60268132 59770964 59248652 58700152 58126472 
2935.368 57530812 56917764 56294336 55667700 55044596 54431704 53834712 
2938.744 53259176 52710812 52195612 51719612 51288804 50907556 50578424 
2942.119 50301176 50073104 49888348 49738324 49612836 49499416 49384460 
2945.494 49255288 49100296 48911012 48683748 48419892 48126248 47813124 
2948.869 47494160 47182860 46891380 46629312 46402944 46214464 46063352 
2952.245 45946468 45858780 45794232 45746596 45709668 45677792 45646360 
2955.620 45611724 45571352 45523628 45468180 45405272 45336196 45262860 
2958.995 45188032 45114284 45044112 44979352 44921112 44869708 44825108 
2962.370 44787156 44755900 44731400 44713844 44703232 44699524 44701836 
2965.746 44709584 44722328 44739920 44762584 44790760 44825548 44867868 
2969.121 44919456 44982328 45059400 45154244 45270584 45412040 45580664 
2972.496 45776228 45996340 46235620 46485872 46736820 46976988 47193424 
2975.871 47373496 47505988 47581628 47595344 47546728 47440792 47287144 
2979.247 47098836 46891972 46680960 46479532 46298576 46144524 46020984 
2982.622 45927540 45860916 45814964 45781128 45750128 45711252 45654528 
2985.997 45571760 45456812 45306660 45121600 44904612 44660852 44396600 
2989.372 44118576 43832808 43544192 43256424 42971700 42691404 42416584 
2992.748 42148148 41887244 41635180 41392808 41160516 40937164 40720584 
2996.123 40507128 40292940 40074064 39847708 39612432 39368176 39116952 
2999.498 38861196 38604256 38348912 38097844 37852700 37614492 37383636 
3002.873 37159904 36943320 36733700 36531132 36336228 36149548 35971764 
3006.249 35803412 35644368 35494296 35352476 35217924 35089552 34966644 
3009.624 34848580 34734640 34624788 34518404 34415312 34315256 34218056 
3012.999 34123564 34031316 33940916 33851320 33762136 33672828 33583684 
3016.374 33495772 33410992 33331558 33259294 33195306 33139658 33091522 
3019.750 33049368 33011470 32976866 32944982 32915954 32890006 32867812 
3023.125 32849408 32835078 32825462 32821354 32824390 32837078 32861344 
3026.500 32899156 32950948 33015796 33090774 33171594 33253000 33329054 
3029.875 33394280 33444020 33475336 33487074 33479772 33455976 33418756 
3033.250 33371524 33317174 33257794 33194662 33128642 33060488 32991092 
3036.626 32921710 32853660 32788408 32727130 32670434 32618746 32572280 
3040.001 32531138 32495644 32465544 32440584 32419804 32402168 32386356 
3043.376 32371394 32356832 32342802 32329988 32319422 32311820 32307930 
3046.751 32308250 32313068 32322954 32338020 32358688 32384746 32415486 
3050.127 32449580 32485574 32521960 32558172 32593888 32629498 32665826 
3053.502 32703944 32744314 32787230 32832504 32880358 32930504 32982870 
3056.877 33037282 33093418 33151030 33209432 33268776 33329376 33392028 
3060.252 33457872 33527840 33602584 33681960 33765324 33851856 33940700 
3063.628 34031528 34124064 34218596 34315292 34414092 34514424 34615816 
3067.003 34717448 34818604 34918596 35016708 35112076 35203584 35289828 
3070.378 35369620 35442384 35507996 35567328 35622068 35674184 35725340 
3073.753 35777148 35830220 35884452 35939228 35993720 36047144 36099100 
3077.129 36149872 36199640 36249484 36300132 36352044 36405692 36460784 
3080.504 36516896 36573628 36630836 36688448 36746860 36806796 36868652 
3083.879 36932752 36999024 37067080 37136620 37207296 37279136 37352436 
3087.254 37427516 37504880 37585048 37668112 37754380 37844096 37937484 
3090.630 38034364 38134376 38236872 38340624 38444432 38547512 38649272 
3094.005 38750224 38851052 38952812 39056664 39162964 39272268 39384396 
3097.380 39498976 39615808 39734448 39854172 39974296 40093652 40211224 
3100.755 40326208 40438280 40548012 40656756 40765820 40876944 40991088 
3104.131 41108720 41229444 41352828 41477628 41602688 41727052 41849952 
3107.506 41970888 42089912 42207372 42324236 42441648 42560516 42681568 
3110.881 42804668 42929268 43054304 43179232 43303648 43427948 43552796 
3114.256 43679224 43807628 43938016 44069652 44200996 44330800 44458112 
3117.632 44582456 44704260 44824148 44943044 45061644 45180240 45298976 
3121.007 45417704 45536248 45654640 45772988 45891812 46011336 46132252 
3124.382 46255008 46379604 46506080 46633996 46762984 46892712 47023140 
3127.757 47154420 47287072 47421204 47556672 47692776 47828216 47961812 
3131.133 48092600 48220244 48345480 48469568 48593728 48719256 48846640 
3134.508 48975952 49106640 49238516 49371136 49504724 49639396 49774964 
3137.883 49910944 50046708 50181584 50315276 50448076 50580732 50714060 
3141.258 50848736 50984756 51121636 51258864 51395796 51532620 51669640 
3144.634 51807748 51947688 52089436 52232604 52376460 52520140 52663492 
3148.009 52806856 52950936 53096680 53244492 53394752 53546492 53699180 
3151.384 53851548 54002772 54152472 54300080 54445296 54588200 54728888 
3154.759 54867708 55005632 55143336 55281500 55420196 55558860 55696364 
3158.135 55831912 55964904 56095336 56224712 56354316 56485884 56620548 
3161.510 56758692 56899824 57043192 57187780 57332720 57477368 57621004 
3164.885 57763064 57903344 58041708 58178676 58315228 58452432 58591424 
3168.260 58732432 58874928 59017588 59158732 59296736 59430944 59561128 
3171.635 59688272 59813208 59936852 60059728 60181884 60303308 60423812 
3175.011 60543516 60662452 60780924 60898704 61015756 61132072 61247848 
3178.386 61363468 61479384 61596624 61715236 61835336 61956116 62077084 
3181.761 62197280 62316172 62433488 62549004 62662864 62774836 62884844 
3185.136 62993088 63099972 63206048 63312328 63419140 63526176 63632884 
3188.512 63737936 63840284 63939972 64036912 64132848 64229332 64328260 
3191.887 64430556 64536648 64646304 64758480 64871960 64985192 65096544 
3195.262 65204100 65306252 65402000 65491112 65574528 65654224 65733092 
3198.637 65813080 65896020 65982176 66071020 66161380 66252180 66342928 
3202.013 66433692 66524900 66616708 66709116 66801652 66893904 66984864 
3205.388 67074216 67161928 67247904 67331664 67412960 67491368 67566728 
3208.763 67639712 67711272 67783024 67856080 67930544 68006376 68082336 
3212.138 68157560 68231880 68305936 68381488 68460144 68543208 68630592 
3215.514 68721488 68813600 68905080 68994280 69080672 69163768 69244128 
3218.889 69321784 69396688 69468848 69538760 69607328 69676760 69749192 
3222.264 69826816 69910960 70002120 70099104 70200000 70302064 70402656 
3225.639 70499688 70591528 70677600 70758552 70835776 70911408 70987688 
3229.015 71066384 71148464 71233960 71321880 71410960 71500208 71589208 
3232.390 71678536 71768704 71860496 71953904 72048072 72142032 72234800 
3235.765 72326064 72416056 72505984 72596824 72689496 72783744 72879672 
3239.140 72976552 73075144 73175840 73279968 73388312 73500496 73615064 
3242.516 73729360 73841000 73947720 74049480 74147456 74243992 74341768 
3245.891 74442952 74548448 74658256 74771360 74886728 75004032 75122696 
3249.266 75242544 75363488 75484928 75605984 75725680 75843168 75957840 
3252.641 76069784 76179552 76287680 76394920 76502232 76610248 76719232 
3256.017 76829080 76938840 77047552 77153792 77256512 77355760 77452256 
3259.392 77547832 77644656 77744312 77847200 77952888 78059120 78163560 
3262.767 78264128 78359168 78448384 78532304 78611752 78687768 78761088 
3266.142 78832352 78901888 78970432 79038280 79106056 79174080 79242584 
3269.518 79311232 79379840 79447992 79515392 79581888 79647440 79711928 
3272.893 79775584 79838704 79901776 79965424 80030120 80096336 80163600 
3276.268 80231472 80298952 80365448 80431000 80496360 80562736 80630864 
3279.643 80701720 80775184 80850736 80927576 81005704 81085296 81167456 
3283.019 81253256 81343520 81437872 81535600 81635120 81735208 81835296 
3286.394 81935432 82036880 82140712 82248456 82360944 82478960 82602376 
3289.769 82731480 82866072 83005560 83149504 83297072 83447704 83601760 
3293.144 83760208 83925352 84099440 84284384 84480632 84687360 84902240 
3296.520 85122352 85345440 85569888 85795944 86024504 86257104 86494808 
3299.895 86738136 86986704 87240240 87498416 87761488 88029768 88304080 
3303.270 88584384 88870936 89163200 89461400 89765512 90076608 90395640 
3306.645 90722944 91059152 91404304 91757704 92119136 92488168 92864280 
3310.021 93247128 93635616 94028528 94424792 94824232 95226880 95634576 
3313.396 96048472 96469632 96897880 97331520 97768248 98205408 98641816 
3316.771 99077320 99513520 99951952 100393744 100839328 101287640 101737072 
3320.146 102186096 102634160 103081168 103527304 103972528 104415952 
3323.039 104856408 105292880 105724632 106152408 106577056 106999408 
3325.932 107418816 107833400 108239584 108633896 109013360 109376832 
3328.825 109724352 110056784 110375032 110679184 110968328 111241520 
3331.719 111498184 111737936 111961408 112168128 112356664 112524112 
3334.612 112666592 112780336 112863680 112917608 112945120 112950528 
3337.505 112937464 112907472 112859688 112791376 112698808 112579080 
3340.398 112430360 112252256 112045240 111809816 111546080 111253976 
3343.291 110933160 110583816 110206352 109801312 109368392 108908048 
3346.184 108419872 107904296 107362760 106798096 106213592 105613144 
3349.077 104999640 104374616 103738920 103092640 102435992 101770080 
3351.970 101096776 100417208 99733160 99045072 98352952 97657120 96958808 
3355.345 96260160 95564456 94875424 94195848 93527728 92871792 92227952 
3358.720 91596512 90978128 90374136 89786376 89215928 88663256 88127648 
3362.096 87607328 87100680 86606184 86122880 85650192 85188304 84736736 
3365.471 84295848 83865984 83448352 83043944 82654592 82280936 81922352 
3368.846 81576936 81241664 80913280 80588784 80266384 79945152 79624832 
3372.221 79305224 78985056 78662504 78335472 78002336 77661816 77313992 
3375.597 76959448 76598704 76231640 75857768 75476032 75085360 74684936 
3378.972 74274304 73853376 73421512 72977656 72520032 72047448 71558576 
3382.347 71053432 70533592 70001072 69459472 68911608 68360392 67807744 
3385.722 67255408 66703820 66153004 65603124 65053472 64503624 63953332 
3389.098 63403040 62853524 62305960 61762104 61223280 60690796 60165632 
3392.473 59648736 59140964 58642656 58154124 57674696 57202332 56734224 
3395.848 56267480 55799208 55328464 54855752 54383928 53916220 53456132 
3399.223 53005592 52565016 52132880 51706548 51283920 50863188 50443688 
3402.599 50025516 49609196 49194984 48782760 48372368 47963664 47556748 
3405.974 47152644 46751840 46355012 45961864 45571428 45182224 44793588 
3409.349 44404968 44017248 43632400 43252216 42878976 42513812 42157200 
3412.724 41808616 41467460 41132796 40803888 40479996 40160776 39845604 
3416.100 39534036 39225628 38920084 38617256 38317244 38020260 37726444 
3419.475 37436148 37149760 36867712 36590892 36319872 36055428 35797688 
3422.850 35546220 35299892 35057364 34817276 34578892 34341896 34107184 
3426.225 33875316 33647012 33422228 33200524 32980404 32760642 32539994 
3429.601 32318316 32096106 31874832 31655986 31441420 31231800 31027122 
3432.976 30826702 30629114 30432892 30237008 30041250 29846110 29652832 
3436.351 29462904 29277488 29097182 28921344 28748478 28576568 28403166 
3439.726 28226194 28045124 27859922 27672082 27484006 27298798 27118818 
3443.102 26945754 26779804 26619274 26461584 26303106 26140852 25973416 
3446.477 25800948 25625806 25451472 25281704 25118704 24962788 24812400 
3449.852 24664484 24516022 24364526 24209896 24053148 23897158 23743850 
3453.227 23595280 23451346 23310710 23171658 23031986 22890470 22746978 
3456.603 22602102 22457520 22314658 22174842 22038768 21906812 21778378 
3459.978 21652390 21527306 21401492 21273452 21142320 21008134 20872388 
3463.353 20737172 20604778 20477076 20355144 20238800 20126756 20017620 
3466.728 19909692 19801720 19692874 19582424 19470064 19355204 19237916 
3470.104 19118614 18998758 18880250 18765580 18656094 18552412 18453592 
3473.479 18357492 18261620 18163870 18063308 17960628 17857974 17757830 
3476.854 17662574 17573962 17492268 17416590 17345374 17276480 17207288 
3480.229 17135866 17060732 16981098 16897588 16811888 16726652 16644498 
3483.604 16568005 16498236 16435120 16377140 16322058 16267875 16213013 
3486.980 16157126 16100524 16044410 15989782 15937498 15888005 15841473 
3490.355 15798278 15758866 15723307 15692182 15665010 15640965 15618878 
3493.730 15597653 15576084 15554345 15533190 15513926 15498611 15489236 
3497.105 15487039 15493289 15508157 15531061 15560595 15594836 15631415 
3500.481 15668342 15704136 15738595 15772473 15808001 15847899 15895326 
3503.856 15952725 16021650 16102759 16195541 16298698 16409965 16526872 
3507.231 16646599 16766462 16884706 17000600 17114978 17229800 17347858 
3510.606 17471674 17602806 17741746 17887666 18039372 18195170 18354380 
3513.982 18516034 18679510 18843742 19006582 19165466 19317618 19460396 
3517.357 19592582 19713434 19823394 19922734 20011722 20089346 20154486 
3520.732 20205544 20241092 20260290 20262616 20247582 20214744 20163546 
3524.107 20093300 20003670 19894566 19765930 19618336 19452044 19267736 
3527.483 19066438 18849832 18620158 18380304 18133052 17880796 17625132 
3530.858 17367100 17106568 16844436 16580569 16315384 16048880 15780410 
3534.233 15509599 15235457 14958161 14678848 14399921 14125005 13857346 
3537.608 13599594 13352484 13115625 12887085 12665249 12448574 12237084 
3540.984 12031284 11832119 11640226 11455358 11275806 11099624 10923991 
3544.359 10746594 10566044 10381700 10194721 10007110 9822224 9643006 
3547.734 9472464 9311840 9160649 9016952 8877430 8738561 8597944 8454569 
3551.592 8309451 8165428 8025435 7892068 7766567 7648320 7536004 7427896 
3555.449 7323051 7221263 7122563 7027119 6934457 6843262 6751749 6657968 
3559.306 6561044 6460915 6359429 6258505 6160697 6068555 5983555 5906195 
3563.164 5836137 5771294 5708610 5643350 5570548 5485041 5383784 5266753 
3567.021 5138421 5006540 4880128 4766917 4671654 4594227 4531478 4478179 
3570.879 4429404 4380235 4328259 4272341 4212649 4150156 4086334 4022287 
3574.736 3959287 3898200 3839463 3783040 3728094 3672721 3615451 3554480 
3578.594 3489343 3420875 3351117 3283473 3221013 3166906 3122351 3088211 
3582.451 3063484 3046267 3034121 3023511 3010832 2991915 2962590 2919656 
3586.308 2861518 2789148 2706420 2619942 2536847 2463398 2403588 2357745 
3590.166 2323899 2297750 2274567 2249887 2220512 2184445 2141888 2094707 
3594.023 2045701 1997998 1954129 1915389 1881377 1851328 1823178 1795329 
3597.881 1766151 1735412 1702645 1668351 1632829 1596845 1561329 1527677 
3601.738 1497321 1471786 1452105 1438674 1430829 1427272 1425510 1423150 
3605.595 1417565 1406562 1388778 1363516 1331077 1293057 1251252 1208055 
3609.453 1165561 1124599 1085268 1046572 1006850 965272 921639 877480 835482 
3613.792 798867 770287 750936 740049 735668 734373 733378 729362 720600 
3618.132 705964 685354 659702 630401 599410 568620 539326 512687 489002 
3622.472 468701 451652 438684 430558 428667 433974 446180 463228 480543 
3626.811 491191 486978 461172 411089 340718 261174 186352 127054 87416 65941 
3631.633 56165 51294 45130 34493 18621 -99 -18587 -33397 -42608 -46285 
3636.455 -45821 -43270 -40786 -39957 -41514 -45921 -53210 -63148 -75307 
3640.794 -88723 -101974 -113303 -120392 -121286 -115026 -101676 -82628 
3644.652 -60531 -38930 -21536 -12160 -13617 -27632 -54303 -92202 -139074 
3648.991 -191671 -246381 -299362 -346741 -384383 -409310 -419936 -416560 
3652.849 -401730 -380146 -357501 -340219 -333763 -341610 -363394 -394215 
3656.706 -427417 -455552 -473657 -480641 -478721 -472102 -465217 -461808 
3660.564 -463827 -471506 -483884 -499208 -515458 -531409 -545805 -557321 
3664.421 -564468 -565230 -557586 -540477 -513472 -478159 -437877 -396532 
3668.279 -358230 -326082 -298865 -272342 -237837 -186868 -112111 -10238 
3672.136 117708 267871 433012 604387 767930 905436 997717 1027475 988584 
3676.476 887075 738024 558601 363632 165867 -24584 -198096 -346642 -465184 
3680.815 -553151 -614466 -656088 -685532 -708953 -728800 -744876 -754899 
3684.673 -757015 -750665 -737533 -721920 -708391 -701940 -705579 -719902 
3688.530 -742495 -768857 -794026 -814333 -827859 -834473 -835432 -832125 
3692.387 -826536 -820187 -814068 -808843 -804477 -799814 -793365 -783377 
3696.245 -768427 -747192 -720134 -688112 -653375 -619164 -588922 -566123 
3700.102 -554012 -554740 -568340 -593058 -624657 -658668 -690560 -716958 
3703.960 -736342 -748118 -752947 -751029 -742693 -727808 -707001 -680834 
3707.817 -651522 -622109 -596533 -578333 -570557 -574330 -588459 -610595 
3711.675 -637362 -664590 -689634 -709978 -724864 -733861 -737798 -736971 
3715.532 -732571 -725658 -717421 -708787 -700319 -692016 -683514 -674052 
3719.389 -663201 -650894 -637924 -625120 -613837 -605532 -600338 -598749 
3723.247 -600305 -604904 -612349 -623003 -637263 -655492 -677228 -700319 
3727.104 -722119 -738889 -747456 -745802 -733464 -711732 -683778 -653176 
3730.962 -624128 -599974 -582701 -573006 -570359 -574660 -586374 -606591 
3734.819 -636469 -675706 -721159 -767203 -807355 -836226 -851107 -852265 
3738.677 -841087 -820121 -791546 -756817 -717851 -677724 -640869 -614301 
3742.534 -606194 -623764 -669718 -737864 -813043 -874520 -906925 -905933 
3746.391 -877364 -832820 -784038 -741635 -711698 -696912 -695655 -704189 
3750.249 -717388 -732274 -747159 -761944 -775736 -786750 -792472 -791083 
3754.106 -782252 -767931 -751194 -735515 -724202 -719075 -720332 -727510 
3757.964 -739286 -754402 -771800 -789793 -806065 -817442 -820385 -812282 
3761.821 -792736 -763631 -729330 -694431 -663829 -640505 -625848 -618337 
3765.678 -615591 -614764 -614400 -614499 -616584 -622275 -633127 -649041 
3769.536 -668527 -688707 -706770 -719869 -726981 -728271 -724202 -716495 
3773.393 -706273 -694695 -682190 -668891 -654566 -639579 -624392 -610363 
3777.251 -599974 -595639 -599378 -611290 -629752 -650430 -668395 -679445 
3781.108 -681661 -675772 -664590 -652779 -644078 -641233 -644608 -653011 
3784.966 -663432 -672828 -679081 -681264 -679544 -675045 -669685 -664557 
3788.823 -661414 -661150 -664723 -672001 -681661 -691883 -700154 -703925 
3792.680 -702535 -696184 -687517 -679742 -676599 -679974 -689204 -700749 
3796.538 -708887 -708093 -694728 -669090 -634715 -598385 -568506 -552423 
3800.395 -555732 -578730 -616584 -659032 -695357 -718215 -725195 -719439 
3804.253 -706902 -694695 -689005 -693405 -708225 -729528 -751326 -766674 
3808.110 -771734 -765814 -751293 -732174 -711434 -690924 -670711 -649306 
3811.968 -625385 -598286 -569829 -543819 -525254 -519231 -528563 -551728 
3815.825 -581742 -608345 -621845 -616617 -593952 -560067 -525585 -501525 
3819.682 -497752 -519595 -565660 -626410 -687517 -735416 -762043 -766905 
3823.540 -754998 -734325 -712559 -694728 -683150 -677327 -674747 -672034 
3827.397 -666939 -658470 -647354 -635079 -623036 -612084 -602257 -592992 
3831.255 -583131 -571815 -558214 -541768 -522275 -500102 -476471 -453500 
3835.112 -434236 -422452 -421227 -432482 -455155 -485970 -519131 -548684 
3838.969 -570292 -582668 -587003 -587003 -586540 -589088 -596202 -608411 
3842.827 -624293 -641498 -657378 -669189 -674846 -672828 -662638 -645170 
3846.684 -621084 -592066 -559604 -524559 -487558 -448833 -409211 -370479 
3850.542 -336081 -311646 -304163 -320884 -366274 -438506 -526412 -613804 
3854.399 -684572 -729727 -748647 -746695 -731546 -709614 -685631 -662638 
3858.257 -641200 -621547 -603150 -585415 -568605 -553052 -539484 -528828 
3862.114 -522275 -520654 -524658 -533858 -546434 -559141 -567347 -566884 
3865.971 -555368 -533130 -503610 -473028 -448072 -434964 -437778 -455817 
3869.829 -483487 -511884 -532667 -541337 -538260 -528265 -517874 -513538 
3873.686 -518536 -533064 -553383 -573767 -588393 -593422 -588724 -576315 
3877.544 -560498 -545705 -535910 -532965 -536704 -543720 -549842 -550239 
3881.401 -541933 -524129 -498943 -470414 -443670 -424305 -416758 -423279 
3885.259 -442412 -469222 -496792 -517576 -526875 -523732 -509964 -489908 
3889.116 -468428 -450554 -439830 -437976 -444133 -455652 -468428 -478357 
3892.973 -482825 -479813 -468990 -450786 -426921 -399181 -370280 -342801 
3896.831 -319692 -302540 -292872 -290024 -292938 -298998 -306116 -312606 
3900.688 -317970 -323201 -329459 -338464 -351376 -368161 -387793 -408549 
3904.546 -428112 -444894 -457638 -465846 -470182 -470976 -469123 -464886 
3908.403 -458266 -449396 -438241 -424670 -409277 -392394 -374981 -357898 
3912.260 -341974 -328002 -316778 -308567 -303898 -302872 -305454 -311149 
3916.118 -318996 -327969 -336577 -343894 -349489 -352800 -353926 -352336 
3919.975 -347470 -338597 -325155 -307474 -286581 -265057 -245851 -231876 
3923.833 -225054 -225551 -231876 -241148 -249990 -256050 -258203 -256613 
3927.690 -252374 -247043 -241744 -237042 -232902 -229491 -226842 -225253 
3931.548 -225087 -226908 -229955 -233532 -236214 -237042 -235585 -232406 
3935.405 -228564 -225418 -224226 -225253 -228001 -231677 -234923 -236910 
3939.262 -237108 -235585 -232969 -229955 -227306 -225451 -224425 -223862 
3943.120 -222868 -221179 -217536 -212105 -204720 -196076 -187564 -180377 
3946.977 -175740 -174216 -175839 -180145 -186040 -192499 -198493 -203428 
3950.835 -206773 -208065 -206939 -203196 -197202 -189650 -181801 -174746 
3954.692 -169613 -166930 -166036 -165638 -164081 -160107 -153151 -143479 
3958.550 -132250 -121187 -111812 -105552 -103233 -104922 -110521 -119199 
3962.407 -129468 -139505 -147355 -151296 -150170 -143811 -133277 -120259 
3966.264 -106546 -93527 -81568 -70503 -58908 -46285 -32933 -19482 -7554 1225 
3971.086 6196 7620 6925 5765 5732 7654 11663 16832 22233 27104 31180 34394 
3976.872 37111 39365 41021 41518 40723 38470 35090 31014 26773 22896 19748 
3982.176 17395 16103 16169 17892 21338 26408 32605 39000 44932 49637 52951 
3987.480 54840 55867 56331 56629 56563 56265 55204 53481 51327 48643 46125 
3992.784 43573 41386 39365 37641 36117 34361 32505 30119 27468 24917 23426 
3998.088 23592 26242 31180 37873 44666 49836 
##END=
