
##TITLE=Z413_2_e
##JCAMP-DX=5.01  $$ Nicolet v. 1
##DATATYPE=INFRARED SPECTRUM
##ORIGIN=UniL
##OWNER=Nicolet
##LONGDATE=2011/09/21
##TIME=15:25:54
##SPECTROMETER/DATA SYSTEM=Nicolet iS5
##DATA PROCESSING=
Ratio against background
%Transmittance->Absorbance
Truncated
ElementMultiply or ElementDivide
##COMMENTS=
Number of sample scans: 32
Collection length: 51.21 sec
Sample gain: 2.0
Background collected on: Mer Sep 21 15:15:46 2011 (GMT+02:00);
Number of background scans: 32
Background gain: 2.0
Sample spacing:  1.000
Number of scan points: 12415
Resolution points: 8192
Number of FFT points: 65536
Apodization: N-B fort;
Phase correction: Mertz;
Laser frequency: 15798.0 cm-1
Number of rejected sample scans: 0
Number of rejected background scans: 0
Bench serial number: ASB1000141;
##RESOLUTION=4.000
##XUNITS=1/CM
##YUNITS=ABSORBANCE
##FIRSTX=649.893372
##LASTX=4000.122314
##FIRSTY=0.110911
##MAXX=4000.122314
##MINX=649.893372
##MAXY=0.280577
##MINY=-0.005889
##XFACTOR=1.000000
##YFACTOR=1.000000E-009
##NPOINTS=6950
##DELTAX=0.482117
##ZPD=6100
##XYDATA=(X++(Y..Y))
649.893 110911128 110280456 109749344 109336592 109030776 108803832 
652.786 108627688 108493456 108414264 108418520 108531024 108757824 
655.679 109079080 109457224 109851496 110236160 110609512 110990312 
658.571 111404352 111870128 112392592 112963376 113573392 114218920 
661.464 114907200 115649968 116452064 117301736 118170424 119017768 
664.357 119805368 120507848 121106536 121587800 121934704 122123408 
667.250 122137056 121988712 121733064 121442016 121169600 120923312 
670.142 120669248 120352984 119920512 119341728 118616224 117778360 
673.035 116879056 115973296 115093080 114242800 113406144 112562072 
675.928 111700792 110830040 109969704 109138368 108342224 107570704 
678.820 106801400 106012648 105195776 104358016 103520064 102703408 
681.713 101922856 101181264 100472752 99789984 99130528 98498296 97900024 
685.088 97338032 96805488 96286376 95762776 95222464 94666432 94109088 
688.463 93572976 93080128 92641856 92257328 91915224 91602688 91310584 
691.838 91037664 90789096 90571808 90390048 90242824 90127208 90041632 
695.212 89990016 89982848 90033800 90153224 90345000 90604544 90921432 
698.587 91283960 91684856 92122944 92600720 93119912 93677048 94260720 
701.962 94855848 95447168 96024664 96586456 97135344 97673968 98200056 
705.337 98703024 99167368 99579736 99933680 100234080 100494456 100732936 
708.712 100963936 101196272 101433840 101680080 101943392 102239224 
711.604 102586320 102998840 103479448 104013792 104571728 105112448 
714.497 105598064 105999536 106303184 106509136 106628176 106676000 
717.390 106670320 106633296 106594296 106588576 106660320 106852504 
720.282 107194448 107693056 108320624 109015104 109679176 110199688 
723.175 110468216 110393528 109931376 109091008 107941120 106591288 
726.068 105175088 103824464 102633784 101656088 100898648 100335208 99922752 
729.443 99618368 99393376 99231360 99125696 99071416 99058888 99073704 
732.817 99100720 99128360 99153504 99181064 99219408 99274048 99344096 
736.192 99421736 99497312 99563400 99620248 99674592 99736952 99816464 
739.567 99915784 100031368 100155416 100280784 100403888 100525784 100649712 
742.942 100777936 100909720 101041496 101168584 101289056 101404464 
745.835 101519056 101635984 101754584 101869016 101970496 102051840 
748.727 102111016 102153272 102188904 102228528 102278128 102337096 
751.620 102399800 102460280 102516120 102570920 102631808 102705344 
754.513 102792528 102887792 102980016 103058232 103118144 103163136 
757.405 103203776 103251888 103315984 103395856 103485664 103575536 
760.298 103659280 103736856 103814032 103899120 103999136 104116576 
763.191 104249744 104397160 104561864 104755440 104999856 105325016 
766.083 105761152 106335560 107061808 107932160 108909456 109923184 
768.976 110875328 111640496 112097608 112152944 111764256 110961440 
771.869 109845392 108573176 107306760 106185920 105294776 104645504 
774.762 104190144 103842312 103513544 103128512 102640752 102031216 
777.654 101292784 100418416 99394952 98201504 96818784 95237648 93463496 
781.029 91516576 89427448 87234208 84976064 82693480 80430200 78227384 
784.404 76124464 74154768 72340344 70692072 69211368 67891952 66725068 
787.779 65701208 64812520 64051240 63410132 62881404 62456864 62130104 
791.154 61897076 61757940 61716044 61776964 61947784 62235288 62645176 
794.528 63181936 63848420 64644724 65567664 66611104 67766496 69026560 
797.903 70390304 71867216 73482568 75273592 77287656 79568400 82137864 
801.278 84978272 88012552 91102968 94034656 96548672 98382872 99294120 
804.653 99131192 97865576 95609136 92590632 89112344 85495368 81986016 
808.028 78730696 75755704 72989760 70306656 67580248 64737672 61774404 
811.402 58755876 55784404 52977252 50429136 48193180 46285124 44686560 
814.777 43360720 42262440 41349072 40585044 39939820 39389944 38918164 
818.152 38512316 38165776 37875368 37638916 37452940 37311848 37207876 
821.527 37134780 37089312 37072820 37090320 37148352 37251268 37399344 
824.902 37588624 37812828 38066048 38344240 38646336 38973252 39326640 
828.277 39708380 40120976 40570384 41067164 41628980 42282124 43058108 
831.651 43993048 45124724 46481224 48076056 49892136 51874424 53914080 
835.026 55849056 57489812 58623692 59067312 58710280 57533236 55625252 
838.401 53157116 50362416 47476236 44697944 42181008 40007864 38203656 
841.776 36750972 35608292 34724736 34048944 33538866 33158396 32878034 
845.151 32676686 32538318 32452508 32413486 32416876 32457508 32529104 
848.525 32623462 32732632 32851518 32977972 33113122 33260048 33421800 
851.900 33599968 33795552 34009420 34243688 34502332 34790244 35111932 
855.275 35469884 35864440 36295232 36763264 37272496 37830792 38449648 
858.650 39142260 39921516 40801560 41798364 42929964 44219300 45687656 
862.025 47347924 49194276 51191384 53271388 55327828 57236804 58869732 
865.400 60110984 60887916 61178304 61020060 60501048 59753208 58934052 
868.774 58191288 57661832 57450176 57618092 58193332 59169252 60513652 
872.149 62169480 64059644 66091620 68145624 70088008 71780000 73080168 
875.524 73877600 74104496 73747336 72849896 71504776 69840792 67990600 
878.899 66083060 64225032 62484604 60896152 59459744 58151888 56935668 
882.274 55775700 54650232 53555600 52508360 51537432 50679356 49965400 
885.648 49415388 49036488 48823284 48763260 48840928 49043388 49360816 
889.023 49786148 50314904 50942132 51664152 52479160 53388984 54399928 
892.398 55521660 56766580 58147116 59674092 61355760 63195884 65190740 
895.773 67322144 69549880 71808304 73993920 75978608 77623696 78789488 
899.148 79372608 79319544 78636248 77386208 75680200 73662688 71479160 
902.523 69272304 67165672 65247028 63577264 62187336 61083560 60257704 
905.897 59692492 59369896 59273528 59390748 59713516 60236008 60954520 
909.272 61866896 62972820 64274124 65773220 67469304 69354432 71406472 
912.647 73584216 75832552 78082440 80261688 82312088 84193672 85894864 
916.022 87432152 88846944 90197552 91542840 92936592 94408120 95951136 
919.397 97512640 98992008 100254816 101138264 101494816 101224304 100299856 
922.771 98790624 96861600 94768792 92801880 91263680 90426680 90469120 
926.146 91462136 93338024 95906136 98851984 101784864 104324136 106117936 
929.521 106924888 106647192 105317832 103077096 100115024 96643120 92844544 
932.896 88862512 84814584 80791432 76873216 73142696 69675672 66541852 
936.271 63800520 61490144 59632888 58235388 57292720 56790636 56703264 
939.646 56992640 57597964 58434084 59400132 60374844 61237816 61888060 
943.020 62247868 62280336 61990356 61422320 60648700 59756176 58837064 
946.395 57968356 57207244 56589028 56125688 55813184 55636816 55579044 
949.770 55621524 55746616 55938752 56180780 56455584 56747664 57044476 
953.145 57339564 57632960 57930152 58238912 58566208 58916444 59290732 
956.520 59688312 60108548 60551552 61018996 61511792 62029532 62568864 
959.894 63124804 63692272 64268596 64854108 65451504 66064768 66696212 
963.269 67345784 68011568 68690432 69381024 70083808 70801376 71536888 
966.644 72292680 73069464 73867040 74685640 75527632 76397176 77299896 
970.019 78240480 79221312 80242432 81302720 82402160 83544168 84735528 
973.394 85984840 87300472 88687312 90146536 91676592 93275544 94943200 
976.768 96682320 98497424 100392408 102369048 104426744 106563928 108781488 
980.143 111084448 113483024 115989784 118616088 121368744 124248288 
983.036 127247272 130350320 133533864 136759536 139966848 143074832 
985.929 145971776 148524512 150602816 152084176 152881472 152959120 
988.821 152334192 151077440 149298560 147146688 144785456 142378320 
991.714 140087232 138043776 136345520 135054880 134194392 133756576 
994.607 133713472 134030464 134672128 135607824 136814416 138271632 
997.500 139959296 141858000 143946384 146202528 148604336 151122656 
1000.392 153716480 156330784 158886896 161292160 163452128 165275456 
1003.285 166696592 167682864 168237392 168398688 168235728 167847232 
1006.178 167343664 166847840 166484976 166360688 166561888 167146624 
1009.070 168139872 169542496 171336464 173497136 175996368 178806320 
1011.963 181900944 185249040 188815952 192567248 196468144 200490448 
1014.856 204608992 208790160 212980848 217094384 220996016 224523232 
1017.748 227495728 229743664 231153584 231683760 231386112 230395456 
1020.641 228930752 227269264 225694560 224498544 223931760 224169072 
1023.534 225316032 227390368 230337920 234041696 238351344 243106880 
1026.427 248135360 253274560 258365536 263239504 267736848 271706592 
1029.320 275018080 277585248 279364512 280353568 280577088 280074976 
1032.213 278892384 277074144 274671072 271740192 268338592 264522192 
1035.106 260335392 255808288 250965200 245835024 240462688 234921616 
1037.999 229307488 223727808 218297232 213113584 208256144 203785248 
1040.892 199734944 196115456 192907152 190058448 187481168 185053152 
1043.785 182644032 180123296 177391072 174402784 171172208 167772192 
1046.678 164312096 160930016 157762880 154926768 152519904 150605968 
1049.571 149215856 148352096 147990016 148084784 148575456 149398304 
1052.464 150490816 151794384 153259920 154838064 156471888 158096864 
1055.357 159629744 160974240 162036688 162725856 162968960 162722192 
1058.250 161968800 160726624 159044672 157009664 154737792 152363232 
1061.144 150040064 147912496 146104880 144719840 143822320 143445520 
1064.037 143593664 144245056 145353440 146845824 148630176 150587680 
1066.930 152580000 154471856 156129696 157443568 158340448 158778192 
1069.823 158745760 158254064 157328656 156002224 154310128 152291152 
1072.716 149983568 147424816 144655856 141720496 138671712 135579968 
1075.609 132527456 129610312 126934096 124593840 122673872 121237576 
1078.502 120318936 119924048 120027872 120577560 121485576 122633568 
1081.395 123886264 125085520 126078800 126744760 127002176 126834912 
1084.288 126291112 125480760 124549920 123659616 122975112 122631904 
1087.181 122733464 123345000 124484728 126127928 128205152 130616696 
1090.074 133231696 135902576 138491680 140868048 142925104 144588128 
1092.967 145803712 146540976 146787040 146544688 145832672 144684064 
1095.860 143149600 141290992 139178192 136892160 134513840 132123784 
1098.753 129799200 127597944 125554416 123670104 121913640 120223648 
1101.646 118521448 116736224 114814904 112741504 110539624 108271552 
1104.540 106025800 103897192 101984368 100370952 99118624 98270680 97846848 
1107.915 97846560 98251032 99026960 100129744 101502312 103084488 104809544 
1111.290 106602552 108387472 110079368 111586384 112822952 113708896 
1114.183 114182328 114209440 113783768 112926896 111679656 110100072 
1117.076 108254040 106206816 104026168 101771968 99491776 97222536 94985552 
1120.451 92789728 90636672 88526208 86461648 84453792 82519592 80680736 
1123.827 78960496 77376984 75944352 74671360 73562904 72623696 71859280 
1127.202 71277760 70888552 70700768 70719760 70944496 71364712 71960192 
1130.577 72696584 73528568 74401896 75252400 76018312 76647208 77101992 
1133.952 77372152 77474352 77452576 77366488 77285920 77279744 77400104 
1137.328 77681184 78130792 78731096 79437808 80185480 80899632 81496704 
1140.703 81899584 82047280 81894504 81418168 80614032 79493352 78079272 
1144.078 76403224 74506792 72436448 70243864 67986184 65716780 63486672 
1147.453 61341984 59318460 57444692 55741680 54221164 52888656 51743016 
1150.829 50778304 49984028 49347080 48854724 48494504 48256456 48133872 
1154.204 48121956 48217392 48417040 48716996 49112984 49600540 50176416 
1157.579 50838532 51586276 52419076 53336080 54334400 55409432 56554644 
1160.954 57761848 59019828 60314424 61624692 62922456 64174092 65338104 
1164.330 66371068 67231896 67880992 68286080 68423304 68276120 67839384 
1167.705 67119104 66133752 64911312 63487940 61905252 60203156 58420708 
1171.080 56594768 54756440 52935816 51160216 49452700 47834284 46321836 
1174.455 44927172 43657972 42518340 41509564 40631540 39883704 39265920 
1177.831 38778080 38420544 38193384 38096864 38131844 38300020 38604400 
1181.206 39048612 39636356 40370456 41251960 42279568 43449772 44755900 
1184.581 46185940 47718844 49324396 50956552 52555104 54053016 55375140 
1187.956 56451580 57227396 57663532 57745540 57483040 56909680 56076260 
1191.332 55045272 53888196 52670976 51454688 50292468 49224300 48281784 
1194.707 47487844 46856980 46397816 46111912 45994020 46030268 46197696 
1198.082 46466068 46794796 47137096 47444784 47665780 47752428 47665224 
1201.457 47374196 46865616 46143560 45230940 44165264 42994380 41772248 
1204.833 40547284 39361572 38247440 37224264 36302184 35484016 34767736 
1208.208 34148512 33621020 33179890 32819424 32534674 32321848 32178168 
1211.583 32102816 32096106 32159008 32292296 32495498 32766576 33102110 
1214.958 33497382 33945892 34439956 34969516 35521196 36080772 36632460 
1218.333 37161240 37655720 38107320 38511124 38865220 39169092 39424120 
1221.709 39633196 39802024 39939968 40059060 40174332 40301268 40453332 
1225.084 40641584 40872248 41147476 41464980 41819088 42201344 42600644 
1228.459 43005684 43406160 43794912 44170548 44538064 44909168 45299340 
1231.834 45727488 46212920 46773096 47425564 48187072 49073656 50102296 
1235.210 51288692 52645984 54183884 55907772 57818664 59913536 62186000 
1238.585 64625188 67213280 69926568 72732544 75592024 78465456 81313984 
1241.960 84102496 86803360 89391176 91841088 94128312 96223808 98096880 
1245.335 99716272 101048856 102061136 102721160 102997408 102865296 
1248.229 102310800 101332992 99945152 98171472 96044504 93598496 90869392 
1251.604 87898424 84729568 81416880 78024664 74618872 71270184 68046600 
1254.979 65003628 62188752 59634864 57358280 55361100 53630084 52139492 
1258.354 50850264 49715216 48683784 47701020 46719148 45700136 44617964 
1261.729 43463068 42240344 40967276 39668588 38373452 37111612 35907588 
1265.105 34781376 33746376 32809454 31971582 31229522 30576708 30004642 
1268.480 29504394 29068768 28691980 28370058 28100864 27882816 27714038 
1271.855 27592388 27515848 27483160 27494596 27551820 27657462 27813678 
1275.230 28021018 28276902 28574302 28900484 29238358 29564366 29850832 
1278.606 30070614 30197936 30214416 30112730 29897506 29584406 29195194 
1281.981 28755948 28290128 27816188 27348656 26897386 26470284 26075546 
1285.356 25721734 25417744 25172106 24991392 24880604 24843730 24884254 
1288.731 25006728 25216174 25517002 25912004 26400066 26976180 27630238 
1292.107 28347068 29107138 29884158 30646748 31361100 31991058 32506532 
1295.482 32888576 33132396 33249636 33266448 33220236 33150208 33094958 
1298.857 33088234 33154570 33310880 33565532 33917412 34355132 34855904 
1302.232 35388492 35912700 36385872 36770552 37036264 37165496 37154888 
1305.608 37014396 36764744 36433328 36053228 35656848 35273332 34928004 
1308.983 34637740 34411940 34252720 34157112 34119120 34132416 34192240 
1312.358 34294960 34437732 34617504 34830344 35071592 35337236 35624804 
1315.733 35933540 36264472 36618940 36997800 37400860 37827108 38275592 
1319.109 38746128 39239556 39755868 40292652 40842508 41392440 41923004 
1322.484 42409020 42824672 43144244 43347908 43426408 43384480 43243796 
1325.859 43039524 42821016 42642492 42552364 42590444 42777720 43114568 
1329.234 43583200 44153456 44791312 45463248 46144412 46819076 47479488 
1332.610 48124692 48758180 49385948 50015288 50653256 51305248 51973304 
1335.985 52653768 53336792 54008064 54647828 55234312 55746052 56161888 
1339.360 56463772 56638856 56680644 56590764 56379140 56063292 55665324 
1342.735 55209856 54723400 54229832 53750588 53303752 52901832 52552600 
1346.111 52259476 52020928 51830856 51677140 51543216 51406796 51243132 
1349.486 51030180 50750820 50398288 49978448 49511704 49030884 48577200 
1352.861 48199476 47944828 47852744 47951896 48252048 48741460 49384980 
1356.236 50131376 50916272 51669600 52330260 52845884 53179620 53314392 
1359.612 53250824 53009932 52628256 52160864 51675200 51240556 50925216 
1362.987 50779384 50824484 51050788 51417652 51863560 52309368 52674264 
1366.362 52882036 52865756 52584572 52028508 51224528 50228784 49120068 
1369.737 47983608 46890384 45895828 45033488 44316308 43745364 43315836 
1373.113 43023208 42864932 42839408 42941888 43160640 43477016 43868728 
1376.488 44313044 44792484 45296400 45821112 46369576 46950552 47579332 
1379.863 48276044 49065828 49974172 51017920 52195240 53473708 54789592 
1383.238 56042556 57108076 57862344 58183408 57979300 57207096 55891376 
1386.614 54136856 52112444 50031168 48084792 46405932 45058192 44038628 
1389.989 43303936 42791252 42438504 42188600 41990776 41803328 41588976 
1393.364 41317548 40972156 40550852 40068688 39550112 39020412 38496568 
1396.739 37983736 37480100 36983980 36501432 36051176 35661380 35361028 
1400.115 35172756 35104676 35151632 35299532 35532340 35835400 36197156 
1403.490 36610504 37070040 37570560 38106232 38669988 39255076 39856244 
1406.865 40471192 41100852 41748276 42416912 43108532 43822584 44555616 
1410.240 45302504 46058968 46821180 47586952 48353812 49116580 49867608 
1413.615 50597224 51296708 51962512 52598184 53215388 53831296 54466144 
1416.991 55140592 55871332 56669888 57537584 58461152 59412368 60351504 
1420.366 61236324 62027928 62698112 63232600 63630508 63907996 64097168 
1423.741 64244084 64396048 64589932 64844332 65156900 65511876 65889084 
1427.116 66273988 66658968 67044096 67434512 67839152 68270656 68745168 
1430.492 69285096 69916016 70658728 71525600 72513728 73607496 74781280 
1433.867 76010256 77278552 78578240 79911776 81285176 82702576 84157432 
1437.242 85635664 87120728 88594584 90038200 91425080 92720640 93874760 
1440.617 94825504 95511816 95872464 95856384 95428136 94566112 93269792 
1443.993 91563008 89502072 87170736 84667184 82103800 79584552 77198320 
1447.368 75019904 73097920 71451728 70068536 68911992 67933488 67089372 
1450.743 66357828 65743304 65274484 64985736 64901160 65014908 65287344 
1454.118 65641276 65973276 66172072 66128656 65778768 65139772 64330340 
1457.494 63526408 62885688 62505304 62410844 62588840 63013500 63658356 
1460.869 64495668 65488220 66589436 67733656 68836160 69808960 70566064 
1464.244 71048864 71245672 71196240 70975312 70659784 70314176 69976936 
1467.619 69663336 69374760 69100944 68819848 68492112 68060200 67452432 
1470.995 66594420 65441332 64007276 62382152 60705620 59120344 57725404 
1474.370 56557132 55610112 54862744 54298916 53913556 53706532 53669672 
1477.745 53778192 53989564 54254388 54521548 54751928 54925312 55038992 
1481.120 55107864 55157032 55218848 55326360 55514200 55822080 56292000 
1484.496 56967212 57885328 59065644 60497620 62129872 63874824 65600888 
1487.871 67142584 68326304 68970824 68926360 68112520 66540152 64322040 
1491.246 61636300 58687068 55644496 52617336 49668072 46817044 44070972 
1494.621 41452656 39006384 36802900 34925452 33441334 32381676 31735648 
1497.997 31465858 31522896 31860426 32441120 33230108 34190916 35285264 
1501.372 36467848 37690484 38907400 40063856 41097428 41931872 42458528 
1504.747 42542788 42039396 40839268 38946108 36523528 33858124 31226460 
1508.122 28798964 26621246 24663186 22874930 21221504 19690030 18288850 
1511.498 17034336 15935229 14990056 14185048 13501075 12919170 12424263 
1514.873 12004919 11649620 11347019 11086912 10863242 10677041 10534301 
1518.248 10440752 10395444 10388046 10398939 10407594 10400840 10383600 
1521.623 10377628 10412277 10506024 10658092 10851216 11062269 11274139 
1524.999 11480500 11689273 11917012 12181570 12491334 12842716 13223313 
1528.374 13619868 14024828 14438797 14868008 15320159 15799206 16304409 
1531.749 16830832 17373446 17930724 18507114 19109508 19740166 20393794 
1535.124 21056406 21710590 22337506 22921592 23452850 23923976 24332424 
1538.500 24677354 24959490 25177514 25329048 25416410 25448134 25438086 
1541.875 25400388 25342254 25260948 25145176 24983072 24769428 24512902 
1545.250 24234734 23962454 23717708 23507132 23322598 23146318 22961520 
1548.625 22760316 22549958 22349610 22183316 22066830 22001330 21975050 
1552.000 21970832 21975922 21986586 22009904 22059508 22146632 22272420 
1555.376 22425418 22583394 22720024 22806338 22814826 22727112 22545246 
1558.751 22304054 22062854 21882174 21792454 21789214 21847992 21938906 
1562.126 22035524 22115392 22164068 22176794 22159152 22126758 22098658 
1565.501 22091302 22109710 22147436 22188790 22216758 22218082 22189278 
1568.877 22138544 22083214 22043228 22032318 22054628 22105142 22175470 
1572.252 22255050 22333424 22399812 22440562 22440736 22387984 22279080 
1575.627 22127108 21960968 21817330 21720796 21675934 21667922 21672868 
1579.002 21667400 21634348 21566720 21465682 21338042 21190400 21027018 
1582.378 20847844 20650886 20435608 20205336 19967244 19730042 19500490 
1585.753 19280344 19067234 18857134 18647552 18440004 18239470 18051634 
1589.128 17880036 17724488 17581794 17448494 17324374 17212666 17118874 
1592.503 17046742 16994572 16953984 16912780 16857286 16779274 16678171 
1595.879 16560638 16437082 16317928 16210295 16117580 16041832 15986241 
1599.254 15956232 15959188 16002262 16089590 16221715 16396236 16610347 
1602.629 16861934 17149102 17467984 17808262 18151052 18470704 18735896 
1606.004 18916554 18990622 18946700 18787688 18527238 18187294 17791106 
1609.380 17358858 16908922 16457144 16019003 15610155 15242732 14922804 
1612.755 14647867 14407867 14187239 13968400 13737257 13485148 13212758 
1616.130 12930981 12659245 12419592 12228939 12096149 12020111 11993406 
1619.505 12003454 12035509 12075026 12108822 12129709 12138465 12145382 
1622.881 12165861 12214660 12300378 12421058 12568614 12732632 12905960 
1626.256 13085198 13269736 13459172 13651016 13839797 14019626 14186726 
1629.631 14341629 14488708 14633507 14778972 14923353 15058794 15173450 
1633.006 15254469 15289921 15273139 15205018 15095809 14963339 14828270 
1636.382 14707193 14607394 14527490 14459932 14394954 14322178 14232191 
1639.757 14119186 13981642 13824576 13657000 13490172 13332463 13185672 
1643.132 13044735 12898758 12734064 12538055 12304774 12037757 11752077 
1646.507 11470498 11217694 11012716 10863344 10767618 10715959 10695514 
1649.883 10689605 10677482 10633576 10526969 10329748 10034100 9673701 
1653.258 9322030 9050817 8891364 8826706 8818083 8826333 8825082 8801649 
1657.115 8753740 8686230 8606731 8521773 8434095 8342246 8242516 8130924 
1660.973 8005556 7867032 7718772 7565875 7414279 7270082 7138664 7023482 
1664.830 6925804 6842992 6768677 6692860 6603330 6488526 6341139 6161671 
1668.688 5960107 5752894 5559104 5392238 5257496 5151832 5067078 4993401 
1672.545 4920474 4839182 4740922 4620247 4476839 4319390 4164307 4029176 
1676.402 3926017 3856077 3809847 3772411 3729331 3671652 3598412 3517334 
1680.260 3439578 3375125 3325574 3282170 3226387 3137669 3000789 2818928 
1684.117 2617509 2436308 2307177 2238329 2217281 2221810 2232135 2234066 
1687.975 2220844 2192004 2150679 2102032 2051361 2004723 1967509 1944510 
1691.832 1937754 1945342 1960020 1968940 1956592 1909465 1822679 1706204 
1695.689 1585438 1490671 1439871 1432158 1448914 1463608 1448548 1383659 
1699.547 1265042 1111976 961187 846736 784195 766005 773440 786452 790667 
1703.886 778352 748347 704736 655056 607904 569151 541316 523170 511658 
1708.226 502204 490461 473544 450458 422498 393147 366550 345858 332726 
1712.566 325862 322116 317904 309217 293865 270225 236807 191855 133948 
1716.905 63754 -13882 -89154 -149706 -186603 -196473 -182596 -152787 -116152 
1721.245 -80176 -48936 -22431 2286 29457 62197 101170 144190 187645 229082 
1726.067 266976 301458 333290 362571 387940 407275 419016 422332 418319 
1730.406 407441 388106 355076 298706 207170 72470 -102604 -298037 -481832 
1734.746 -621547 -701808 -727312 -716297 -690130 -665947 -655294 -662241 
1738.603 -684506 -715205 -746431 -771999 -789231 -798888 -802758 -802394 
1742.461 -798260 -789528 -776100 -758272 -737632 -715933 -695191 -676996 
1746.318 -662638 -653276 -650596 -655757 -670181 -694431 -728139 -770345 
1750.176 -818897 -870618 -922101 -968619 -1006373 -1032553 -1047064 -1051857 
1754.033 -1052121 -1054204 -1064153 -1086430 -1120505 -1161714 -1201103 
1757.408 -1230179 -1244419 -1244783 -1237514 -1230906 -1233120 -1248913 
1760.783 -1278019 -1315382 -1353699 -1386168 -1408230 -1419888 -1423257 
1764.159 -1421903 -1419294 -1418006 -1420483 -1428739 -1443600 -1464339 
1767.534 -1487949 -1509412 -1524073 -1530016 -1529025 -1527903 -1535067 
1770.909 -1558542 -1601559 -1659854 -1721871 -1773848 -1806383 -1817569 
1774.284 -1812686 -1800939 -1790050 -1784077 -1782262 -1781074 -1776058 
1777.660 -1765664 -1751441 -1737349 -1728439 -1727449 -1733851 -1744048 
1781.035 -1753289 -1758404 -1759097 -1758404 -1759691 -1765862 -1777510 
1784.410 -1792690 -1808033 -1820770 -1829447 -1834133 -1835815 -1834495 
1787.785 -1829744 -1820473 -1806350 -1789258 -1773287 -1764047 -1766522 
1791.161 -1782823 -1810871 -1843866 -1874021 -1895069 -1904702 -1904999 
1794.536 -1900116 -1894046 -1889197 -1886557 -1885832 -1886821 -1889890 
1797.911 -1895894 -1905593 -1918656 -1933467 -1947586 -1958372 -1964474 
1801.286 -1966552 -1966354 -1965529 -1965364 -1965463 -1964276 -1960944 
1804.662 -1955205 -1948311 -1942473 -1939801 -1940988 -1945375 -1951610 
1808.037 -1957481 -1962066 -1965562 -1968762 -1972720 -1977437 -1982120 
1811.412 -1985616 -1987463 -1988519 -1990927 -1997061 -2008407 -2024271 
1814.787 -2042047 -2057546 -2066615 -2066978 -2059063 -2045047 -2028492 
1818.163 -2012728 -1998743 -1986507 -1974501 -1961043 -1945276 -1927365 
1821.538 -1908199 -1888933 -1870887 -1854655 -1840929 -1829381 -1818856 
1824.913 -1807538 -1792888 -1773287 -1748867 -1722465 -1699032 -1685434 
1828.288 -1687679 -1708076 -1743652 -1785463 -1821792 -1841556 -1839016 
1831.664 -1815193 -1776421 -1731211 -1686491 -1646486 -1611759 -1580530 
1835.039 -1550189 -1519384 -1488412 -1458461 -1430159 -1402549 -1372163 
1838.414 -1334706 -1286014 -1224529 -1151701 -1071656 -990339 -913009 
1841.789 -844461 -786982 -740675 -702800 -667766 -629620 -582304 -522540 
1845.647 -451382 -374154 -298004 -231810 -183225 -156331 -151661 -165737 
1849.504 -193327 -229491 -271448 -319526 -375908 -442941 -520654 -606194 
1853.362 -694861 -781326 -861723 -935227 -1003695 -1070003 -1136731 -1204803 
1857.219 -1273988 -1343162 -1411797 -1480156 -1548835 -1617866 -1685170 
1860.594 -1747811 -1802226 -1845977 -1879234 -1905098 -1928189 -1952170 
1863.969 -1978723 -2006230 -2031988 -2052929 -2068626 -2081355 -2095699 
1867.345 -2115714 -2143081 -2174963 -2204897 -2225699 -2232259 -2224017 
1870.720 -2204172 -2178359 -2151621 -2127519 -2107801 -2092897 -2083565 
1874.095 -2081421 -2088115 -2105163 -2132366 -2167545 -2206908 -2246268 
1877.470 -2282823 -2315419 -2344817 -2371806 -2396620 -2418301 -2435237 
1880.846 -2446308 -2452074 -2455171 -2459322 -2468251 -2483669 -2504852 
1884.221 -2528966 -2552980 -2574160 -2592374 -2608645 -2624388 -2640558 
1887.596 -2656564 -2670592 -2681163 -2687123 -2689066 -2688935 -2687947 
1890.971 -2686597 -2684489 -2681065 -2676257 -2671844 -2670856 -2675993 
1894.347 -2688770 -2707803 -2729107 -2748039 -2760550 -2764962 -2763020 
1897.722 -2757653 -2751891 -2747216 -2743561 -2739643 -2734606 -2729304 
1901.097 -2725748 -2726703 -2733519 -2745405 -2759168 -2771284 -2778955 
1904.472 -2781852 -2782247 -2783366 -2787547 -2795515 -2805259 -2813588 
1907.848 -2818723 -2820369 -2820995 -2823925 -2831792 -2845058 -2861451 
1911.223 -2877975 -2891634 -2902233 -2911547 -2922046 -2936330 -2955022 
1914.598 -2976512 -2998856 -3020474 -3041171 -3061998 -3084205 -3107136 
1917.973 -3128223 -3143322 -3149638 -3146644 -3138684 -3131282 -3130822 
1921.349 -3140592 -3159309 -3181807 -3201246 -3212396 -3213975 -3209567 
1924.724 -3204272 -3203647 -3209929 -3221704 -3235616 -3248310 -3258472 
1928.099 -3267023 -3276428 -3288661 -3303590 -3319012 -3332066 -3340450 
1931.474 -3344692 -3347223 -3351399 -3358665 -3368891 -3378721 -3386020 
1934.850 -3389899 -3393351 -3400913 -3417350 -3443912 -3477539 -3511755 
1938.225 -3539363 -3556682 -3565654 -3572391 -3585076 -3609918 -3647311 
1941.600 -3691699 -3733913 -3765317 -3781905 -3785584 -3781281 -3775566 
1944.975 -3772346 -3771558 -3771263 -3769620 -3766500 -3764069 -3765514 
1948.351 -3771460 -3779737 -3785945 -3785485 -3776551 -3762426 -3750568 
1951.726 -3749287 -3765120 -3797967 -3843357 -3894259 -3944597 -3992303 
1955.101 -4040430 -4093936 -4156689 -4228851 -4305003 -4376583 -4436540 
1958.476 -4481076 -4512230 -4535380 -4556398 -4578267 -4601676 -4624362 
1961.852 -4645376 -4666060 -4690743 -4721947 -4761112 -4804370 -4844871 
1965.227 -4875376 -4893199 -4900013 -4903454 -4911513 -4927893 -4951414 
1968.602 -4974574 -4989314 -4990821 -4981191 -4967105 -4958785 -4963076 
1971.977 -4980831 -5007330 -5035300 -5058521 -5074339 -5083902 -5087799 
1975.353 -5082985 -5060454 -5008869 -4917508 -4785691 -4622756 -4447757 
1978.728 -4280987 -4139196 -4029138 -3949982 -3895343 -3859088 -3838857 
1982.103 -3835245 -3849334 -3880303 -3921875 -3963575 -3995291 -4009769 
1985.478 -4004976 -3987346 -3965644 -3947520 -3937669 -3935929 -3939836 
1988.854 -3945944 -3953824 -3963936 -3977890 -3995816 -4013413 -4025593 
1992.229 -4027135 -4017254 -3999591 -3982519 -3973524 -3976872 -3992369 
1995.604 -4014266 -4034752 -4048112 -4052938 -4052281 -4051854 -4056844 
1998.979 -4068595 -4086386 -4107459 -4130335 -4156886 -4191672 -4238892 
2002.354 -4301361 -4377403 -4459792 -4540561 -4611708 -4668060 -4709033 
2005.730 -4735843 -4749379 -4750198 -4736827 -4709393 -4670420 -4627083 
2009.105 -4588332 -4562234 -4553512 -4560595 -4577644 -4597479 -4613511 
2012.480 -4623445 -4628460 -4631902 -4636918 -4644786 -4654850 -4665273 
2015.855 -4675632 -4684449 -4691562 -4695954 -4694119 -4682253 -4657341 
2019.231 -4620559 -4577021 -4535314 -4503212 -4485471 -4480388 -4481273 
2022.606 -4478092 -4464318 -4437655 -4401839 -4363560 -4330198 -4304084 
2025.981 -4285679 -4271637 -4259891 -4252049 -4251458 -4261138 -4281644 
2029.356 -4307595 -4327410 -4330559 -4307792 -4256774 -4182484 -4093706 
2032.732 -3998410 -3902173 -3806047 -3709472 -3612810 -3520826 -3438849 
2036.107 -3373165 -3325128 -3290437 -3259788 -3222986 -3173814 -3112696 
2039.482 -3046994 -2986614 -2940081 -2911152 -2896374 -2888310 -2879621 
2042.857 -2866751 -2850095 -2834557 -2823826 -2818921 -2815530 -2806049 
2046.233 -2780963 -2734770 -2665653 -2576960 -2475960 -2370818 -2269704 
2049.608 -2179776 -2107076 -2054974 -2024370 -2012299 -2011243 -2011639 
2052.983 -2002536 -1976084 -1929905 -1867984 -1798860 -1732927 -1678140 
2056.358 -1637408 -1608623 -1587363 -1567819 -1547184 -1525063 -1502874 
2059.734 -1481609 -1461235 -1439571 -1414802 -1386828 -1357399 -1330610 
2063.109 -1311517 -1302135 -1301805 -1307123 -1312871 -1314622 -1310889 
2066.484 -1302796 -1292885 -1283140 -1274253 -1265134 -1254959 -1243395 
2069.859 -1232856 -1227073 -1229485 -1240752 -1258659 -1277556 -1290573 
2073.235 -1293315 -1283404 -1262756 -1235036 -1204242 -1172487 -1140135 
2076.610 -1105996 -1069474 -1031628 -994604 -961082 -932483 -908842 -888176 
2080.467 -868171 -847966 -828025 -810629 -797962 -790256 -785328 -779044 
2084.325 -766839 -746232 -718414 -687914 -661282 -645071 -642887 -655261 
2088.182 -680007 -713286 -751392 -792174 -834076 -876239 -917770 -956519 
2092.040 -989976 -1016025 -1033181 -1040718 -1038900 -1028256 -1009480 
2095.415 -983430 -951857 -917241 -882886 -851537 -824155 -800079 -776662 
2099.272 -750830 -720828 -687285 -653243 -622738 -599477 -583595 -573039 
2103.130 -563277 -549974 -530814 -506489 -479813 -453864 -430793 -409310 
2106.987 -386237 -357865 -321281 -276879 -227736 -177793 -131224 -90347 
2110.844 -55495 -25048 2054 26739 48411 66140 79363 88642 94839 99678 103622 
2116.148 106572 107135 104351 97955 89106 79595 71277 64914 59910 54707 
2120.970 47715 38901 29556 22034 18919 21305 28463 37940 47185 54276 58916 
2126.274 61865 64815 68493 72370 74823 74160 69553 61236 50764 39696 28827 
2131.578 18091 6494 -6991 -22298 -38466 -54402 -69940 -86537 -107738 -136292 
2136.400 -173620 -218265 -265719 -309792 -345847 -371571 -388025 -399346 
2140.257 -409740 -421856 -437248 -455817 -478523 -508376 -549776 -606657 
2144.115 -680999 -769518 -863740 -953511 -1028950 -1084546 -1122157 -1148628 
2147.972 -1172950 -1203383 -1244518 -1296849 -1359612 -1432405 -1516643 
2151.347 -1616249 -1735897 -1878244 -2043498 -2229523 -2432371 -2648858 
2154.723 -2875605 -3108123 -3337622 -3548860 -3720970 -3828939 -3853275 
2158.098 -3785584 -3635942 -3428330 -3195194 -2967824 -2768617 -2606834 
2161.473 -2483373 -2392138 -2325372 -2274648 -2232984 -2193359 -2149576 
2164.848 -2098733 -2040859 -1981131 -1928321 -1892331 -1880157 -1895003 
2168.224 -1933962 -1989838 -2055304 -2124288 -2193557 -2263376 -2334270 
2171.599 -2406472 -2477443 -2543230 -2599489 -2643918 -2676059 -2697101 
2174.974 -2709252 -2713466 -2710799 -2701942 -2690219 -2680077 -2678232 
2178.349 -2690350 -2718570 -2759760 -2806773 -2850720 -2884558 -2906116 
2181.725 -2917669 -2924876 -2933038 -2943965 -2954759 -2961078 -2957458 
2185.100 -2942648 -2919578 -2893708 -2871589 -2856514 -2848153 -2842392 
2188.475 -2834360 -2819941 -2798181 -2771020 -2741652 -2713302 -2686662 
2191.850 -2661174 -2634532 -2605681 -2574127 -2540496 -2506236 -2473028 
2195.226 -2441366 -2412436 -2387426 -2367687 -2354340 -2347288 -2343960 
2198.601 -2340104 -2330612 -2312123 -2284800 -2253256 -2224578 -2206150 
2201.976 -2202524 -2214062 -2235555 -2259750 -2279263 -2290074 -2291129 
2205.351 -2285295 -2276230 -2267232 -2259123 -2251410 -2242411 -2230907 
2208.727 -2215512 -2196458 -2172853 -2143807 -2108757 -2067538 -2021533 
2212.102 -1974732 -1931752 -1896092 -1870359 -1854094 -1844394 -1838719 
2215.477 -1834660 -1831856 -1831592 -1834792 -1841457 -1849343 -1855842 
2218.852 -1857855 -1855018 -1849442 -1844889 -1845252 -1852444 -1865113 
2222.228 -1879893 -1891770 -1897543 -1895795 -1888306 -1877485 -1865773 
2225.603 -1854028 -1841457 -1826544 -1809188 -1790215 -1772165 -1757414 
2228.978 -1746887 -1739626 -1733158 -1724610 -1712201 -1696821 -1679955 
2232.353 -1663914 -1649325 -1634570 -1616150 -1590632 -1555967 -1512483 
2235.729 -1463513 -1413547 -1366845 -1325391 -1289780 -1259188 -1233021 
2239.104 -1211280 -1194395 -1183028 -1176585 -1172190 -1166803 -1156493 
2242.479 -1139441 -1115448 -1086794 -1055328 -1023198 -990934 -957511 
2245.854 -922101 -885134 -847966 -814068 -786519 -767004 -754899 -747357 
2249.712 -741271 -734060 -724500 -713518 -702238 -692413 -683017 -672630 
2253.569 -658801 -639943 -615657 -587896 -559406 -533428 -512877 -499010 
2257.427 -492324 -492324 -498381 -509302 -523732 -539219 -553284 -564204 
2261.284 -571087 -574495 -576513 -579293 -583661 -589121 -592595 -590676 
2265.141 -580186 -560498 -533064 -501790 -471605 -445953 -427020 -415004 
2268.999 -408714 -406165 -405768 -406099 -405801 -403120 -396400 -383820 
2272.856 -365314 -341610 -314924 -288104 -263236 -240354 -218265 -194685 
2276.714 -167394 -135629 -100583 -64772 -31310 -1954 22631 43672 62892 82677 
2281.535 103755 126822 151051 176275 201932 228254 254842 281432 307493 
2285.875 332196 354977 376167 395734 413975 431055 446014 457556 464787 
2290.215 467607 466778 464688 463461 464887 470260 479050 490826 504825 
2294.554 521113 540653 564307 592442 624263 657910 690631 720301 745359 
2298.894 765673 782070 795613 807630 818452 828710 839068 850322 864100 
2303.233 881663 903477 929143 957269 985961 1013924 1041125 1068727 1098887 
2307.573 1133867 1174830 1221579 1272686 1325825 1378307 1427937 1473150 
2311.430 1512183 1544070 1568212 1584740 1595182 1601833 1608385 1618295 
2315.288 1634392 1658140 1689007 1725332 1765120 1806508 1848600 1891327 
2319.145 1935257 1981389 2030022 2081190 2133930 2186077 2234699 2275300 
2323.003 2303113 2313539 2303746 2273301 2225341 2166230 2103597 2045435 
2326.860 1998398 1965545 1946673 1939052 1938286 1940183 1942280 1943045 
2330.718 1942812 1942480 1942912 1945009 1949569 1957823 1970937 1989843 
2334.575 2014642 2043804 2075164 2105262 2131233 2151644 2166563 2177551 
2338.432 2186942 2196833 2208789 2223043 2239728 2258679 2279730 2302580 
2342.290 2326398 2349317 2368439 2380100 2381699 2371937 2352348 2327197 
2346.147 2303080 2286991 2285092 2302047 2339756 2398024 2474328 2564777 
2350.005 2663979 2765505 2863619 2952815 3029683 3092950 3143576 3183461 
2353.862 3214937 3239706 3259002 3273691 3285042 3294857 3305040 3317460 
2357.719 3332886 3350883 3370016 3388583 3405113 3419172 3431262 3441849 
2361.577 3451601 3460084 3467098 3472175 3475281 3477152 3478588 3479824 
2365.434 3480492 3479289 3474647 3465662 3452469 3436939 3421343 3407751 
2369.292 3397098 3389117 3382071 3374691 3365943 3356092 3346308 3338295 
2373.149 3332418 3328512 3325073 3320632 3313888 3304673 3292887 3279333 
2377.007 3264644 3248853 3231995 3214170 3196078 3179122 3164970 3155324 
2380.864 3150919 3151753 3156626 3163935 3172580 3181892 3191906 3203121 
2384.721 3215872 3230059 3245014 3260103 3275026 3289949 3305374 3322168 
2388.579 3340732 3360867 3381971 3403310 3424382 3445389 3466764 3489042 
2392.436 3512457 3536575 3560326 3582710 3602956 3621265 3638405 3655479 
2396.294 3673457 3692872 3713457 3734912 3756736 3779163 3802226 3826359 
2400.151 3851330 3876570 3901410 3925616 3949723 3975236 4004363 4039243 
2404.009 4080715 4128781 4181536 4236605 4291448 4344657 4395899 4445539 
2407.866 4494784 4544435 4595366 4647608 4701564 4757537 4815897 4877145 
2411.723 4941084 5007311 5074487 5141069 5205717 5267055 5324543 5377510 
2415.581 5425686 5468700 5506450 5539404 5568534 5595452 5622371 5650869 
2419.438 5682055 5715727 5751215 5787244 5823040 5858201 5893096 5928867 
2423.296 5966523 6007071 6050949 6098359 6149505 6204120 6262573 6324564 
2427.153 6389892 6458224 6529291 6603027 6679872 6760297 6845079 6934087 
2431.010 7026884 7122563 7219780 7317962 7416908 7516989 7619049 7723427 
2434.868 7830258 7938432 8047544 8156853 8266728 8377714 8491599 8609469 
2438.725 8731833 8858222 8987523 9118452 9249625 9380396 9510530 9639652 
2442.583 9767187 9892081 10012976 10129021 10239736 10345594 10447879 
2445.958 10548322 10648720 10749990 10852948 10957460 11063357 11169721 
2449.333 11275500 11379569 11480737 11577744 11669939 11756979 11839440 
2452.708 11918306 11994938 12070699 12146370 12222805 12300378 12379396 
2456.084 12460371 12543478 12628987 12716630 12805688 12895174 12984064 
2459.459 13071471 13156402 13238377 13316780 13390755 13459890 13524079 
2462.834 13584381 13642365 13700563 13761846 13828749 13902845 13984722 
2466.209 14074828 14173066 14280126 14396769 14523996 14662672 14812808 
2469.585 14973628 15144045 15322974 15510080 15705546 15910173 16124148 
2472.960 16346965 16576577 16809580 17042952 17273378 17498062 17716032 
2476.335 17926270 18128318 18321234 18504244 18676398 18836752 18984532 
2479.710 19119098 19239404 19344188 19431844 19500422 19548770 19576638 
2483.086 19584714 19575216 19550744 19514214 19468504 19415974 19358668 
2486.461 19298254 19236010 19172738 19108400 19042134 18972418 18897138 
2489.836 18814746 18723996 18624274 18515412 18397692 18270916 18134780 
2493.211 17988532 17831632 17663712 17485264 17296652 17098712 16892006 
2496.587 16676828 16453600 16222645 15984695 15740933 15492945 15242115 
2499.962 14989919 14737356 14485385 14234793 13986877 13742968 13504323 
2503.337 13271752 13045691 12825754 12611489 12402886 12200415 12004919 
2506.712 11817989 11640430 11472777 11314098 11163534 11020125 10883151 
2510.088 10753420 10631810 10519161 10416180 10322147 10236276 10157715 
2513.463 10086323 10022843 9969103 9926489 9895301 9874997 9863371 9857677 
2517.320 9855779 9856490 9860219 9868591 9883200 9904793 9933608 9968492 
2521.178 10007958 10050478 10094563 10139467 10184443 10228881 10272305 
2524.553 10314682 10355740 10395919 10435728 10474931 10512440 10546658 
2527.928 10574531 10593374 10601387 10597720 10582917 10558778 10527308 
2531.303 10490512 10449475 10405252 10358048 10308608 10257412 10205033 
2534.679 10151610 10097718 10043629 9989581 9936727 9885878 9838594 9795451 
2538.536 9756716 9721408 9688168 9655914 9623934 9592633 9563231 9536812 
2542.394 9513883 9493935 9475038 9455227 9432235 9405214 9374167 9340277 
2546.251 9304969 9269662 9235375 9202274 9170801 9141191 9114020 9089928 
2550.108 9069290 9052069 9037792 9025546 9014416 9003692 8993070 8982617 
2553.966 8972233 8961747 8951127 8939998 8928769 8917439 8906684 8896943 
2557.823 8887981 8879595 8871105 8861705 8851052 8839352 8826841 8813687 
2561.681 8799722 8784406 8766926 8746606 8723651 8698939 8673823 8649892 
2565.538 8628227 8609536 8593821 8580945 8571009 8564351 8561715 8563405 
2569.396 8569387 8578849 8590576 8603148 8615958 8628903 8642389 8656956 
2573.253 8673012 8690083 8707323 8723854 8739169 8753672 8768278 8784203 
2577.110 8802292 8822208 8843443 8864680 8885005 8904248 8922986 8941893 
2580.968 8962390 8984951 9009747 9036575 9065229 9095646 9128435 9164304 
2584.825 9203967 9247932 9295896 9347184 9400778 9455600 9510598 9564722 
2588.683 9617158 9667535 9715613 9762205 9808430 9856015 9906386 9960288 
2592.540 10017655 10076929 10136211 10193703 10248218 10299651 10348716 
2595.915 10396394 10443637 10490138 10535218 10577722 10616802 10652659 
2599.291 10685768 10717657 10749922 10783412 10818502 10854953 10892155 
2602.666 10930208 10969659 11011289 11056390 11105845 11160236 11219224 
2606.041 11282369 11348958 11418618 11491250 11566583 11644991 11726171 
2609.416 11809818 11895421 11982370 12069983 12157786 12245741 12333817 
2612.792 12422320 12511625 12602074 12693634 12786101 12878655 12970409 
2616.167 13060271 13147590 13232296 13314696 13395607 13475851 13556075 
2619.542 13635904 13714652 13791226 13864598 13934424 14000771 14064732 
2622.917 14127675 14190902 14255371 14321390 14388789 14456678 14523858 
2626.292 14589199 14651739 14710826 14766356 14818705 14868557 14916803 
2629.668 14964265 15011459 15058794 15106204 15153653 15200935 15248463 
2633.043 15296133 15344598 15393482 15442129 15489580 15534324 15575604 
2636.418 15612902 15646597 15677754 15708053 15739111 15771888 15807211 
2639.793 15845012 15885083 15927153 15971048 16016390 16063355 16111940 
2643.169 16162112 16214045 16267806 16323777 16382266 16443241 16506428 
2646.544 16571378 16637132 16703272 16769424 16835826 16903032 16971348 
2649.919 17041262 17112428 17184088 17255348 17325376 17393828 17460774 
2653.294 17526730 17592178 17657706 17723348 17789240 17855248 17921194 
2656.670 17987462 18054052 18121066 18188400 18255814 18322996 18389396 
2660.045 18455148 18520460 18585816 18651874 18718428 18785060 18851044 
2663.420 18915204 18976846 19035486 19091676 19146038 19199782 19253674 
2666.795 19308576 19364628 19421692 19479456 19537122 19594314 19650472 
2670.171 19705562 19759238 19812124 19864390 19916698 19969774 20024144 
2673.546 20080114 20137862 20197144 20257928 20319830 20382994 20447312 
2676.921 20513236 20581430 20652276 20726468 20804010 20885216 20969638 
2680.296 21057066 21146774 21238412 21331360 21425334 21520168 21615682 
2683.672 21711844 21808830 21906568 22005130 22104794 22206190 22309600 
2687.047 22415894 22525494 22638754 22755846 22876394 23000122 23126468 
2690.422 23255336 23386512 23519862 23655318 23792636 23931714 24072446 
2693.797 24214940 24359586 24506942 24657822 24812540 24971352 25134012 
2697.173 25299614 25467386 25636490 25806504 25977780 26150388 26325250 
2700.548 26502612 26682794 26865308 27049766 27235114 27420472 27605240 
2703.923 27788916 27971542 28153220 28334018 28514254 28693856 28872650 
2707.298 29050452 29226982 29401740 29575148 29747172 29918306 30089116 
2710.674 30259816 30430582 30601310 30771534 30940796 31108626 31274456 
2714.049 31438072 31599038 31757072 31911954 32063428 32210998 32354082 
2717.424 32492180 32624710 32751318 32871780 32986448 33096242 33202242 
2720.799 33306372 33410278 33515922 33624888 33738928 33859452 33987456 
2724.175 34124136 34270112 34425676 34590556 34764072 34944988 35131764 
2727.550 35323432 35518712 35717136 35918496 36122684 36329672 36539424 
2730.925 36751080 36963704 37175820 37385872 37592344 37793708 37988472 
2734.300 38175980 38355500 38526584 38688860 38842212 38986156 39120252 
2737.676 39244268 39358456 39463636 39561472 39654320 39744760 39835288 
2741.051 39928196 40024940 40126648 40234160 40347984 40469156 40598540 
2744.426 40736776 40884228 41040904 41206056 41378192 41555868 41736936 
2747.801 41919536 42101344 42279492 42451180 42613324 42763060 42898324 
2751.177 43017172 43119108 43203828 43271468 43322132 43355960 43372476 
2754.552 43371484 43352336 43314296 43256640 43178720 43079696 42958824 
2757.927 42815824 42650500 42463420 42255064 42026652 41779356 41514304 
2761.302 41232868 40936904 40628304 40309484 39983632 39653888 39323920 
2764.677 38997500 38678064 38369292 38074764 37797068 37539272 37303436 
2768.053 37091004 36903060 36739792 36601344 36486912 36395708 36326536 
2771.428 36277436 36246712 36231800 36230216 36239616 36257624 36281868 
2774.803 36310576 36341704 36373552 36404284 36432172 36455416 36473004 
2778.178 36483596 36486188 36480212 36465000 36440244 36406016 36363280 
2781.554 36313352 36258708 36202052 36146088 36093340 36045456 36003152 
2784.929 35966220 35933828 35904640 35876892 35848608 35818128 35783300 
2788.304 35742356 35693252 35634548 35565280 35485092 35394640 35295040 
2791.679 35188528 35077304 34964384 34852208 34743724 34640936 34545852 
2795.055 34460400 34385900 34323828 34275560 34242144 34224580 34223684 
2798.430 34239708 34273088 34324076 34392788 34479516 34584168 34706504 
2801.805 34845708 35000472 35168804 35348308 35536404 35731060 35930412 
2805.180 36133340 36338892 36546164 36754472 36962372 37167664 37368140 
2808.556 37561092 37743756 37913328 38067384 38203512 38320068 38415368 
2811.931 38488636 38539364 38567680 38574308 38560112 38526292 38475100 
2815.306 38408740 38330164 38243204 38151672 38060116 37972672 37893264 
2818.681 37826240 37775056 37742956 37733164 37747620 37787744 37853860 
2822.057 37944936 38058884 38193128 38344640 38510000 38686108 38869748 
2825.432 39057752 39246444 39432392 39612360 39783428 39943780 40092124 
2828.807 40228416 40353624 40469264 40577516 40680952 40781940 40883316 
2832.182 40987448 41096192 41211156 41333328 41463632 41603308 41754152 
2835.558 41918372 42098604 42297572 42518268 42762876 43034620 43336484 
2838.933 43673176 44050468 44475992 44958260 45506956 46131332 46841112 
2842.308 47646108 48555080 49578072 50724936 52004228 53422220 54979608 
2845.683 56669056 58470324 60348348 62253492 64117060 65859856 67397288 
2849.059 68642976 69525576 69994448 70025592 69626384 68832976 67706464 
2852.434 66318804 64750792 63082732 61382396 59710056 58112456 56620736 
2855.809 55255384 54025136 52929528 51960832 51107176 50354936 49689060 
2859.184 49095804 48563568 48081016 47639564 47231692 46850928 46492696 
2862.560 46153624 45831496 45525652 45235832 44963296 44709624 44477532 
2865.935 44270808 44093780 43951100 43847544 43786224 43769148 43795828 
2869.310 43863964 43968776 44104052 44262004 44433264 44607864 44775812 
2872.685 44927284 45054552 45152408 45219320 45256572 45268964 45262896 
2876.061 45245284 45222816 45201304 45184468 45175016 45174428 45183660 
2879.436 45203144 45233444 45275032 45329056 45397176 45480652 45580776 
2882.811 45697928 45830872 45976672 46130924 46288328 46443280 46591500 
2886.186 46730364 46859268 46980016 47095848 47211892 47332776 47464224 
2889.562 47610908 47777428 47968216 48187924 48441820 48737420 49083932 
2892.937 49492656 49977928 50555048 51239064 52043560 52977140 54040444 
2896.312 55222872 56500788 57835656 59172060 60446776 61589408 62530748 
2899.687 63217312 63613436 63710080 63524180 63097484 62489004 61762104 
2903.063 60983764 60213320 59497132 58873296 58368020 57997932 57774412 
2906.438 57703344 57787588 58028604 58427604 58986652 59709448 60600616 
2909.813 61664180 62901392 64307788 65869956 67562904 69352688 71192576 
2913.188 73026848 74797880 76443440 77905272 79136152 80098808 80772952 
2916.563 81155024 81257448 81104856 80728896 80166904 79453320 78619104 
2919.939 77690656 76687136 75622664 74507224 73347792 72151344 70926040 
2923.314 69682400 68433848 67196808 65987848 64823828 63719324 62684216 
2926.689 61725168 60843736 60037892 59301864 58627640 58005696 57425024 
2930.064 56875084 56345716 55827992 55314504 54799516 54278040 53746764 
2933.440 53202208 52642096 52065152 51471512 50863376 50244184 49618744 
2936.815 48992640 48370924 47758568 47160512 46581356 46026916 45503096 
2940.190 45015920 44571328 44173408 43824012 43522580 43265976 43048780 
2943.565 42863728 42702296 42554664 42409936 42257800 42088672 41895232 
2946.941 41673980 41426160 41157496 40876944 40596724 40329156 40084896 
2950.316 39872876 39698432 39563324 39466140 39402640 39366400 39349528 
2953.691 39344124 39342820 39339264 39329360 39310388 39280612 39239412 
2957.066 39185880 39119888 39041436 38951544 38852716 38748376 38642608 
2960.442 38539404 38441576 38350648 38266832 38189692 38118460 38052992 
2963.817 37993716 37941464 37896844 37860256 37831120 37808564 37791392 
2967.192 37778200 37768620 37762368 37760272 37763672 37775056 37798080 
2970.567 37836468 37894892 37977044 38085036 38218928 38375804 38550628 
2973.943 38735948 38922840 39102304 39263996 39398508 39496840 39551020 
2977.318 39555704 39509140 39414144 39277600 39110532 38926680 38739464 
2980.693 38561052 38400960 38264552 38154312 38069412 38006520 37960628 
2984.068 37924756 37891132 37850856 37795260 37716648 37609036 37469408 
2987.444 37297480 37096240 36870236 36625428 36368292 36104752 35839468 
2990.819 35576320 35317612 35064552 34817740 34577352 34343408 34116324 
2994.194 33896668 33684788 33480558 33282906 33089344 32896082 32699298 
2997.569 32494892 32280374 32054938 31820030 31578444 31333928 31090366 
3000.945 30850678 30616668 30389146 30168526 29954514 29747208 29547022 
3004.320 29354374 29169502 28992924 28824458 28663912 28511106 28365708 
3007.695 28227644 28096870 27973556 27857522 27748686 27646586 27550374 
3011.070 27459084 27371524 27286592 27203050 27120370 27037812 26955448 
3014.446 26873416 26792032 26711758 26632942 26556078 26481376 26409396 
3017.821 26340212 26274594 26212610 26154612 26101054 26051972 26007644 
3021.196 25968210 25933706 25904230 25879928 25860798 25847328 25840192 
3024.571 25840260 25848770 25867128 25896036 25935852 25985974 26044866 
3027.947 26109958 26177874 26244850 26306908 26360034 26401194 26427990 
3031.322 26439292 26434856 26415948 26384434 26342570 26293250 26238832 
3034.697 26181146 26122414 26063970 26006976 25952558 25901312 25853308 
3038.072 25808226 25765436 25724020 25683558 25643626 25604400 25566268 
3041.448 25529792 25495776 25464682 25436926 25412826 25393012 25377592 
3044.823 25366842 25360906 25359396 25361644 25366948 25374710 25384230 
3048.198 25395400 25408470 25423436 25440896 25460992 25484078 25510150 
3051.573 25539420 25571786 25607178 25645032 25684682 25725426 25766208 
3054.948 25806610 25846240 25885416 25924384 25964026 26004936 26047716 
3058.324 26093384 26142542 26196316 26255446 26320602 26391474 26467394 
3061.699 26546532 26627694 26709328 26791080 26873134 26956574 27042608 
3065.074 27132114 27225202 27321274 27418850 27516270 27611736 27704256 
3068.449 27792872 27877058 27956594 28031128 28100370 28163932 28221740 
3071.825 28273402 28319552 28361004 28398780 28434686 28470560 28507636 
3075.200 28547338 28590084 28635668 28683344 28732052 28780588 28828388 
3078.575 28875448 28922228 28969476 29018110 29068378 29120496 29174532 
3081.950 29229854 29286314 29343880 29402342 29461770 29522018 29582986 
3085.326 29644956 29708392 29773856 29842562 29915252 29992182 30073066 
3088.701 30157054 30242622 30328384 30413346 30496868 30579338 30661326 
3092.076 30743580 30826594 30911086 30996980 31084566 31174196 31266052 
3095.451 31360958 31459194 31561446 31667746 31777964 31891484 32007214 
3098.827 32123576 32238904 32351800 32461650 32568242 32672684 32776366 
3102.202 32880928 32987482 33096350 33207108 33318642 33429704 33539474 
3105.577 33647944 33755364 33862424 33969788 34077404 34185184 34292772 
3108.952 34400104 34507032 34614488 34722940 34832928 34944524 35057440 
3112.328 35171284 35285912 35401396 35518028 35636060 35755236 35875092 
3115.703 35994476 36112496 36228632 36343144 36457112 36571936 36688736 
3119.078 36807696 36927952 37048028 37165856 37279820 37389628 37495276 
3122.453 37598160 37699952 37801984 37905268 38010460 38117844 38227648 
3125.829 38340116 38455476 38573872 38695632 38820288 38947412 39076128 
3129.204 39205320 39333968 39461164 39586044 39708564 39829080 39948648 
3132.579 40068616 40190324 40314500 40441404 40569984 40698748 40826492 
3135.954 40952128 41075940 41198952 41322760 41449124 41579092 41712420 
3139.330 41848132 41984388 42119412 42251924 42381476 42508512 42634084 
3142.705 42759368 42885524 43012960 43142120 43272856 43404656 43537380 
3146.080 43670576 43804108 43938160 44073024 44209176 44347352 44487628 
3149.455 44630152 44774156 44918316 45060948 45201048 45337444 45470348 
3152.831 45600688 45729660 45859000 45990116 46123484 46258728 46395164 
3156.206 46531716 46667236 46801620 46934572 47066932 47198744 47330336 
3159.581 47461672 47592276 47721952 47850744 47979500 48109368 48241460 
3162.956 48376444 48514284 48653876 48793584 48931668 49067016 49199136 
3166.332 49328516 49455860 49582084 49707528 49831892 49954692 50075376 
3169.707 50193896 50310960 50427644 50545592 50665840 50788952 50915304 
3173.082 51044340 51175652 51308564 51442120 51575080 51706028 51833352 
3176.457 51955644 52072696 52185336 52295876 52406812 52520700 52638580 
3179.833 52760084 52883496 53006148 53126036 53241944 53353988 53463776 
3183.208 53572352 53681220 53790564 53900052 54009224 54117640 54225668 
3186.583 54333644 54442404 54552316 54663232 54774556 54885720 54996228 
3189.958 55106508 55216704 55327452 55438492 55549596 55659980 55768956 
3193.333 55876112 55981492 56085460 56188132 56289360 56388460 56484788 
3196.709 56577704 56667776 56756160 56844640 56934764 57027476 57123456 
3200.084 57221688 57321340 57421204 57520828 57619944 57718288 57815936 
3203.459 57912468 58007588 58101168 58193376 58284348 58374656 58463956 
3206.834 58551800 58637272 58719160 58797644 58873448 58948320 59024228 
3210.210 59102884 59184176 59267228 59350064 59430908 59508764 59584428 
3213.585 59659608 59736516 59816708 59900336 59986532 60073504 60159388 
3216.960 60243428 60325616 60406944 60488476 60571136 60655100 60740220 
3220.335 60826352 60913116 61000996 61090420 61181584 61274560 61368808 
3223.711 61463276 61557376 61650392 61742280 61833004 61922336 62010080 
3227.086 62096004 62179844 62261788 62342676 62423428 62505000 62587960 
3230.461 62672504 62758176 62844680 62932456 63021704 63113652 63208996 
3233.836 63307844 63409560 63512712 63616120 63718752 63820632 63922084 
3237.212 64023980 64126664 64230100 64333872 64437592 64541304 64645612 
3240.587 64751752 64860300 64971224 65083184 65193436 65300212 65401660 
3243.962 65498040 65591292 65684712 65781816 65885304 65996380 66114612 
3247.337 66238672 66366592 66496672 66627636 66758684 66888996 67018116 
3250.713 67145176 67269488 67390944 67509408 67625392 67739696 67853176 
3254.088 67966768 68081320 68197336 68315248 68435440 68557520 68681000 
3257.463 68804480 68926552 69045672 69160784 69271456 69377760 69480472 
3260.838 69580216 69678072 69774912 69870984 69967320 70064096 70161568 
3264.214 70259328 70356408 70451640 70543928 70632536 70717264 70798608 
3267.589 70877784 70955608 71033144 71110840 71188552 71266320 71343984 
3270.964 71421232 71497712 71572952 71645904 71715896 71782496 71846064 
3274.339 71908072 71970480 72035712 72105376 72180136 72259144 72340896 
3277.715 72423648 72505984 72587744 72669512 72752136 72836056 72921256 
3281.090 73006656 73091144 73173832 73254080 73332768 73411272 73491824 
3284.465 73576056 73665320 73760496 73861312 73967088 74076552 74188680 
3287.840 74302328 74416760 74531920 74648176 74766480 74888072 75013920 
3291.216 75144760 75281200 75423400 75571680 75726472 75888472 76058104 
3294.591 76235432 76419616 76609496 76803416 77000312 77199744 77402480 
3297.966 77609592 77822384 78041672 78266664 78496336 78728872 78962480 
3301.341 79197056 79432912 79671360 79914288 80163600 80420432 80685280 
3304.717 80958240 81238512 81525360 81817728 82114616 82415464 82720448 
3308.092 83030632 83348256 83675912 84015040 84366464 84728680 85098816 
3311.467 85473416 85849640 86226232 86604200 86985696 87373200 87768224 
3314.842 88170712 88578656 88989384 89400536 89810696 90219864 90629000 
3318.218 91038888 91450352 91862864 92275520 92687832 93099552 93511120 
3321.593 93923048 94335480 94747816 95158648 95566648 95970680 96370264 
3324.968 96766112 97158176 97545992 97928048 98301472 98663736 99012480 
3328.343 99346552 99666168 99971976 100264168 100542152 100805024 101050944 
3331.719 101279024 101489048 101681800 101857792 102017384 102159184 
3334.612 102281320 102381248 102457760 102510336 102539992 102548384 
3337.505 102536848 102505504 102453528 102378984 102280184 102156160 
3340.398 102006536 101831360 101631176 101405592 101153984 100875656 
3343.291 100570344 100238792 99881808 99501024 99097016 98669552 98218040 
3346.666 97741640 97240568 96716224 96171344 95609416 95034208 94448480 
3350.041 93854024 93252056 92642920 92027264 91405736 90778720 90146744 
3353.417 89510056 88869384 88225720 87581392 86938736 86301328 85671664 
3356.792 85051376 84441192 83841024 83250480 82670424 82102320 81548240 
3360.167 81010584 80490296 79987176 79499152 79023808 78558464 78101280 
3363.542 77652024 77211024 76779768 76359488 75950936 75555000 75172264 
3366.917 74802848 74446728 74104024 73773376 73453096 73141176 72835312 
3370.293 72533624 72235232 71939744 71647032 71356712 71067672 70778288 
3373.668 70486744 70190616 69888656 69579632 69262672 68936920 68601720 
3377.043 68255840 67898888 67530424 67150824 66760892 66361724 65953948 
3380.418 65537804 65112980 64679256 64236284 63784136 63323752 62855668 
3383.794 62380776 61899640 61412968 60921196 60425112 59925668 59423952 
3387.169 58921036 58417940 57915196 57413640 56913612 56416076 55921752 
3390.544 55431792 54947156 54468472 53996620 53531684 53073992 52623396 
3393.919 52179024 51739508 51302676 50865868 50427384 49986292 49543828 
3397.295 49102816 48667256 48240940 47826440 47424160 47032036 46646576 
3400.670 46263964 45880840 45495444 45107888 44718840 44329924 43942376 
3404.045 43556900 43173632 42793044 42415268 42041072 41671028 41305124 
3407.420 40943244 40584172 40226888 39870520 39514764 39160280 38808336 
3410.796 38460584 38118312 37782608 37453448 37130524 36813252 36501108 
3414.171 36193552 35890676 35592648 35299640 35011964 34729256 34451072 
3417.546 34176076 33903080 33630652 33358104 33085194 32813170 32543604 
3420.921 32278732 32020554 31770122 31527560 31291764 31061288 30834066 
3424.297 30608740 30384278 30160144 29936444 29713180 29490138 29267564 
3427.672 29045458 28824280 28604666 28387460 28172948 27961682 27753524 
3431.047 27548218 27346116 27147070 26951852 26761232 26575452 26394538 
3434.422 26217326 26042440 25868184 25693260 25517106 25339584 25161714 
3437.798 24984232 24807874 24632710 24458600 24284630 24110588 23936124 
3441.173 23761346 23587094 23414766 23244918 23078386 22915096 22753962 
3444.548 22593342 22431350 22266210 22097472 21925734 21752426 21580684 
3447.923 21412804 21250314 21094108 20943036 20795250 20648974 20502816 
3451.299 20355908 20208494 20061304 19914512 19768566 19623224 19477966 
3454.674 19332720 19187732 19043622 18901256 18761394 18624068 18488718 
3458.049 18354518 18220532 18086002 17950718 17815062 17679414 17544636 
3461.424 17411072 17279516 17150618 17025100 16903340 16785542 16671045 
3464.800 16558573 16446579 16333135 16217003 16097428 15974829 15849823 
3468.175 15723789 15597549 15472274 15348546 15227496 15109600 14995544 
3471.550 14885187 14778285 14673364 14569120 14464214 14358068 14251160 
3474.925 14144380 14038824 13935484 13834666 13735855 13638639 13542606 
3478.301 13447860 13355116 13265398 13178977 13095374 13014040 12933404 
3481.676 12853228 12773713 12696363 12623120 12555210 12492767 12434287 
3485.051 12377452 12319091 12257295 12191351 12121498 12049714 11977397 
3488.426 11905910 11835626 11766307 11697850 11630629 11565902 11505268 
3491.802 11450494 11402495 11361406 11326375 11295768 11267916 11241597 
3495.177 11215824 11190223 11165064 11140995 11118762 11099556 11085212 
3498.552 11076715 11075151 11080725 11092384 11108667 11127736 11148405 
3501.927 11170504 11194744 11222931 11257444 11299882 11351032 11410931 
3505.302 11478527 11552393 11631105 11713133 11797424 11882924 11969496 
3508.678 12056970 12146235 12238414 12334396 12435379 12541500 12652218 
3512.053 12766582 12883774 13003252 13124845 13248761 13374900 13502169 
3515.428 13628586 13751176 13867369 13975210 14074041 14164748 14248488 
3518.803 14326869 14399510 14465002 14520227 14562267 14588205 14596463 
3522.179 14586869 14560245 14517966 14461234 14390399 14305432 14205452 
3525.554 14089511 13956561 13806344 13638946 13455618 13258019 13049072 
3528.929 12831829 12609339 12383555 12156149 11927569 11697612 11465632 
3532.304 11231363 10994161 10754167 10511218 10265181 10016299 9765391 
3535.680 9513680 9263671 9017697 8778117 8546576 8323772 8108575 7900166 
3539.537 7696849 7497437 7301586 7109630 6922067 6739735 6562693 6390363 
3543.395 6221833 6055216 5888864 5721569 5552895 5383616 5215777 5051624 
3547.252 4893598 4743234 4600757 4464553 4332208 4200773 4068106 3932838 
3551.109 3795808 3658988 3525217 3397065 3275861 3161833 3054141 2951080 
3554.967 2851212 2753968 2658745 2565444 2473761 2382998 2292620 2201628 
3558.824 2109890 2017538 1925373 1834325 1745625 1659869 1577989 1500113 
3562.682 1426540 1356769 1289002 1220881 1148020 1066003 970386 859717 
3566.539 735900 605217 476861 359719 260975 183369 124933 80423 43374 7157 
3571.361 -33397 -81568 -138610 -204289 -276647 -353131 -430826 -506390 
3575.218 -577241 -641762 -699558 -751756 -800906 -849421 -900113 -954800 
3579.076 -1013381 -1074961 -1137689 -1199517 -1258296 -1312904 -1362915 
3582.451 -1408131 -1449875 -1489006 -1527539 -1568281 -1613872 -1667149 
3585.826 -1730221 -1803051 -1883258 -1966453 -2046070 -2115352 -2170281 
3589.201 -2208359 -2231269 -2242906 -2248773 -2254410 -2264958 -2283811 
3592.577 -2312914 -2351869 -2398234 -2448713 -2499680 -2548072 -2591880 
3595.952 -2630678 -2665455 -2696706 -2725551 -2752714 -2778230 -2802625 
3599.327 -2825933 -2848910 -2872511 -2897756 -2925436 -2955681 -2988161 
3602.702 -3021757 -3054759 -3085653 -3113057 -3136315 -3155822 -3172861 
3606.078 -3189997 -3209633 -3234037 -3264852 -3301749 -3343574 -3387762 
3609.453 -3432439 -3476882 -3521549 -3567921 -3616917 -3668240 -3720346 
3612.828 -3769095 -3810514 -3841780 -3862372 -3874884 -3883948 -3895901 
3616.203 -3915833 -3946797 -3989578 -4041777 -4098597 -4153473 -4200007 
3619.579 -4233806 -4252410 -4256839 -4250211 -4237612 -4223863 -4212543 
3622.954 -4205750 -4203190 -4202173 -4199777 -4193411 -4183238 -4172376 
3626.329 -4166896 -4175526 -4205651 -4260777 -4336234 -4419616 -4494292 
3629.704 -4545610 -4568627 -4567546 -4553611 -4538954 -4533740 -4543774 
3633.080 -4569644 -4607446 -4649703 -4689399 -4720341 -4740071 -4748658 
3636.455 -4748724 -4743447 -4735647 -4727060 -4718767 -4711130 -4704018 
3639.830 -4697462 -4692185 -4688809 -4688219 -4691202 -4698314 -4709688 
3643.205 -4724536 -4741710 -4759866 -4778776 -4798275 -4819280 -4843790 
3646.581 -4873704 -4910923 -4955542 -5006150 -5059242 -5109805 -5151784 
3649.956 -5180663 -5192580 -5186753 -5164947 -5131450 -5092285 -5054264 
3653.331 -5024525 -5009131 -5012111 -5034514 -5072997 -5120186 -5165765 
3656.706 -5200307 -5218248 -5219230 -5207150 -5189077 -5171299 -5158791 
3660.082 -5154109 -5157154 -5166682 -5179877 -5194348 -5207510 -5217331 
3663.457 -5222046 -5219983 -5210129 -5191860 -5166158 -5135216 -5102306 
3666.832 -5072243 -5049875 -5038871 -5040345 -5051153 -5063434 -5064089 
3670.207 -5038805 -4977293 -4875801 -4738924 -4576365 -4401216 -4227341 
3673.583 -4067053 -3933729 -3839843 -3794879 -3803288 -3862011 -3962197 
3676.958 -4092951 -4244798 -4409842 -4580365 -4748199 -4903322 -5036250 
3680.333 -5140553 -5215269 -5264963 -5297009 -5319922 -5339526 -5357822 
3683.708 -5374152 -5386556 -5394803 -5400660 -5408809 -5424254 -5451380 
3687.083 -5491232 -5540601 -5592940 -5640072 -5675525 -5696520 -5703846 
3690.459 -5699954 -5687396 -5667513 -5641479 -5610014 -5575309 -5541058 
3693.834 -5510764 -5487372 -5472190 -5463879 -5459103 -5453867 -5443985 
3697.209 -5427461 -5404555 -5377163 -5348658 -5322638 -5302181 -5289612 
3700.584 -5286338 -5292623 -5308105 -5330886 -5358247 -5386981 -5414372 
3703.960 -5437997 -5456878 -5471143 -5481875 -5490415 -5497547 -5503861 
3707.335 -5508769 -5511615 -5512433 -5511975 -5512597 -5517242 -5528955 
3710.710 -5548975 -5576126 -5605566 -5630980 -5646352 -5648020 -5635919 
3714.085 -5613318 -5586038 -5559705 -5539685 -5529412 -5529511 -5538703 
3717.461 -5553850 -5570860 -5585940 -5596178 -5599907 -5596374 -5586300 
3720.836 -5570500 -5550840 -5529674 -5509259 -5492770 -5483053 -5481875 
3724.211 -5490153 -5507329 -5531212 -5557840 -5583192 -5602655 -5612925 
3727.586 -5612664 -5602589 -5585580 -5565790 -5547765 -5535595 -5531964 
3730.962 -5537231 -5549662 -5566215 -5583650 -5600496 -5617995 -5639451 
3734.337 -5668330 -5706298 -5750378 -5793897 -5828454 -5846369 -5844538 
3737.712 -5824466 -5791052 -5749560 -5704434 -5658322 -5612206 -5567949 
3741.087 -5529674 -5503338 -5497809 -5521528 -5578842 -5664373 -5760449 
3744.463 -5841302 -5882425 -5874450 -5825937 -5757179 -5690307 -5642886 
3747.838 -5626205 -5642755 -5687265 -5747010 -5807302 -5855065 -5882687 
3751.213 -5888767 -5875757 -5846663 -5804490 -5751718 -5691419 -5627481 
3754.588 -5564612 -5507068 -5457892 -5418168 -5387570 -5365022 -5349149 
3757.964 -5339625 -5336810 -5341294 -5351735 -5365087 -5376280 -5380436 
3761.339 -5374807 -5360440 -5341261 -5323456 -5312819 -5312295 -5321263 
3764.714 -5335370 -5348265 -5354091 -5350622 -5339330 -5325747 -5316190 
3768.089 -5315568 -5326566 -5347348 -5373433 -5397977 -5415451 -5421996 
3771.465 -5416695 -5401609 -5379454 -5354058 -5328628 -5305618 -5286633 
3774.840 -5272525 -5263196 -5258449 -5258253 -5262639 -5271870 -5286273 
3778.215 -5305520 -5327548 -5349084 -5366102 -5375265 -5375200 -5366724 
3781.590 -5353567 -5340018 -5330559 -5328333 -5334813 -5349280 -5369735 
3784.966 -5392839 -5415190 -5433645 -5445360 -5448108 -5441106 -5424516 
3788.341 -5400431 -5372745 -5346170 -5325453 -5313440 -5310626 -5314455 
3791.716 -5321329 -5326926 -5328431 -5325257 -5319201 -5312524 -5307156 
3795.091 -5303098 -5298449 -5289383 -5273147 -5248464 -5218674 -5189699 
3798.467 -5169400 -5166126 -5186065 -5231081 -5297336 -5373727 -5444738 
3801.842 -5494242 -5511779 -5497089 -5458513 -5409529 -5364204 -5335173 
3805.217 -5330002 -5350196 -5389730 -5436165 -5474546 -5492509 -5484885 
3808.592 -5454784 -5410707 -5361520 -5314717 -5274063 -5239527 -5209147 
3811.968 -5181056 -5154698 -5132662 -5119859 -5121299 -5140946 -5177618 
3815.343 -5224796 -5270331 -5300970 -5308007 -5290561 -5255273 -5213435 
3818.718 -5179059 -5163834 -5175752 -5216218 -5279006 -5350000 -5411525 
3822.093 -5450170 -5459626 -5442808 -5408089 -5365742 -5325060 -5291445 
3825.469 -5267091 -5250330 -5237531 -5223977 -5206527 -5184755 -5160199 
3828.844 -5135772 -5114292 -5097623 -5085900 -5077712 -5070901 -5063139 
3832.219 -5053150 -5041425 -5029700 -5021577 -5021021 -5032582 -5059798 
3835.594 -5105188 -5168156 -5244274 -5325977 -5402558 -5463520 -5501178 
3838.969 -5513251 -5502782 -5476509 -5442284 -5406976 -5374709 -5347382 
3842.345 -5324373 -5303883 -5283884 -5262704 -5239331 -5213599 -5186327 
3845.720 -5158136 -5130762 -5105188 -5082461 -5062451 -5044700 -5028128 
3849.095 -5011653 -4996324 -4985449 -4985810 -5007002 -5059405 -5150147 
3852.470 -5277631 -5427363 -5571874 -5680790 -5734322 -5730039 -5680136 
3855.846 -5603668 -5519074 -5438979 -5370095 -5314455 -5269971 -5232816 
3859.221 -5198965 -5165111 -5130304 -5095266 -5062091 -5034711 -5017025 
3862.596 -5011784 -5020791 -5042866 -5073422 -5105483 -5131319 -5144744 
3865.971 -5143958 -5132138 -5116715 -5107579 -5113375 -5138851 -5182431 
3869.347 -5235894 -5285160 -5316550 -5322900 -5304996 -5271183 -5232162 
3872.722 -5197688 -5173591 -5160232 -5153651 -5146971 -5134495 -5112490 
3876.097 -5082363 -5048270 -5016828 -4994031 -4984761 -4991280 -5012308 
3879.472 -5043357 -5076730 -5104271 -5118810 -5116911 -5099621 -5072178 
3882.848 -5043030 -5020562 -5012963 -5024656 -5055082 -5098114 -5143140 
3886.223 -5179386 -5198801 -5199587 -5186065 -5165929 -5146775 -5135020 
3889.598 -5132924 -5138851 -5147921 -5152930 -5148281 -5131123 -5102634 
3892.973 -5067069 -5029438 -4994457 -4964648 -4940899 -4922291 -4907581 
3896.349 -4895820 -4886712 -4880749 -4879176 -4882551 -4891200 -4904273 
3899.724 -4920325 -4937787 -4955509 -4973264 -4991837 -5012242 -5034580 
3903.099 -5057866 -5079612 -5096445 -5105188 -5103616 -5091532 -5070639 
3906.474 -5043718 -5013946 -4983942 -4956066 -4930940 -4909318 -4891561 
3909.850 -4877439 -4867250 -4860271 -4855782 -4851949 -4847034 -4839235 
3913.225 -4828193 -4814856 -4801748 -4792507 -4790508 -4798111 -4815216 
3916.600 -4839432 -4866267 -4890578 -4908400 -4917312 -4916853 -4908826 
3919.975 -4895197 -4878193 -4860140 -4842348 -4826194 -4812726 -4802895 
3923.351 -4796833 -4794703 -4794997 -4796276 -4796603 -4794801 -4790541 
3926.726 -4784216 -4776711 -4769305 -4762193 -4755770 -4749903 -4744922 
3930.101 -4741742 -4741906 -4746823 -4757015 -4771664 -4788247 -4803157 
3933.476 -4812857 -4815216 -4809842 -4798242 -4783495 -4768322 -4755311 
3936.852 -4745381 -4738662 -4734270 -4731157 -4728993 -4728371 -4730075 
3940.227 -4735254 -4744299 -4756557 -4770780 -4784675 -4795555 -4801617 
3943.602 -4801715 -4795817 -4785265 -4772385 -4759637 -4749805 -4744725 
3946.977 -4745085 -4750297 -4758752 -4767765 -4774221 -4776613 -4773598 
3950.353 -4765864 -4754590 -4741382 -4728174 -4716243 -4706214 -4698642 
3953.728 -4693398 -4690284 -4688547 -4687203 -4684909 -4680287 -4672616 
3957.103 -4661963 -4649506 -4637508 -4628460 -4624297 -4626297 -4633640 
3960.478 -4644392 -4655702 -4664913 -4669994 -4669994 -4665601 -4657701 
3963.854 -4648195 -4638229 -4629083 -4620822 -4613347 -4606134 -4598528 
3967.229 -4589676 -4579283 -4566923 -4553053 -4538200 -4523641 -4511049 
3970.604 -4501572 -4496391 -4495505 -4498785 -4504622 -4511607 -4518099 
3973.979 -4522526 -4524297 -4523083 -4519247 -4513508 -4506688 -4499572 
3977.354 -4492751 -4486455 -4480814 -4475632 -4470910 -4466680 -4463040 
3980.730 -4459989 -4457792 -4456316 -4455332 -4454972 -4455070 -4455759 
3984.105 -4457432 -4460416 -4464777 -4469894 -4475469 -4480388 -4483733 
3987.480 -4485405 -4485897 -4486127 -4487045 -4489570 -4493243 -4497211 
3990.855 -4499867 -4499801 -4496227 -4489636 -4481109 -4472550 -4465729 
3994.231 -4461498 -4459858 -4460317 -4461629 -4463269 -4464909 -4467007 
3997.606 -4470517 -4476190 -4484028 -4493833 -4504523 -4514787 -4523379 
##END=
