
##TITLE=Z413_1_e
##JCAMP-DX=5.01  $$ Nicolet v. 1
##DATATYPE=INFRARED SPECTRUM
##ORIGIN=UniL
##OWNER=Nicolet
##LONGDATE=2011/09/21
##TIME=15:02:27
##SPECTROMETER/DATA SYSTEM=Nicolet iS5
##DATA PROCESSING=
Ratio against background
%Transmittance->Absorbance
Truncated
ElementMultiply or ElementDivide
##COMMENTS=
Number of sample scans: 32
Collection length: 51.21 sec
Sample gain: 2.0
Background collected on: Mer Sep 21 14:46:37 2011 (GMT+02:00);
Number of background scans: 32
Background gain: 2.0
Sample spacing:  1.000
Number of scan points: 12415
Resolution points: 8192
Number of FFT points: 65536
Apodization: N-B fort;
Phase correction: Mertz;
Laser frequency: 15798.0 cm-1
Number of rejected sample scans: 0
Number of rejected background scans: 0
Bench serial number: ASB1000141;
##RESOLUTION=4.000
##XUNITS=1/CM
##YUNITS=ABSORBANCE
##FIRSTX=649.893372
##LASTX=4000.122314
##FIRSTY=0.117159
##MAXX=4000.122314
##MINX=649.893372
##MAXY=0.291238
##MINY=-0.003442
##XFACTOR=1.000000
##YFACTOR=1.000000E-009
##NPOINTS=6950
##DELTAX=0.482117
##ZPD=6100
##XYDATA=(X++(Y..Y))
649.893 117159288 116441272 115788240 115227896 114761608 114374288 
652.786 114049400 113783944 113588584 113483632 113482680 113583680 
655.679 113767192 114005584 114277416 114578104 114920672 115326536 
658.571 115809784 116366248 116971648 117591232 118199608 118789160 
661.464 119373872 119977112 120617008 121290144 121970896 122614936 
664.357 123176840 123620320 123917464 124050552 124009328 123800112 
667.250 123458232 123063080 122718216 122498504 122416760 122419216 
670.142 122422816 122336688 122087672 121637384 120985336 120170464 
673.035 119253856 118301280 117356952 116434560 115525224 114611968 
675.928 113686256 112754048 111831592 110933936 110064376 109213312 
678.820 108363312 107501096 106626864 105754216 104903992 104091056 
681.713 103317624 102571088 101833456 101091256 100345280 99611488 98915184 
685.088 98277744 97707656 97197256 96727400 96277576 95832920 95389960 
688.463 94954376 94534432 94133776 93750240 93376848 93007136 92641032 
691.838 92286376 91955064 91660144 91410848 91211152 91063408 90971928 
695.212 90944056 90991088 91121808 91336136 91623032 91960064 92321832 
698.587 92685576 93040840 93390488 93747400 94125960 94534024 94969344 
701.962 95421456 95876720 96325880 96768056 97209152 97656752 98112864 
705.337 98570008 99011272 99418408 99775688 100077680 100328824 100541232 
708.712 100728464 100902736 101075112 101258768 101471136 101736528 
711.604 102079872 102519136 103056976 103675272 104336608 104989136 
714.497 105583992 106082272 106463952 106728488 106889504 106968800 
717.390 106988640 106974736 106957272 106972360 107066640 107289120 
720.282 107677768 108248808 108978736 109801400 110602888 111246144 
723.175 111595248 111534976 111008968 110029888 108685128 107111712 
726.068 105472960 103926064 102579016 101488336 100655984 100046224 99605400 
729.443 99281672 99039408 98856560 98720952 98623232 98550472 98487232 
732.817 98421272 98348048 98273464 98211352 98177664 98181944 98223936 
736.192 98293616 98377264 98463336 98547224 98631544 98723200 98828064 
739.567 98946264 99072912 99200592 99323856 99442400 99561064 99686344 
742.942 99822880 99970640 100124736 100279112 100429032 100573768 100715848 
746.317 100857432 100996800 101126840 101237768 101320648 101372112 
749.209 101397720 101409320 101421408 101444896 101483272 101532752 
752.102 101585872 101635568 101678488 101716384 101753368 101792944 
754.995 101835712 101879200 101920128 101958096 101996016 102039896 
757.888 102096392 102169536 102258760 102360576 102470096 102584856 
760.780 102706600 102840688 102993672 103170536 103373488 103601400 
763.673 103853840 104134128 104452616 104829704 105295288 105882736 
766.566 106626480 107547736 108643640 109872480 111147488 112343704 
769.458 113301008 113867016 113929328 113444384 112461224 111114360 
772.351 109601560 108118904 106829152 105823720 105108856 104623288 
775.244 104264656 103933136 103547184 103059664 102454872 101729576 
778.136 100879880 99893192 98747032 97418584 95894608 94176256 92281256 
781.511 90239680 88092136 85882272 83656024 81461968 79342968 77336680 
784.886 75471296 73761000 72210544 70816704 69573640 68476904 67524000 
788.261 66713520 66043124 65506904 65095848 64799176 64607732 64517388 
791.636 64530416 64654260 64899580 65278144 65799512 66469988 67292976 
795.010 68268792 69394704 70665240 72073112 73610240 75271704 77061080 
798.385 78995432 81111408 83459512 86103280 89101040 92483816 96231504 
801.760 100246928 104351400 108263008 111637584 114124024 115395120 
804.653 115247512 113642912 110732848 106824920 102322576 97652768 93141512 
808.028 88984304 85221000 81764408 78455528 75132464 71697720 68136752 
811.402 64521728 60971408 57623920 54592028 51939212 49684084 47804324 
814.777 46255340 44981816 43931964 43062356 42335852 41724424 41207144 
818.152 40768400 40399296 40094560 39850508 39663108 39526668 39434064 
821.527 39379312 39359216 39374380 39427532 39522604 39661836 39844880 
824.902 40069852 40334352 40637872 40981548 41367112 41795192 42264080 
828.277 42769748 43309904 43886804 44512004 45208072 46010968 46963552 
831.651 48115108 49515644 51203048 53195240 55472752 57967408 60544468 
835.026 63001780 65102584 66580324 67203816 66832340 65439096 63132048 
838.401 60121372 56694992 53142136 49709236 46586188 43876904 41615448 
841.776 39783864 38334256 37205636 36335688 35672964 35172720 34799256 
845.151 34526800 34336052 34214364 34153280 34145356 34181956 34252828 
848.525 34346128 34452292 34566192 34688488 34824204 34980576 35163628 
851.900 35375768 35615880 35880852 36168524 36478840 36814656 37180260 
855.275 37580204 38018056 38496604 39019288 39592104 40223436 40925840 
858.650 41713776 42603272 43613460 44767400 46091428 47615976 49368240 
862.025 51361444 53582400 55981072 58466004 60899124 63123116 64977808 
865.400 66321508 67067252 67191664 66745080 65837720 64631732 63317508 
868.774 62071808 61055832 60391560 60149836 60362624 61022848 62096040 
872.149 63522144 65221540 67100392 69038912 70903608 72555944 73854152 
875.524 74685952 74980600 74720904 73946472 72746176 71245672 69574928 
878.899 67859688 66202900 64666876 63278028 62026512 60878464 59787352 
882.274 58710320 57622556 56521960 55431340 54389376 53444288 52638696 
885.648 52001092 51544780 51267288 51155708 51193172 51364244 51657508 
889.023 52064628 52580012 53198236 53913968 54723252 55625024 56622624 
892.398 57723400 58938684 60281380 61763708 63396596 65186120 67130440 
895.773 69212880 71394752 73612008 75764424 77728456 79371016 80558544 
899.148 81192576 81221808 80651136 79539392 77989768 76136904 74117384 
902.523 72065600 70100040 68306408 66746592 65454892 64442092 63704172 
905.897 63227772 62997220 62997296 63216580 63647612 64286196 65130220 
909.272 66180436 67438928 68909696 70595888 72497200 74604864 76896904 
912.647 79333864 81863456 84423160 86948984 89391952 91721728 93935384 
916.022 96054840 98124456 100200856 102337176 104575312 106926248 109358632 
919.397 111784008 114058528 116000032 117394160 118051224 117845680 
922.289 116749664 114860968 112400656 109706696 107157048 105144864 
925.182 104022928 104022248 105238032 107589040 110835904 114579144 
928.075 118317168 121556712 123837960 124843232 124442360 122678784 
930.967 119739576 115878568 111379216 106486600 101391488 96246880 91166472 
934.342 86246560 81582616 77261096 73361680 69953344 67081368 64771904 
937.717 63033000 61857036 61223396 61096716 61426212 62133432 63111848 
941.092 64237364 65362796 66343388 67058900 67417296 67375968 66941872 
944.467 66169328 65145464 63974096 62766372 61615032 60590600 59737960 
947.841 59073692 58593968 58280780 58110712 58058748 58101248 58218568 
951.216 58392236 58605304 58844044 59097300 59358648 59627108 59905700 
954.591 60199732 60514380 60853148 61217288 61606900 62021468 62461300 
957.966 62926860 63418224 63933948 64470688 65024064 65590328 66167280 
961.341 66755132 67355536 67970448 68600752 69245064 69901696 70569072 
964.716 71247856 71940528 72651264 73383064 74137352 74913312 75709192 
968.090 76524168 77359952 78221232 79114128 80043824 81013096 82021712 
971.465 83067904 84150920 85273096 86439784 87659272 88939568 90285648 
974.840 91699792 93181464 94729560 96344912 98030024 99788440 101623008 
978.215 103533856 105520064 107580128 109716208 111935000 114247888 
981.108 116667472 119203808 121861216 124636744 127520296 130495144 
984.000 133539096 136618000 139678624 142648768 145426752 147888608 
986.893 149911024 151375152 152194320 152329920 151793344 150648976 
989.786 149000160 146990624 144779856 142527712 140392416 138501792 
992.678 136948288 135789136 135041856 134695760 134721568 135085808 
995.571 135756944 136708960 137923232 139381888 141065344 142952496 
998.464 145018544 147238064 149587152 152037344 154551648 157081920 
1001.356 159559648 161903600 164029792 165856656 167324528 168402640 
1004.249 169092016 169425008 169462784 169294304 169021952 168761344 
1007.142 168632336 168737056 169159760 169955936 171148272 172734544 
1010.035 174694384 177001616 179626640 182541184 185717616 189121808 
1012.927 192714144 196454224 200301088 204222640 208194400 212189008 
1015.820 216165888 220054976 223742400 227085568 229921712 232094512 
1018.713 233497056 234088960 233918272 233112864 231882672 230495440 
1021.605 229226336 228358720 228135248 228724160 230224352 232648208 
1024.498 235938464 239977104 244616672 249702592 255070544 260566320 
1027.391 266037616 271317696 276243136 280652864 284399648 287377568 
1030.284 289521280 290806176 291237664 290838976 289643040 287688832 
1033.177 285028160 281725952 277853728 273487392 268694368 263528704 
1036.070 258039888 252280560 246317216 240243072 234169424 228215008 
1038.963 222502528 217134544 212192496 207737184 203800320 200386496 
1041.856 197464016 194962528 192764288 190707136 188617232 186316320 
1044.750 183662944 180585504 177087536 173251424 169211952 165144880 
1047.643 161228848 157618240 154444896 151796352 149717296 148216768 
1050.536 147270096 146829872 146830624 147205136 147887824 148818048 
1053.429 149945488 151220080 152585120 153976272 155312080 156498320 
1056.322 157443888 158060144 158275968 158047472 157355920 156213968 
1059.215 154663168 152780192 150670208 148457216 146285616 144293936 
1062.108 142603504 141316592 140499984 140189216 140391008 141085520 
1065.001 142228000 143746112 145548336 147516672 149512912 151402480 
1067.894 153052576 154354080 155235088 155654992 155604784 155097584 
1070.787 154160864 152829408 151140128 149133328 146848736 144324688 
1073.680 141602400 138724960 135742896 132722336 129739832 126885728 
1076.573 124260152 121954496 120051368 118615048 117681424 117260672 
1079.466 117332208 117847976 118725696 119852080 121096856 122306168 
1082.359 123330384 124049360 124380592 124304352 123864048 123162944 
1085.252 122340600 121551896 120956624 120686656 120844224 121495568 
1088.146 122662744 124326896 126425552 128865808 131522376 134251344 
1091.039 136916464 139386912 141555760 143347824 144709808 145609952 
1093.932 146033872 145979920 145460144 144500176 143143184 141446208 
1096.825 139478576 137325872 135077264 132823872 130653304 128630264 
1099.718 126790584 125129936 123604120 122132840 120614952 118958064 
1102.611 117091384 114988488 112672520 110214336 107718608 105299336 
1105.504 103075368 101147840 99589904 98451656 97754592 97496672 97656752 
1108.879 98199264 99078944 100240088 101624768 103169616 104803936 106454720 
1112.254 108039992 109469672 110658448 111525256 112005832 112063296 
1115.147 111687928 110898000 109731944 108245584 106502528 104565784 
1118.041 102499504 100359840 98191288 96028176 93891248 91790368 89729504 
1121.416 87711168 85741128 83831096 81997344 80259568 78636896 77143464 
1124.791 75789000 74578104 73512704 72595264 71830576 71226656 70794504 
1128.166 70545136 70486864 70622280 70945272 71439824 72076712 72815640 
1131.542 73606672 74389312 75104304 75699096 76135088 76398360 76501328 
1134.917 76483312 76399984 76318320 76305608 76413688 76677640 77107496 
1138.292 77687920 78378368 79117384 79834400 80449224 80886544 81085816 
1141.667 80999960 80602424 79885016 78854440 77529768 75939648 74124144 
1145.042 72129280 70007808 67818048 65614216 63447864 61364304 59397320 
1148.418 57573332 55910596 54419384 53105032 51967932 51004656 50208028 
1151.793 49568304 49074472 48714364 48477048 48353628 48336592 48420148 
1155.168 48599432 48869964 49227864 49670412 50196536 50807128 51503932 
1158.543 52288812 53161796 54120152 55158012 56267480 57438452 58658548 
1161.919 59913460 61183224 62441524 63657092 64791060 65802172 66651084 
1165.294 67300016 67717736 67881264 67775168 67394080 66743696 65841460 
1168.669 64713904 63395524 61926500 60345336 58689760 56994564 55288876 
1172.044 53599492 51951236 50365280 48861880 47458864 46170424 45008276 
1175.420 43980176 43090708 42341880 41733688 41265116 40934468 40740160 
1178.795 40681388 40758608 40974156 41332780 41841380 42507744 43339412 
1182.170 44342620 45520944 46875620 48404412 50101888 51954932 53939440 
1185.545 56018504 58134160 60210008 62160420 63888220 65302596 66331036 
1188.921 66920728 67050008 66728160 65995024 64913856 63563496 62034844 
1192.296 60412656 58774692 57188576 55703632 54357980 53178576 52181600 
1195.671 51377000 50767612 50349280 50109772 50027224 50072068 50203492 
1199.046 50374060 50534496 50631512 50616472 50449044 50098020 49548544 
1202.422 48802816 47881452 46819188 45661376 44459328 43259096 42100756 
1205.797 41014536 40018328 39121664 38327160 37633100 37036048 36531424 
1209.172 36114188 35778260 35517492 35326240 35200348 35138340 35141032 
1212.547 35210736 35349956 35560100 35840836 36189844 36603364 37076028 
1215.923 37601412 38170480 38770764 39388020 40005540 40606616 41178040 
1219.298 41709724 42196272 42636060 43029828 43380088 43691020 43968996 
1222.673 44223228 44465896 44712376 44978472 45278452 45623796 46020320 
1226.048 46468504 46962920 47493904 48047888 48608660 49161288 49692520 
1229.424 50194640 50667256 51118696 51564932 52026604 52528032 53094320 
1232.799 53748192 54512836 55410784 56464036 57695808 59127484 60777112 
1236.174 62658728 64780056 67143200 69744680 72576344 75624040 78864536 
1239.549 82266840 85789408 89381168 92991136 96568904 100069376 103457536 
1242.925 106702176 109773584 112642200 115272568 117624768 119656600 
1245.818 121320024 122565632 123345744 123614072 123335848 122492392 
1248.711 121084992 119134528 116676664 113758456 110428392 106737848 
1251.604 102744248 98509024 94105512 89618904 85134688 80742544 76526976 
1254.979 72555672 68885744 65555796 62583864 59970516 57697816 55733808 
1258.354 54031816 52537676 51194740 49943580 48733124 47522628 46283612 
1261.729 45003388 43683072 42335488 40980964 39643976 38349780 37119588 
1265.105 35970576 34914144 33955528 33094990 32328918 31650748 31052604 
1268.480 30526512 30066460 29667628 29327360 29044148 28816490 28642358 
1271.855 28519596 28446324 28421916 28447846 28527558 28665434 28865106 
1275.230 29127548 29449606 29821942 30228270 30646748 31048368 31399458 
1278.606 31667714 31823132 31845308 31727486 31476970 31114250 30666482 
1281.981 30165186 29638112 29106396 28585414 28084922 27611982 27174090 
1285.356 26779028 26436018 26153626 25938734 25796130 25729400 25741528 
1288.731 25836006 26016896 26288146 26651544 27105982 27646692 28264384 
1292.107 28945568 29672984 30422514 31164762 31866986 32493036 33012006 
1295.482 33403658 33662228 33799488 33842044 33828500 33799348 33794044 
1298.857 33846520 33980752 34213072 34550584 34991496 35522668 36118760 
1302.232 36744912 37355324 37900856 38338016 38630368 38756924 38713348 
1305.608 38511632 38176704 37742056 37248488 36735392 36238680 35789092 
1308.983 35407040 35103240 34879456 34730620 34647896 34622204 34646712 
1312.358 34716768 34829336 34982160 35171644 35393456 35643252 35917128 
1315.733 36213108 36530520 36869192 37228884 37608816 38007712 38425324 
1319.109 38862648 39322032 39805256 40311372 40834060 41360624 41871700 
1322.484 42342096 42746276 43059392 43262424 43347360 43318728 43197168 
1325.859 43015964 42821784 42666396 42596656 42651668 42852832 43201924 
1329.234 43682300 44264976 44916628 45604216 46303072 46997736 47680312 
1332.610 48349408 49007404 49659012 50309284 50963928 51626760 52298792 
1335.985 52976504 53650668 54308000 54931136 55500796 55999284 56409208 
1339.360 56716476 56911076 56988144 56949040 56802080 56562568 56250360 
1342.735 55888436 55502604 55116328 54751252 54425916 54153256 53942256 
1346.111 53797168 53717332 53695396 53716168 53757000 53786328 53768140 
1349.486 53669524 53463364 53136484 52692520 52153840 51558960 50956812 
1352.861 50405912 49962764 49675836 49582712 49700020 50022208 50519240 
1356.236 51143332 51832088 52516440 53135584 53636756 53982584 54154312 
1359.612 54150668 53989264 53702520 53340764 52966620 52644940 52440836 
1362.987 52401696 52548224 52869872 53325968 53854364 54374544 54803124 
1366.362 55060128 55074048 54799776 54223940 53372724 52304584 51102744 
1369.737 49859244 48651612 47541032 46565240 45738972 45064400 44537040 
1373.113 44153200 43912464 43815840 43861400 44039212 44330584 44712044 
1376.488 45158692 45651624 46179972 46741472 47341716 47993676 48717776 
1379.863 49539744 50490948 51602988 52896780 54370672 55985600 57663952 
1383.238 59283176 60690608 61733612 62261408 62158512 61367588 59911520 
1386.614 57909140 55557468 53108960 50794804 48777828 47141528 45889532 
1389.989 44976488 44332232 43885664 43570896 43329088 43112336 42878248 
1393.364 42592896 42236800 41807268 41319736 40800504 40277348 39769416 
1396.739 39283040 38816088 38365200 37932928 37533708 37192244 36935748 
1400.115 36787396 36757424 36843692 37034208 37313508 37665912 38077476 
1403.490 38538024 39039584 39574828 40137368 40720256 41316824 41922712 
1406.865 42536212 43159068 43795684 44451108 45128728 45829396 46550264 
1410.240 47286700 48034268 48789916 49552036 50319628 51088916 51853588 
1413.615 52604956 53334880 54040596 54726972 55407284 56100576 56828324 
1416.991 57610412 58460888 59384976 60375720 61411172 62456980 63470872 
1420.366 64411460 65242408 65937592 66483812 66881344 67148816 67323000 
1423.741 67458048 67610056 67824280 68124848 68511240 68967056 69470320 
1427.116 70004960 70562600 71141752 71745128 72377648 73047344 73766536 
1430.492 74556472 75444680 76456088 77608328 78903120 80328616 81862456 
1433.867 83483760 85180848 86949384 88791208 90703464 92671912 94666144 
1437.242 96651104 98601608 100502184 102343928 104109416 105766984 107260016 
1440.617 108510816 109438128 109957456 109997408 109509064 108465128 
1443.510 106868520 104755520 102203872 99324768 96245520 93108088 90040160 
1446.886 87147736 84516256 82197160 80206640 78522976 77098120 75871464 
1450.261 74789344 73825016 72984240 72303440 71828080 71595064 71607648 
1453.636 71829568 72180968 72548896 72808944 72832536 72534488 71915184 
1457.011 71086880 70234904 69536816 69113104 69007296 69216888 69722344 
1460.387 70498248 71515136 72730744 74091416 75520656 76917432 78174344 
1463.762 79180312 79852200 80161248 80142160 79878680 79465016 78987408 
1467.137 78503328 78042704 77618504 77228008 76853712 76457856 75980816 
1470.512 75345280 74468200 73295656 71834728 70175080 68462704 66852316 
1473.888 65456048 64319692 63442416 62802708 62380776 62165848 62150596 
1477.263 62320684 62645748 63078748 63566372 64053156 64495632 64869380 
1480.638 65169216 65410480 65622620 65845972 66123568 66501572 67031836 
1484.013 67767696 68763528 70065736 71698304 73648352 75851144 78195648 
1487.389 80513312 82590952 84202840 85113088 85125864 84136400 82158768 
1490.764 79340824 75916528 72154592 68280384 64440324 60720484 57150552 
1494.139 53739604 50512276 47516232 44828228 42540048 40726292 39422016 
1497.514 38615408 38264444 38313192 38707840 39404164 40360024 41531476 
1500.890 42872468 44328344 45841880 47359120 48815088 50135876 51231012 
1504.265 51969088 52184032 51690464 50338456 48109592 45183804 41903556 
1507.640 38616644 35551576 32786228 30298432 28035156 25954318 24035884 
1511.015 22284068 20712774 19330330 18135472 17114462 16248407 15517600 
1514.391 14904766 14394166 13967510 13604961 13289141 13009260 12766957 
1517.766 12572945 12439299 12370191 12355907 12372543 12391260 12388328 
1521.141 12360032 12326488 12323079 12379293 12503236 12683229 12896096 
1524.516 13120610 13344011 13566604 13799025 14055081 14342314 14658798 
1527.892 14995681 15344427 15702419 16075458 16474558 16910644 17389034 
1531.267 17907590 18456876 19024272 19599756 20179476 20766646 21365816 
1534.642 21979928 22606082 23237228 23863202 24475076 25066926 25632588 
1538.017 26164888 26652460 27077698 27419486 27660888 27801388 27857838 
1541.393 27857096 27825230 27774470 27701288 27590092 27424602 27196628 
1544.768 26915680 26607472 26306170 26040362 25820956 25641552 25483234 
1548.143 25325816 25156060 24975528 24798964 24648070 24539652 24478546 
1551.518 24458250 24466662 24493830 24537056 24602098 24699274 24837064 
1554.894 25016206 25227832 25455442 25678776 25873354 26009720 26057988 
1558.269 25995052 25824894 25588022 25350474 25168314 25065944 25039442 
1561.644 25068576 25127658 25191452 25240580 25264846 25265478 25254416 
1565.019 25249534 25266812 25312364 25380612 25455758 25519636 25555762 
1568.395 25555656 25522132 25468302 25413352 25374324 25362450 25381562 
1571.770 25429830 25501996 25590238 25683558 25765824 25816736 25816630 
1575.145 25752566 25628336 25467492 25306710 25176776 25090762 25041372 
1578.520 25009712 24973772 24915660 24826434 24704712 24554728 24382540 
1581.896 24192380 23986054 23763832 23527314 23281168 23032508 22788530 
1585.271 22553622 22327180 22104550 21880780 21653398 21424778 21201324 
1588.646 20990258 20796884 20622184 20464260 20320700 20191348 20079038 
1592.021 19987954 19919474 19869592 19828284 19782472 19719778 19633902 
1595.396 19526310 19405442 19282180 19165846 19062318 18974044 18903196 
1598.772 18854470 18836682 18860318 18935694 19068446 19258834 19502708 
1602.147 19794576 20129290 20502224 20906946 21331082 21753332 22145972 
1605.522 22474722 22705570 22812974 22781686 22611666 22315494 21916640 
1608.897 21441452 20915152 20362020 19803454 19260358 18753368 18298494 
1612.273 17904344 17570028 17285482 17033888 16795424 16552171 16290372 
1615.648 16004357 15699843 15393103 15107508 14865128 14681487 14561650 
1619.023 14501384 14489633 14510702 14547945 14585361 14612364 14626962 
1622.398 14636934 14656468 14700920 14780206 14895474 15040854 15208004 
1625.774 15390186 15583056 15783777 15988681 16191518 16384779 16562015 
1629.149 16721454 16867446 17008218 17153066 17307582 17471158 17636518 
1632.524 17791486 17922162 18013780 18053948 18034812 17954898 17821414 
1635.899 17650564 17463362 17278584 17108052 16955294 16815918 16680546 
1639.275 16537610 16377725 16195886 15995007 15784258 15576874 15383629 
1642.650 15208690 15048229 14890707 14720835 14522488 14285023 14006554 
1646.025 13697246 13376813 13070719 12803265 12590545 12439777 12350282 
1649.400 12314796 12320898 12348782 12371623 12351134 12243389 12016467 
1652.776 11677462 11286347 10925179 10651878 10474795 10368974 10299719 
1656.151 10238481 10168297 10082185 9981444 9871438 9757834 9643583 9528277 
1660.008 9408872 9282187 9145794 8999092 8843478 8682173 8520084 8363628 
1663.866 8220296 8096692 7996950 7920952 7863321 7814301 7760125 7686259 
1667.723 7581115 7439660 7265836 7071673 6874095 6688519 6525019 6387471 
1671.581 6274473 6180929 6098695 6017822 5925677 5809977 5663592 5489538 
1675.438 5303713 5128597 4984686 4881535 4815394 4773651 4740621 4704646 
1679.295 4660970 4614085 4574002 4551132 4548822 4560206 4567305 4545574 
1683.153 4471651 4336023 4153568 3960357 3795875 3680841 3615184 3584647 
1687.010 3572019 3562231 3545127 3515697 3472142 3415499 3348813 3277897 
1690.868 3210698 3156125 3121984 3111571 3122217 3143843 3161766 3159263 
1694.725 3124320 3057511 2974800 2902477 2861718 2860184 2888701 2927529 
1698.583 2950513 2931565 2855081 2724192 2565577 2415116 2301747 2233933 
1702.440 2204559 2198731 2200629 2196633 2175753 2132432 2066808 1985350 
1706.297 1898316 1816058 1746190 1691834 1651621 1621555 1596745 1573799 
1710.155 1551585 1532100 1518700 1514544 1520961 1536822 1559067 1583908 
1714.012 1608252 1630235 1648395 1660402 1661566 1645335 1605791 1542109 
1717.870 1461247 1377210 1304555 1253611 1227394 1222011 1230118 1244074 
1721.727 1258430 1271057 1283286 1297344 1316088 1340649 1370762 1405431 
1725.584 1444326 1487845 1536589 1589994 1645335 1697423 1740601 1770875 
1729.442 1787810 1794963 1797592 1799455 1799688 1789640 1754274 1677432 
1733.299 1548061 1371892 1173036 986592 840993 746787 698430 681405 679845 
1737.639 679613 671416 651074 619650 581659 543572 511459 488703 477160 
1741.979 475833 483429 497162 514246 532525 550937 569417 589224 611554 
1746.318 636474 662655 686881 705001 713663 710311 694049 664779 623068 
1750.658 570213 508374 442432 378423 323011 281797 256931 246753 245791 
1754.997 246719 241846 226729 201932 172994 148134 133849 132357 140908 
1759.337 153039 160431 156056 136169 101037 54774 3644 -45987 -88690 -121121 
1764.159 -141624 -150005 -147984 -139074 -128110 -120392 -119464 -125361 
1768.016 -134337 -139770 -136557 -123241 -103829 -86703 -82529 -99291 
1771.874 -138842 -194254 -253500 -304792 -341080 -362401 -373061 -378292 
1775.731 -381271 -382231 -379152 -370048 -354654 -336014 -318632 -307772 
1779.588 -306216 -313467 -326082 -339027 -349059 -355316 -359719 -364983 
1783.446 -373491 -385475 -399379 -412885 -424173 -432548 -438506 -441948 
1787.303 -441816 -435428 -419969 -393553 -357435 -316149 -277309 -249990 
1791.161 -240552 -251811 -280356 -319327 -359984 -396069 -424305 -444894 
1795.018 -459326 -468759 -474088 -475742 -474452 -471440 -468064 -465912 
1798.875 -465681 -467005 -468990 -471009 -472995 -475577 -480244 -487426 
1802.733 -496461 -505728 -512711 -515657 -513638 -507317 -498480 -488551 
1806.590 -478589 -468759 -458829 -448668 -439267 -432117 -428973 -430595 
1810.448 -436884 -446351 -456909 -467137 -476140 -484215 -491960 -499307 
1814.305 -505099 -507912 -505761 -498017 -485208 -469123 -451945 -435030 
1818.163 -417950 -398883 -375908 -347106 -311911 -271150 -226279 -178688 
1822.020 -129866 -81336 -35253 4937 35421 53879 60407 59280 57126 60871 
1826.842 74856 99546 130269 159934 181413 190562 188474 180916 176540 182209 
1831.664 201269 232630 272314 316147 360316 402931 443559 481970 518127 
1836.003 551767 583152 613346 645466 683197 730490 790302 863303 948967 
1840.343 1045443 1150611 1262749 1379570 1497420 1611478 1715652 1804878 
1844.200 1877450 1936256 1987314 2036946 2088748 2142154 2192271 2231835 
1848.058 2254749 2257514 2240461 2207024 2161534 2107193 2044170 1970971 
1851.915 1885370 1787144 1679294 1567414 1458122 1356736 1265807 1184499 
1855.772 1110414 1040494 973209 908092 845342 785091 726507 668463 609928 
1860.112 551733 495901 445218 402102 366186 335114 305702 275033 242940 
1864.452 212175 187181 172099 169016 175745 186816 195468 195236 183535 
1868.791 161492 133285 104815 80655 63257 53514 51294 55304 64019 75088 
1873.613 84997 89537 85494 71078 47185 16964 -15440 -46583 -75174 -102438 
1878.435 -130793 -162525 -198129 -235916 -272508 -304626 -330452 -350085 
1882.292 -365513 -378954 -391633 -403219 -412587 -418182 -419307 -416659 
1886.150 -411594 -405702 -399810 -394281 -389680 -387561 -390408 -400902 
1890.007 -420201 -446781 -476107 -502220 -519595 -525221 -520190 -508673 
1893.865 -495832 -486400 -481634 -479913 -477596 -471175 -459061 -442279 
1897.722 -422981 -403981 -387197 -373326 -362864 -357137 -358329 -368294 
1901.579 -388124 -415798 -445887 -471241 -485804 -486069 -473293 -452706 
1905.437 -430793 -413084 -402458 -398055 -397492 -399280 -403517 -411958 
1909.294 -426589 -447542 -472069 -494674 -509600 -512744 -503345 -483951 
1913.152 -457902 -428410 -396234 -360812 -322042 -282210 -246579 -223034 
1917.009 -218894 -236678 -272640 -316977 -357402 -384184 -392858 -385575 
1920.866 -369088 -351343 -338564 -334260 -338928 -351244 -369221 -391434 
1924.724 -415567 -438704 -456082 -463264 -457108 -437778 -409409 -379417 
1928.581 -354588 -338597 -331015 -327903 -324492 -318433 -310984 -306746 
1932.439 -310520 -324062 -343993 -362401 -370876 -363229 -338762 -302673 
1936.296 -263170 -228001 -200613 -180642 -163883 -146792 -127944 -109063 
1940.154 -94421 -87498 -89651 -99225 -113038 -128176 -143744 -160968 -180476 
1944.493 -200712 -216609 -221676 -209720 -179549 -135629 -87630 -46782 
1948.351 -20244 -8747 -7190 -5897 4075 26209 58352 93878 124800 145283 
1953.172 153537 151117 140047 122679 98982 67797 29291 -15108 -61492 -104724 
1957.994 -141923 -172329 -196837 -218629 -238135 -253931 -264229 -266845 
1961.852 -263236 -259097 -261680 -275488 -301481 -334226 -363593 -380046 
1965.709 -377663 -356210 -321744 -282475 -243466 -207137 -171799 -135364 
1969.566 -98198 -64507 -40057 -30349 -36611 -54005 -75008 -92467 -102040 
1973.906 -105088 -104922 -102869 -94951 -72126 -22795 59380 170972 296949 
1978.246 414804 504460 553525 561056 535378 490362 437258 382999 329112 
1982.585 276027 224640 179689 147604 133517 137594 153404 170143 176176 
1986.925 165038 137130 99247 60308 27700 3644 -14744 -32105 -51884 -71795 
1991.747 -86769 -89750 -77129 -51255 -19813 7388 21935 21140 7521 -11894 
1996.568 -30548 -43800 -49797 -50095 -46683 -40289 -30647 -18123 -4042 7587 
2001.390 10536 -397 -27964 -71066 -124764 -182861 -239691 -290653 -333697 
2005.730 -365778 -382794 -380245 -353926 -303335 -234459 -159776 -91572 
2009.587 -41945 -15837 -10039 -16732 -25313 -27069 -18322 298 26607 57889 
2014.409 92619 130236 169812 206905 236542 252621 252389 237735 215225 
2018.749 192485 176375 169182 168287 169679 169414 166928 165668 170143 
2023.088 183137 203755 226828 246554 259019 264689 268269 275497 289953 
2027.428 310344 330604 344929 349539 347814 349306 364726 402466 463096 
2031.767 539259 618854 690598 748181 792726 829839 867187 909155 955277 
2036.107 1001703 1044148 1081282 1114567 1148020 1184931 1225699 1265740 
2039.964 1299238 1319677 1323532 1311967 1289235 1260855 1230750 1201942 
2043.822 1174963 1150744 1131276 1120314 1121875 1139648 1174099 1223273 
2047.679 1283353 1348925 1413842 1472418 1517869 1543771 1545700 1522258 
2051.537 1477937 1423116 1371094 1335863 1327487 1348061 1391437 1446287 
2055.394 1499847 1542674 1572934 1593186 1609449 1626610 1645435 1662963 
2059.251 1675103 1678995 1675469 1669149 1666355 1671511 1685448 1704308 
2063.109 1721939 1733083 1735112 1728991 1717980 1705406 1691568 1675203 
2066.966 1652951 1622719 1585172 1543871 1503605 1469526 1443428 1425011 
2070.824 1412013 1402506 1396191 1395127 1402207 1418629 1443628 1473249 
2074.681 1502075 1525682 1541876 1551419 1557172 1561827 1567281 1573433 
2078.539 1579286 1584607 1590094 1597776 1610214 1628639 1652386 1678662 
2082.396 1703643 1725066 1741832 1754906 1766384 1777629 1788375 1796993 
2086.253 1801019 1798656 1790405 1777829 1763623 1749450 1735678 1721007 
2090.111 1703510 1682221 1657708 1632463 1610413 1595415 1590194 1596279 
2093.968 1614338 1644071 1685781 1737973 1798091 1861677 1922311 1973766 
2097.826 2011480 2034283 2044137 2045968 2044336 2042339 2041407 2040641 
2101.683 2039542 2039509 2043671 2057187 2084220 2126305 2180948 2243425 
2105.541 2306944 2365941 2418182 2463831 2504553 2542946 2579142 2612708 
2109.398 2642477 2668146 2691217 2714523 2741297 2772574 2807623 2842841 
2113.255 2873058 2894372 2904079 2902644 2892604 2877961 2862218 2848877 
2117.113 2839739 2836104 2838972 2848010 2862652 2881097 2901010 2920323 
2120.970 2938370 2955851 2975534 3000022 3031018 3068223 3109135 3149884 
2124.828 3187633 3221280 3252325 3283473 3317761 3356359 3397900 3438442 
2128.685 3474146 3500666 3516299 3520574 3515096 3501234 3481226 3458181 
2132.542 3435904 3420141 3416835 3430894 3463424 3511689 3568545 3626277 
2136.400 3678202 3721678 3758273 3792365 3827463 3864033 3898869 3926051 
2140.257 3940160 3938890 3923677 3900173 3874899 3851564 3831608 3812120 
2144.115 3788856 3758641 3720876 3676865 3629217 3580705 3530228 3476450 
2147.972 3417636 3352686 3282538 3209597 3134932 3057511 2974466 2880596 
2151.830 2772574 2650111 2516517 2377668 2239429 2104696 1973800 1846370 
2155.687 1724567 1616932 1538418 1507329 1538318 1635922 1787411 1967509 
2159.544 2144885 2289756 2384298 2424912 2418815 2379533 2322733 2262377 
2163.402 2207623 2165064 2136794 2121677 2114285 2105961 2087150 2049064 
2167.259 1987746 1905072 1808272 1706836 1609382 1521194 1441766 1367704 
2171.117 1294220 1219186 1143800 1073476 1013293 967763 937113 919448 909885 
2175.456 904639 901020 897500 892055 881796 862141 828544 779083 715256 
2179.796 642347 568554 502071 447871 406811 376532 352888 333124 316578 
2184.135 304376 298474 299834 307228 318269 331632 346090 362803 384359 
2188.475 411487 443891 478951 513184 543572 569516 591679 611820 632060 
2192.815 652103 670288 685288 695775 702479 707590 713066 719604 726541 
2197.154 730656 729461 722160 710909 699226 691726 689602 691892 694779 
2201.494 693585 685686 672246 657080 645433 641451 645997 656848 670255 
2205.833 682534 692290 700919 710909 723454 738257 751699 760096 760495 
2210.173 753259 741443 729860 722956 722425 727005 733344 738622 741343 
2214.513 742339 743401 746919 752960 759599 763947 763349 756976 746753 
2218.852 735336 725412 717779 712435 707092 700919 694182 689470 689370 
2223.192 696240 709880 727005 743733 755582 760362 758105 751400 743567 
2227.531 737294 734207 734307 736697 741045 746919 754686 764843 777091 
2231.871 790999 806568 823498 842952 866158 893483 924926 959527 994496 
2236.211 1028305 1059526 1087992 1114234 1139149 1162505 1183602 1201875 
2240.068 1217060 1230218 1243642 1259161 1277471 1298274 1319046 1336893 
2243.926 1350786 1361156 1370895 1384324 1404235 1431527 1464672 1500180 
2247.783 1533895 1563856 1588863 1609316 1626211 1639015 1646732 1648528 
2251.640 1644603 1637552 1632264 1634259 1647098 1671045 1702146 1733615 
2255.498 1758466 1771541 1771873 1762026 1746523 1729490 1713323 1697722 
2259.355 1680957 1660801 1636288 1608119 1578321 1549491 1523654 1502374 
2263.213 1486814 1478103 1478137 1488410 1509689 1540912 1579286 1620191 
2267.070 1659204 1693065 1720276 1741100 1756869 1768746 1777197 1782453 
2270.927 1784483 1784150 1782586 1781954 1784283 1789673 1797758 1807374 
2274.785 1817455 1828535 1841945 1860213 1884838 1916221 1952331 1989544 
2278.642 2024329 2054057 2078360 2098736 2117648 2137959 2160635 2185710 
2282.500 2212052 2237264 2259779 2277998 2290922 2297750 2298649 2293886 
2286.357 2284959 2274034 2263409 2255182 2250153 2247389 2244624 2239495 
2290.215 2230569 2217781 2203394 2189940 2180349 2176120 2176486 2179583 
2294.072 2183279 2185511 2185777 2184811 2183945 2184179 2185477 2187176 
2297.929 2188075 2187842 2186510 2184978 2184378 2185211 2187009 2188541 
2301.787 2188041 2184212 2176586 2165330 2150945 2134329 2115850 2095507 
2305.644 2073833 2051494 2029622 2009649 1992806 1979192 1968208 1958189 
2309.502 1947339 1934425 1918783 1901078 1881943 1862343 1842810 1823544 
2313.359 1804412 1785448 1766850 1748186 1729424 1709464 1686745 1660269 
2317.217 1629537 1595082 1559101 1524286 1493397 1468362 1450243 1438342 
2321.074 1431460 1427770 1424645 1418695 1406030 1382329 1343673 1287673 
2324.931 1214468 1127256 1030862 931999 836843 749641 672744 606577 550141 
2329.271 502735 464655 436296 418220 409928 409298 412880 417026 419182 
2333.611 418087 414339 409298 404390 400344 396994 393611 389897 385884 
2337.950 382900 382170 384359 389897 398453 409166 422001 437589 457158 
2342.290 482202 513981 553857 603425 665277 743335 841325 961752 1103305 
2346.629 1260058 1421953 1575495 1707635 1807008 1865171 1878782 1848766 
2350.487 1780224 1681357 1562526 1434220 1305253 1182206 1068660 965870 
2354.344 873462 790402 715555 647855 586537 531264 481704 438551 402267 
2358.684 374775 357232 351296 357232 375007 403594 441204 486580 538596 
2363.023 597121 662556 735635 816195 903145 994396 1086564 1177156 1264644 
2367.363 1349457 1433588 1520263 1612242 1711360 1817488 1929533 2045435 
2371.220 2162966 2280729 2398057 2514751 2630609 2745498 2859450 2972565 
2375.078 3085708 3200451 3317694 3438175 3561329 3685286 3807473 3925182 
2378.935 4036601 4140790 4238044 4329129 4415279 4497127 4574939 4648713 
2382.793 4718814 4785811 4850641 4914274 4977213 5039389 5100166 5158371 
2386.650 5213028 5263600 5310053 5352820 5392204 5428404 5461486 5491350 
2390.508 5518195 5542626 5565548 5588135 5611328 5635764 5661174 5687594 
2394.365 5714418 5741479 5768809 5796747 5825491 5855346 5886446 5918791 
2398.222 5952717 5988560 6026556 6066875 6109112 6152665 6196691 6240488 
2402.080 6283683 6326648 6370054 6414877 6462092 6512642 6567133 6626644 
2405.937 6691547 6762081 6838212 6918600 7001527 7084504 7165375 7242690 
2409.795 7316177 7386811 7455637 7524271 7593220 7662382 7730644 7796894 
2413.652 7860319 7920817 7978928 8035595 8091393 8146859 8201523 8255044 
2417.510 8306309 8354980 8400482 8442677 8481598 8517718 8551950 8585609 
2421.367 8620420 8657869 8699210 8744984 8794684 8847265 8902118 8958500 
2425.224 9016614 9077376 9141969 9211074 9285334 9364246 9447405 9534577 
2429.082 9625492 9720730 9820800 9926047 10036338 10151338 10270575 10394053 
2432.939 10522081 10655477 10794622 10939587 11088849 11240509 11392392 
2436.314 11542628 11690634 11836716 11982438 12129572 12279687 12433367 
2439.690 12590818 12751636 12914358 13077891 13240734 13401212 13558229 
2443.065 13710822 13858714 14002242 14142429 14280058 14415745 14549384 
2446.440 14680116 14807014 14929765 15048504 15164632 15279659 15394958 
2449.815 15510973 15627328 15742684 15855459 15964311 16069131 16170470 
2453.191 16269183 16366646 16463580 16560398 16657341 16754614 16853290 
2456.566 16953742 17057080 17163336 17272138 17382138 17491820 17599564 
2459.941 17704090 17804464 17900234 17991400 18078574 18162488 18245482 
2463.316 18329598 18417706 18512058 18614452 18725138 18843638 18968990 
2466.692 19100680 19239024 19385450 19542046 19711076 19893700 20090246 
2470.067 20300040 20521574 20753542 20994988 21245302 21504012 21770296 
2473.442 22042916 22319856 22598962 22877898 23154532 23426796 23692478 
2476.817 23949114 24194446 24425756 24640952 24838466 25017258 25176320 
2480.193 25315138 25432606 25527508 25598952 25646544 25670938 25673996 
2483.568 25657828 25625384 25579624 25523010 25458076 25387006 25311662 
2486.943 25233590 25153708 25071666 24986406 24896254 24798262 24690366 
2490.318 24570436 24437042 24289744 24128346 23953140 23764846 23564390 
2493.694 23353296 23132864 22904232 22668180 22423920 22170274 21905032 
2497.069 21626652 21334318 21028790 20712150 20387926 20060022 19732262 
2500.444 19407588 19087522 18772950 18464032 18160208 17861530 17567786 
2503.819 17279274 16996502 16720386 16451776 16192308 15943205 15705202 
2507.195 15478730 15263632 15059309 14865402 14681487 14508133 14346252 
2510.570 14196517 14059461 13934663 13820949 13716875 13621270 13533684 
2513.945 13454182 13384126 13324126 13274963 13236601 13208830 13190727 
2517.320 13181949 13181915 13190487 13206814 13230008 13258224 13290063 
2520.696 13324228 13360514 13399845 13443417 13492599 13547768 13608073 
2524.071 13671463 13735581 13797862 13856183 13909277 13956117 13995877 
2527.446 14027873 14051213 14065417 14069968 14065176 14051419 14029242 
2530.821 13998888 13960632 13914443 13860663 13800289 13734794 13666642 
2534.197 13598226 13531155 13466692 13405039 13345959 13288560 13232604 
2537.572 13177406 13122831 13068602 13014928 12961397 12908623 12856777 
2540.947 12806814 12759314 12714958 12673846 12636117 12601187 12568648 
2544.322 12538157 12508965 12480524 12451984 12422252 12390612 12356725 
2547.698 12321170 12284903 12249558 12216500 12186239 12158433 12132060 
2551.073 12105586 12078330 12050123 12021712 11994360 11969155 11947016 
2554.448 11927536 11910337 11894808 11880233 11866748 11853843 11841381 
2557.823 11829020 11815844 11801408 11785407 11768316 11750647 11732707 
2561.198 11714223 11694412 11672118 11646421 11617356 11586149 11555116 
2564.574 11526805 11502954 11483936 11469000 11456209 11443893 11431579 
2567.949 11419402 11409095 11402189 11400012 11402699 11409638 11419843 
2571.324 11432532 11447738 11465462 11486522 11511018 11538374 11567229 
2574.699 11596154 11623414 11648089 11670041 11689817 11708096 11726308 
2578.075 11745268 11766410 11790616 11818840 11851732 11888883 11929681 
2581.450 11972561 12016228 12059286 12101294 12142418 12182933 12223247 
2584.825 12263634 12304058 12344589 12385532 12428354 12474250 12525096 
2588.200 12581712 12644065 12710829 12779719 12848313 12914596 12977407 
2591.576 13036574 13092608 13146224 13198446 13250196 13301781 13354057 
2594.951 13407158 13460984 13514645 13567322 13617475 13664351 13707470 
2598.326 13747277 13785138 13822557 13860630 13900211 13941301 13983455 
2601.701 14026744 14071337 14118057 14167863 14221543 14279236 14340533 
2605.077 14404921 14471546 14540613 14612535 14688205 14768310 14853231 
2608.452 14942522 15035469 15131111 15228971 15329050 15431829 15537449 
2611.827 15646083 15756909 15869206 15981188 16091997 16200596 16306920 
2615.202 16410757 16512383 16611930 16709780 16805964 16901274 16995812 
2618.578 17089820 17183504 17276136 17366860 17454912 17539220 17619612 
2621.953 17696220 17769496 17840056 17908626 17975512 18041098 18105692 
2625.328 18169536 18233216 18297008 18361086 18425036 18488132 18549436 
2628.703 18608054 18663600 18716006 18765890 18813984 18861182 18908110 
2632.079 18954972 19001632 19047984 19093408 19137242 19179144 19218416 
2635.454 19255372 19289906 19322848 19355030 19387182 19420132 19454124 
2638.829 19489540 19526138 19563846 19603014 19643468 19685696 19729766 
2642.204 19775434 19822458 19870702 19919994 19970956 20024316 20081432 
2645.580 20142894 20209294 20280182 20354622 20431370 20509034 20586886 
2648.955 20664750 20742594 20820834 20899506 20978504 21057344 21135364 
2652.330 21211796 21286362 21358784 21429616 21499522 21569680 21641418 
2655.705 21715502 21792698 21873254 21956438 22041172 22126062 22209714 
2659.081 22291184 22370262 22446912 22521900 22595750 22669020 22741672 
2662.456 22814058 22886000 22957816 23029748 23102392 23176130 23251036 
2665.831 23327072 23403472 23479326 23553828 23626244 23696328 23764112 
2669.206 23830124 23895058 23959864 24025554 24092936 24162532 24234384 
2672.582 24308352 24383592 24459968 24537128 24615142 24694820 24776688 
2675.957 24861448 24949522 25040704 25134644 25230782 25328766 25428354 
2679.332 25529546 25632378 25736780 25842266 25948302 26054646 26161298 
2682.707 26268856 26378448 26491342 26608354 26730010 26856356 26986404 
2686.083 27119770 27255966 27394604 27535828 27679992 27827102 27976948 
2689.458 28129568 28284576 28441726 28601232 28763172 28927896 29095552 
2692.833 29266146 29439856 29616580 29796284 29979116 30164904 30353752 
2696.208 30545282 30739526 30936062 31135180 31336952 31541530 31749088 
2699.583 31959492 32172390 32387496 32604318 32822460 33042252 33263766 
2702.959 33487074 33712072 33938264 34164500 34390064 34614200 34836624 
2706.334 35057580 35277428 35496492 35715088 35932964 36149724 36365012 
2709.709 36578064 36788620 36996356 37201412 37403784 37603580 37801224 
2713.084 37997008 38191284 38384092 38575468 38764824 38951180 39133524 
2716.460 39310900 39482320 39647208 39805256 39956532 40101068 40239648 
2719.835 40373004 40502292 40629068 40755264 40882988 41014032 41150208 
2723.210 41293064 41443728 41603272 41772248 41951324 42140772 42340528 
2726.585 42550316 42769528 42997488 43233548 43476836 43726600 43981904 
2729.961 44241132 44502824 44765268 45026652 45285256 45539596 45788420 
2733.336 46030600 46264812 46490076 46705200 46909428 47102160 47283560 
2736.711 47454020 47614160 47764744 47906792 48040972 48168744 48291820 
2740.086 48411448 48529880 48648684 48769484 48893620 49022504 49157652 
2743.462 49300940 49454036 49618816 49796624 49988152 50192820 50409372 
2746.837 50635568 50868476 51104308 51339332 51568996 51788332 51993212 
2750.212 52179696 52344948 52487608 52607500 52705128 52781300 52836568 
2753.587 52870992 52884468 52876196 52845736 52792484 52715752 52614868 
2756.963 52488656 52335904 52155336 51945744 51707072 51439956 51145568 
2760.338 50825716 50482836 50119068 49737284 49340436 48932152 48516844 
2763.713 48099340 47684676 47277464 46882004 46502100 46140432 45799536 
2767.088 45481464 45188144 44921000 44681308 44469972 44287284 44132876 
2770.464 44006392 43906888 43833064 43783440 43755768 43747268 43755260 
2773.839 43776220 43806640 43843696 43884016 43925000 43963972 43998508 
2777.214 44026012 44044344 44051792 44046804 44028652 43997228 43952936 
2780.589 43896848 43830500 43755700 43675084 43591148 43506500 43423736 
2783.965 43344980 43271504 43204080 43142744 43086648 43034256 42983404 
2787.340 42931244 42874552 42809972 42734724 42646436 42544104 42427800 
2790.715 42298924 42159352 42011688 41858712 41703124 41547700 41395288 
2794.090 41248972 41111632 40986644 40876436 40783612 40710172 40657192 
2797.466 40625608 40615824 40628048 40662396 40719344 40798536 40900100 
2800.841 41023312 41167368 41331104 41512916 41711256 41924208 42149676 
2804.216 42385680 42629844 42880072 43134184 43390012 43645372 43897944 
2807.591 44145312 44385444 44615612 44833004 45035180 45218660 45380624 
2810.967 45517964 45628324 45710000 45762608 45786648 45783520 45755096 
2814.342 45703560 45631416 45540776 45434664 45316812 45191340 45063812 
2817.717 44940068 44826172 44728240 44651160 44599344 44575700 44582236 
2821.092 44619724 44687952 44785176 44909464 45057308 45225276 45408840 
2824.468 45604036 45806644 46012884 46218848 46420824 46615220 46798596 
2827.843 46968200 47121732 47258144 47378040 47483040 47575788 47660344 
2831.218 47740700 47820300 47902720 47990528 48085236 48188776 48303040 
2834.593 48429964 48572016 48731672 48911160 49112240 49336204 49584160 
2837.969 49858204 50161796 50500256 50881256 51313864 51808416 52375376 
2841.344 53024268 53764276 54604316 55553288 56621076 57818244 59154364 
2844.719 60636428 62265460 64033188 65916768 67877624 69861304 71793096 
2848.094 73588024 75156816 76408392 77269528 77688912 77644928 77148656 
2851.469 76242264 74993952 73482488 71794856 70015944 68216376 66456816 
2854.845 64783328 63225164 61800380 60515636 59368904 58351420 57450440 
2858.220 56651576 55939200 55299036 54718776 54187788 53697684 53241872 
2861.595 52814900 52412236 52030416 51665904 51316396 50980172 50656756 
2864.970 50347532 50055856 49786704 49546504 49342288 49180400 49065568 
2868.346 49000616 48985300 49017348 49091836 49201812 49339024 49493548 
2871.721 49654216 49810524 49951648 50069052 50157968 50216436 50246488 
2875.096 50253112 50243144 50222944 50199028 50175820 50156220 50142048 
2878.471 50133980 50132344 50137512 50150080 50170576 50200516 50241540 
2881.847 50295556 50364348 50448820 50548532 50661484 50784372 50912956 
2885.222 51042552 51169872 51292716 51410564 51524376 51636312 51749476 
2888.597 51867256 51993920 52133964 52292140 52473888 52684888 52931176 
2891.972 53219624 53558636 53957860 54429784 54988332 55648152 56423096 
2895.348 57322552 58349032 59493524 60734696 62036220 63345416 64602120 
2898.723 65737904 66686204 67393888 67824824 67968320 67839344 67477120 
2902.098 66939012 66287384 65588436 64900964 64270556 63733748 63314864 
2905.473 63029476 62887832 62896416 63059212 63379920 63861428 64507240 
2908.849 65321544 66308416 67471400 68810648 70321848 71991760 73796344 
2912.224 75702416 77662880 79620576 81515216 83280416 84852936 86181016 
2915.599 87222704 87954288 88370232 88482496 88315656 87902888 87282976 
2918.974 86492304 85563912 84527448 83405224 82215656 80973648 79690952 
2922.350 78379128 77049808 75714800 74387976 73084320 71817840 70602792 
2925.725 69451032 68370784 67367144 66441224 65590516 64809328 64089908 
2929.100 63422784 62797732 62204048 61632100 61072612 60518492 59963860 
2932.475 59404540 58838164 58263240 57679580 57087592 56488788 55885160 
2935.851 55279320 54674468 54074252 53482624 52903928 52343120 51805204 
2939.226 51296148 50822176 50388908 50001424 49663060 49374992 49135652 
2942.601 48941092 48784764 48657544 48549484 48448676 48343184 48221688 
2945.976 48074760 47895508 47681644 47435248 47163468 46876392 46587184 
2949.352 46309596 46055248 45834260 45652724 45513104 45414172 45352084 
2952.727 45320672 45312104 45318464 45331856 45345168 45353112 45351824 
2956.102 45338732 45312912 45274592 45224360 45163952 45095092 45020260 
2959.477 44942236 44863864 44788004 44717076 44652732 44596040 44547136 
2962.853 44505468 44470192 44440388 44414952 44393004 44374400 44359020 
2966.228 44347204 44339316 44335864 44337224 44344088 44357112 44377776 
2969.603 44408124 44451472 44511084 44590828 44693828 44821472 44973804 
2972.978 45148732 45341820 45546920 45755908 45959508 46146844 46306760 
2976.354 46428752 46503756 46526252 46494908 46413340 46289288 46133908 
2979.729 45960356 45781164 45607748 45449344 45311516 45197552 45107516 
2983.104 45039000 44986776 44943560 44900532 44847772 44775660 44676604 
2986.479 44544640 44377296 44174732 43940140 43678492 43395760 43098576 
2989.854 42792604 42482568 42172172 41863596 41558348 41257356 40961776 
2993.230 40672620 40391292 40118728 39855336 39599872 39350036 39101944 
2996.605 38851236 38593972 38327052 38049336 37761176 37464608 37162356 
2999.980 36857472 36552904 36250996 35953876 35663320 35381160 35108700 
3003.355 34847004 34596836 34358004 34129588 33910640 33699684 33495736 
3006.731 33298038 33106792 32922316 32745350 32576456 32415916 32263246 
3010.106 32117620 31977326 31840816 31706348 31572956 31440172 31308248 
3013.481 31177756 31049864 30925390 30804614 30687924 30575214 30466300 
3016.856 30361180 30260348 30163838 30072604 29987034 29907372 29833760 
3020.232 29766264 29704488 29648292 29597354 29551244 29509784 29473010 
3023.607 29440954 29414396 29394402 29382276 29379580 29387628 29407200 
3026.982 29439004 29482372 29535816 29596892 29662056 29726130 29783472 
3030.357 29828080 29854486 29858604 29838834 29795822 29732624 29653436 
3033.733 29563302 29466662 29367102 29267420 29169290 29073552 28980880 
3037.108 28891560 28805126 28721186 28639206 28558804 28480004 28403272 
3040.483 28329666 28260140 28195574 28136214 28081812 28031976 27986278 
3043.858 27945004 27908504 27877304 27851762 27831378 27815128 27801528 
3047.234 27789022 27776732 27764686 27753736 27744730 27739078 27736996 
3050.609 27738548 27743176 27750558 27760518 27773234 27789658 27810324 
3053.984 27835582 27865646 27899704 27937266 27977126 28018546 28060640 
3057.359 28102880 28144558 28185888 28227114 28268910 28312548 28359236 
3060.735 28409642 28464368 28523030 28585024 28649542 28716370 28785652 
3064.110 28858024 28934766 29016090 29102568 29193670 29288052 29384120 
3067.485 29479890 29572948 29661382 29742914 29815908 29879154 29932008 
3070.860 29975070 30009792 30038268 30062872 30086168 30110140 30136028 
3074.236 30164832 30196906 30232354 30271326 30313070 30356952 30401760 
3077.611 30446398 30489652 30530778 30569526 30606072 30640916 30674946 
3080.986 30708870 30743652 30779608 30817454 30857080 30898242 30940332 
3084.361 30982640 31024346 31065630 31107060 31150380 31197550 31250566 
3087.737 31310956 31378836 31453352 31532622 31614468 31696904 31778674 
3091.112 31859144 31938236 32016382 32093930 32171282 32248362 32325704 
3094.487 32403562 32482288 32562782 32645144 32729704 32817066 32907556 
3097.862 33001282 33099000 33200562 33305336 33412456 33520504 33627964 
3101.238 33733988 33838208 33940732 34042352 34143672 34244908 34346128 
3104.613 34446876 34547068 34646640 34746164 34845960 34946820 35049068 
3107.988 35152204 35256228 35360636 35465280 35570564 35676560 35783692 
3111.363 35891788 36000528 36109292 36218008 36326644 36436028 36546488 
3114.739 36658628 36772064 36886072 36999600 37111720 37221772 37330012 
3118.114 37437048 37543212 37648892 37753476 37856280 37956616 38054328 
3121.489 38150152 38245268 38341528 38440456 38543056 38649564 38759788 
3124.864 38873048 38988588 39105928 39224500 39343764 39463016 39581324 
3128.240 39698144 39812844 39925544 40036712 40146892 40256804 40366860 
3131.615 40477628 40588976 40700932 40813500 40926820 41040616 41154944 
3134.990 41269560 41384316 41499356 41615084 41731940 41850428 41971064 
3138.365 42093892 42218620 42344580 42471568 42599180 42727776 42857584 
3141.740 42988892 43121556 43255324 43389096 43521704 43652404 43780692 
3145.116 43906632 44031256 44155728 44281560 44410292 44542876 44679728 
3148.491 44820552 44964104 45108364 45251200 45390408 45524288 45652360 
3151.866 45775052 45893620 46010008 46126096 46243544 46363384 46486240 
3155.241 46611828 46739848 46869788 47000656 47131488 47261652 47390456 
3158.617 47518188 47645552 47773840 47904424 48038528 48176556 48318188 
3161.992 48461900 48605736 48747988 48887392 49023464 49156800 49288360 
3165.367 49419252 49550292 49682004 49813796 49945252 50075264 50203080 
3168.742 50328556 50452168 50574852 50698124 50823292 50950884 51080864 
3172.118 51212260 51343248 51472560 51598848 51721816 51842132 51960908 
3175.493 52079236 52198040 52317368 52436688 52555440 52672920 52788856 
3178.868 52903476 53016972 53129444 53240708 53350504 53458828 53566096 
3182.243 53673308 53781752 53892512 54006148 54122144 54239260 54356100 
3185.619 54471476 54585452 54698448 54812260 54927868 55045988 55166324 
3188.994 55287896 55409016 55528436 55645516 55759916 55872008 55982244 
3192.369 56091036 56198352 56304636 56410004 56515052 56620396 56726784 
3195.744 56834520 56943604 57053396 57163820 57273892 57383048 57490944 
3199.120 57596940 57700504 57801096 57898196 57992024 58082916 58171968 
3202.495 58260132 58348692 58438824 58530872 58625668 58723216 58823212 
3205.870 58924944 59026960 59127788 59225260 59318080 59405944 59490220 
3209.245 59573288 59658012 59747316 59842376 59942292 60044624 60146224 
3212.621 60243732 60335440 60421452 60503064 60582712 60662716 60744760 
3215.996 60829216 60915856 61003668 61091680 61179564 61267004 61354232 
3219.371 61441476 61529236 61617972 61708328 61800764 61895780 61993376 
3222.746 62093024 62193648 62294220 62393396 62490456 62585280 62678016 
3226.122 62769472 62860684 62952520 63045724 63141168 63239000 63339168 
3229.497 63441380 63544736 63648076 63750632 63851988 63952252 64052200 
3232.872 64152740 64254268 64356776 64459576 64561600 64661608 64759404 
3236.247 64855144 64950028 65045268 65141804 65240100 65340496 65442836 
3239.623 65547092 65653800 65763348 65875740 65990360 66105628 66219336 
3242.998 66330040 66436700 66539884 66641740 66745124 66852548 66965768 
3246.373 67085392 67210504 67339752 67471896 67605760 67740856 67877080 
3249.748 68013424 68149072 68282712 68413248 68540296 68664160 68786112 
3253.124 68907920 69030984 69156192 69283696 69412784 69542488 69671856 
3256.499 69800240 69927616 70054208 70180888 70307664 70435080 70562448 
3259.874 70688792 70812688 70932744 71047848 71157368 71261984 71362728 
3263.249 71461848 71561232 71662472 71766120 71871752 71978072 72083120 
3266.625 72185504 72284144 72378944 72470464 72559936 72648720 72738032 
3270.000 72828616 72920544 73013208 73105296 73195408 73282160 73365168 
3273.375 73444656 73522320 73600352 73680792 73765168 73853808 73945832 
3276.750 74039736 74134400 74229008 74324344 74421592 74522128 74626496 
3280.125 74734408 74844336 74954496 75063304 75170560 75277176 75384576 
3283.501 75494592 75608352 75725880 75847072 75970944 76097184 76226184 
3286.876 76358544 76495080 76636616 76782496 76932504 77085928 77242096 
3290.251 77401368 77564352 77731432 77903416 78080464 78262536 78449536 
3293.626 78641736 78839824 79044320 79255952 79474488 79699904 79931656 
3297.002 80169344 80413224 80663896 80922152 81188456 81462688 81743768 
3300.377 82030472 82321536 82616200 82914272 83216040 83521952 83832464 
3303.752 84147944 84468840 84795976 85130784 85474512 85828360 86192736 
3307.127 86566592 86948416 87336248 87728768 88125824 88528520 88938672 
3310.503 89357520 89785680 90222672 90666640 91115960 91569024 92025712 
3313.878 92486360 92951648 93422120 93898080 94379000 94864424 95354056 
3317.253 95847840 96345696 96847648 97352704 97859848 98367416 98873448 
3320.628 99377128 99877672 100375040 100869376 101360776 101849752 102336584 
3324.004 102822464 103308080 103794208 104279952 104763704 105242680 
3326.897 105713008 106171912 106617672 107049976 107469176 107876176 
3329.790 108270280 108650192 109013144 109356072 109676792 109974224 
3332.683 110247824 110497144 110720952 110916608 111081792 111214680 
3335.576 111315584 111387384 111435056 111463624 111476856 111475264 
3338.469 111456344 111415312 111347136 111247088 111112992 110944328 
3341.362 110741696 110506376 110238936 109939144 109607192 109243224 
3344.255 108847720 108421192 107964104 107476696 106958712 106410224 
3347.148 105832424 105227480 104599008 103950096 103284256 102603608 
3350.041 101909200 101201712 100481728 99750752 99010728 98264488 97514008 
3353.417 96761144 96006768 95251304 94495552 93740944 92989568 92243808 
3356.792 91505984 90777496 90059280 89351816 88655744 87972672 87304808 
3360.167 86654640 86024624 85416224 84829088 84262056 83712520 83177832 
3363.542 82654880 82141352 81635472 81135936 80643112 80158304 79684256 
3366.917 79224776 78783800 78364200 77967000 77591048 77232960 76888168 
3370.293 76551872 76220736 75892496 75566624 75242984 74920872 74599032 
3373.668 74274696 73944192 73604120 73252000 72886680 72508832 72120520 
3377.043 71724344 71322976 70918704 70512320 70103744 69691344 69272656 
3380.418 68845168 68406544 67955032 67490288 67012852 66523784 66024728 
3383.794 65517040 65002092 64480720 63954332 63423976 62891200 62357592 
3387.169 61824332 61292640 60763392 60237264 59714960 59197960 58687448 
3390.544 58184772 57690816 57205472 56728216 56257448 55791672 55329444 
3393.919 54869364 54410480 53952384 53494356 53035952 52577768 52120776 
3397.295 51667028 51219532 50781504 50355456 49942316 49541192 49149192 
3400.670 48762184 48375740 47986460 47592276 47193316 46791104 46388416 
3404.045 45988092 45592444 45203216 44820552 44444020 44072180 43703664 
3407.420 43336736 42970344 42604260 42238664 41874436 41513212 41156436 
3410.796 40805600 40461408 40124284 39793852 39469516 39150564 38836124 
3414.171 38525572 38218384 37914056 37612432 37313616 37018004 36726160 
3417.546 36439092 36157688 35882544 35613508 35350104 35090412 34832676 
3420.921 34574912 34316080 34056040 33795620 33536502 33280686 33029738 
3424.297 32784798 32545994 32312748 32084194 31859856 31639024 31421508 
3427.672 31207128 30995698 30786794 30579622 30373580 30168028 29963318 
3431.047 29759982 29558904 29361004 29166914 28975888 28787494 28600312 
3434.422 28413638 28226760 28039856 27853882 27669682 27487888 27308750 
3437.798 27132150 26957316 26783468 26609620 26435032 26259142 26081878 
3441.173 25903598 25724934 25547116 25371586 25199740 25032350 24869202 
3444.548 24708920 24549470 24388918 24225276 24058366 23889176 23719878 
3447.923 23553128 23390498 23233314 23081110 22932944 22787588 22644478 
3451.299 22503196 22363668 22226104 22089664 21953162 21814996 21674122 
3454.674 21530056 21383704 21236534 21090458 20946550 20805296 20665792 
3458.049 20526888 20387370 20247028 20105828 19965370 19826620 19690342 
3461.424 19556706 19425122 19294478 19164218 19034068 18904372 18776410 
3464.800 18650664 18528170 18409100 18293068 18179624 18067764 17956658 
3468.175 17845270 17732772 17618402 17502204 17384828 17267448 17151340 
3471.550 17037540 16926662 16818192 16711432 16604941 16498614 16392693 
3474.925 16289031 16189832 16096741 16010478 15930247 15853431 15777249 
3478.301 15698709 15615444 15527249 15434541 15338798 15241531 15144149 
3481.676 15047749 14953153 14861253 14773075 14689713 14611609 14538660 
3485.051 14470209 14404545 14340533 14277251 14215175 14154991 14098478 
3488.426 14046079 13997656 13951121 13903701 13852865 13797007 13736573 
3491.802 13674472 13614602 13561066 13516901 13482448 13455721 13433028 
3495.177 13409960 13383511 13352826 13319787 13288082 13262016 13245004 
3498.552 13238616 13241793 13251870 13265364 13278892 13290747 13300996 
3501.927 13311245 13324160 13342815 13368955 13403946 13447689 13498990 
3505.302 13556553 13618876 13684525 13752647 13822899 13895352 13970658 
3508.678 14049913 14134282 14224659 14321595 14424719 14533691 14647216 
3512.053 14764402 14884227 15005833 15128915 15252547 15375459 15496482 
3515.428 15613761 15726227 15833018 15934130 16030109 16121740 16209092 
3518.803 16292162 16369984 16440798 16502745 16553927 16592273 16615855 
3522.179 16623085 16612343 16582670 16533583 16466161 16381063 16279675 
3525.554 16162664 16030349 15881991 15717605 15537621 15343810 15138831 
3528.929 14926095 14708735 14488434 14266396 14042760 13817460 13590978 
3532.304 13364512 13138950 12914664 12691382 12467464 12241310 12011221 
3535.680 11777848 11542151 11307194 11075729 10849517 10629297 10415026 
3539.055 10205678 10001075 9801652 9608181 9422246 9244175 9073688 8909254 
3542.912 8749209 8592097 8436595 8282365 8128763 7975283 7820812 7664068 
3546.770 7504449 7342899 7181646 7023583 6871975 6728899 6594684 6468347 
3550.627 6347426 6229362 6111969 5994002 5875027 5755614 5636737 5519504 
3554.485 5404953 5294557 5189555 5091115 4999166 4913436 4832146 4753384 
3558.342 4675339 4597107 4518655 4440284 4362697 4285993 4210207 4134568 
3562.199 4059778 3986907 3918294 3856579 3802928 3755834 3710783 3659823 
3566.057 3593668 3505175 3391521 3256131 3107733 2958386 2819062 2697318 
3569.914 2596275 2514851 2449103 2393426 2342054 2289756 2233367 2170892 
3573.772 2102598 2030621 1957624 1887068 1821381 1761893 1708300 1658606 
3577.629 1610380 1561196 1509456 1454997 1399116 1343507 1290365 1241283 
3581.487 1197556 1159747 1128120 1102741 1082877 1067697 1055075 1042155 
3585.344 1024419 997219 956107 897965 822336 732282 633753 534316 441370 
3589.684 360548 294628 243271 204054 172629 143891 113333 78170 37443 -7720 
3594.505 -53905 -97469 -134933 -164048 -183855 -195546 -201507 -205283 
3598.363 -211277 -223961 -247440 -284097 -334260 -395672 -463893 -533064 
3602.220 -597591 -652978 -696845 -728073 -747258 -755362 -754039 -745339 
3606.078 -732671 -720994 -715569 -722648 -745802 -785559 -838309 -897270 
3609.935 -955527 -1007860 -1052188 -1089768 -1123909 -1157055 -1189934 
3613.310 -1220730 -1245972 -1262062 -1268537 -1267249 -1263218 -1262987 
3616.686 -1272238 -1294603 -1330775 -1379231 -1435939 -1496799 -1558542 
3620.061 -1619253 -1677315 -1731772 -1781008 -1823343 -1856898 -1879959 
3623.436 -1891308 -1890219 -1876363 -1850069 -1812884 -1768601 -1723026 
3626.811 -1684840 -1664739 -1672430 -1713521 -1785463 -1877023 -1971334 
3630.187 -2054347 -2118880 -2165600 -2200513 -2231006 -2262848 -2298182 
3633.562 -2334798 -2367226 -2390128 -2399091 -2393687 -2377178 -2355230 
3636.937 -2334172 -2318682 -2311629 -2312815 -2320198 -2330876 -2342345 
3640.312 -2352594 -2360800 -2366501 -2369697 -2369598 -2365743 -2356878 
3643.688 -2342477 -2322175 -2296468 -2266441 -2233808 -2201040 -2171270 
3647.063 -2148192 -2136289 -2140707 -2165501 -2213666 -2284273 -2372235 
3650.438 -2467724 -2558481 -2633181 -2682810 -2703950 -2697826 -2670494 
3653.813 -2630382 -2587302 -2551432 -2530383 -2528143 -2543955 -2572579 
3657.188 -2606834 -2639735 -2667168 -2687420 -2701480 -2711063 -2718669 
3660.564 -2726637 -2736417 -2749389 -2766049 -2785605 -2806675 -2826756 
3663.939 -2842425 -2850161 -2846441 -2829159 -2797589 -2752517 -2696936 
3667.314 -2635190 -2572941 -2515790 -2468152 -2431316 -2401068 -2367885 
3670.689 -2319143 -2241818 -2126661 -1969784 -1773188 -1544543 -1297180 
3674.065 -1053510 -844196 -702138 -655757 -714543 -866947 -1085835 -1342502 
3677.922 -1612585 -1877881 -2126035 -2347189 -2533776 -2682480 -2794527 
3681.297 -2875440 -2933565 -2977466 -3012643 -3041894 -3063906 -3076342 
3684.673 -3076869 -3065485 -3044527 -3018204 -2992143 -2971674 -2961078 
3688.048 -2962625 -2976413 -3000929 -3032846 -3068874 -3106215 -3141841 
3691.423 -3173814 -3200457 -3221342 -3236800 -3247948 -3256072 -3262254 
3694.798 -3266858 -3269785 -3270410 -3267845 -3261465 -3251106 -3236635 
3698.174 -3218777 -3197990 -3175788 -3154276 -3136381 -3125492 -3124604 
3701.549 -3135262 -3156743 -3185985 -3218448 -3248968 -3273501 -3289023 
3704.924 -3294087 -3288595 -3272942 -3248113 -3215849 -3178222 -3138223 
3708.299 -3099273 -3065715 -3040907 -3027647 -3027351 -3038802 -3060155 
3711.675 -3087429 -3116479 -3143256 -3164341 -3177235 -3181511 -3177663 
3715.050 -3167532 -3154111 -3141217 -3132631 -3131151 -3138322 -3153848 
3718.425 -3175656 -3200424 -3224993 -3246567 -3263274 -3274718 -3280999 
3721.800 -3282742 -3281262 -3277875 -3274586 -3273896 -3278335 -3290239 
3725.176 -3310528 -3338280 -3370896 -3403115 -3428692 -3442104 -3439540 
3728.551 -3420013 -3385296 -3339365 -3287839 -3235945 -3188550 -3148618 
3731.926 -3116446 -3090785 -3069828 -3053147 -3042980 -3043441 -3059069 
3735.301 -3092496 -3141315 -3198812 -3254723 -3299381 -3327035 -3336176 
3738.677 -3328975 -3308950 -3279355 -3241733 -3196411 -3143486 -3083942 
3742.052 -3022251 -2966047 -2924876 -2909079 -2923593 -2963579 -3014354 
3745.427 -3058313 -3083087 -3085554 -3069466 -3042520 -3014255 -2991353 
3748.802 -2978289 -2976281 -2984015 -2998658 -3018401 -3042256 -3069828 
3752.177 -3099470 -3127894 -3150625 -3163453 -3164539 -3154078 -3134539 
3755.553 -3109669 -3083087 -3058346 -3037518 -3022317 -3014354 -3014551 
3758.928 -3024160 -3042421 -3067097 -3093318 -3115294 -3128058 -3128091 
3762.303 -3116347 -3096148 -3072888 -3052292 -3038078 -3031300 -3029918 
3765.678 -3029358 -3025180 -3014847 -2998592 -2979704 -2962625 -2952949 
3769.054 -2954331 -2968383 -2993327 -3025147 -3058806 -3089206 -3112991 
3772.429 -3128881 -3136841 -3138552 -3135394 -3129045 -3120327 -3109439 
3775.804 -3096082 -3079928 -3061965 -3043638 -3027614 -3016460 -3012347 
3779.179 -3015374 -3023600 -3033998 -3043079 -3048442 -3049298 -3046797 
3782.555 -3042816 -3038769 -3035577 -3032813 -3028996 -3023172 -3014847 
3785.930 -3004713 -2994709 -2986976 -2983126 -2983916 -2988984 -2997177 
3789.305 -3006950 -3016921 -3025969 -3033405 -3038341 -3040085 -3037617 
3792.680 -3030642 -3019322 -3005239 -2990267 -2976874 -2966771 -2960617 
3796.056 -2956701 -2951929 -2942418 -2924712 -2897822 -2862735 -2823398 
3799.431 -2786296 -2758641 -2747578 -2756665 -2784321 -2822114 -2858620 
3802.806 -2882945 -2888837 -2875704 -2847922 -2813950 -2782510 -2762658 
3806.181 -2760386 -2776848 -2808024 -2845684 -2881365 -2909144 -2926917 
3809.557 -2935605 -2937383 -2934322 -2927378 -2915859 -2899007 -2876164 
3812.932 -2847988 -2817703 -2788831 -2766608 -2754920 -2754426 -2761604 
3816.307 -2769506 -2769736 -2755710 -2725518 -2682349 -2633313 -2588323 
3819.682 -2558844 -2554397 -2579990 -2632588 -2700558 -2769341 -2825505 
3823.058 -2861616 -2877152 -2877053 -2868594 -2859048 -2853946 -2856152 
3826.433 -2865204 -2878172 -2890877 -2900028 -2903747 -2901739 -2894827 
3829.808 -2884130 -2870371 -2853222 -2831792 -2804996 -2772173 -2733585 
3833.183 -2690779 -2646519 -2604792 -2569680 -2545107 -2534237 -2538454 
3836.559 -2556768 -2585952 -2621095 -2656926 -2688408 -2713170 -2731115 
3839.934 -2743726 -2753044 -2761472 -2770888 -2782675 -2798247 -2819118 
3843.309 -2845618 -2877317 -2911712 -2944524 -2970522 -2984574 -2982863 
3846.684 -2964105 -2929550 -2881925 -2824879 -2761472 -2693874 -2623532 
3850.060 -2551992 -2482022 -2419685 -2373652 -2355758 -2375926 -2438071 
3853.435 -2534435 -2646585 -2752682 -2835644 -2889594 -2916681 -2923593 
3856.810 -2917372 -2903319 -2884360 -2861352 -2834294 -2803448 -2769440 
3860.185 -2734111 -2700394 -2670494 -2646947 -2630975 -2624092 -2626298 
3863.561 -2637562 -2656564 -2679813 -2702666 -2719492 -2725715 -2719525 
3866.936 -2702238 -2678990 -2655839 -2639669 -2634828 -2641645 -2655675 
3870.311 -2669078 -2675763 -2672963 -2663776 -2655214 -2655675 -2671745 
3873.686 -2705399 -2753241 -2806576 -2854868 -2888870 -2903319 -2898744 
3877.062 -2879719 -2852267 -2823299 -2797819 -2779218 -2767069 -2759168 
3880.437 -2751496 -2739972 -2721698 -2696113 -2664731 -2631304 -2600576 
3883.812 -2578244 -2569285 -2576696 -2599752 -2632984 -2668650 -2697760 
3887.187 -2714092 -2715870 -2705695 -2688243 -2670033 -2657189 -2653666 
3890.563 -2660977 -2677244 -2698254 -2718471 -2733420 -2740466 -2738622 
3893.938 -2728086 -2710009 -2685740 -2656465 -2623795 -2589245 -2555121 
3897.313 -2523169 -2495200 -2472402 -2454973 -2442091 -2432832 -2425550 
3900.688 -2420147 -2416818 -2417082 -2422881 -2436424 -2459125 -2490687 
3904.063 -2529032 -2570603 -2610753 -2645334 -2671021 -2686136 -2690779 
3907.439 -2686037 -2674248 -2657650 -2638813 -2619909 -2602750 -2588224 
3910.814 -2576795 -2567935 -2560425 -2552848 -2543493 -2530976 -2515328 
3914.189 -2497341 -2479090 -2463803 -2454281 -2452535 -2459388 -2473292 
3917.564 -2491411 -2510189 -2526463 -2537268 -2541682 -2538915 -2529296 
3920.940 -2513912 -2494607 -2473588 -2454084 -2439685 -2433096 -2436061 
3924.315 -2447955 -2466175 -2486371 -2503798 -2514505 -2516844 -2510914 
3927.690 -2498264 -2481198 -2462024 -2441992 -2422058 -2403012 -2385449 
3931.065 -2371444 -2362480 -2359745 -2363634 -2372531 -2384230 -2395994 
3934.441 -2405879 -2413194 -2418664 -2423705 -2429537 -2436522 -2443771 
3937.816 -2449141 -2450163 -2445320 -2434414 -2418730 -2401002 -2384329 
3941.191 -2371444 -2363766 -2361096 -2361821 -2363667 -2364556 -2362843 
3944.566 -2358460 -2352100 -2344981 -2338456 -2333875 -2331436 -2331173 
3947.942 -2332458 -2334567 -2337204 -2340137 -2343531 -2347651 -2352133 
3951.317 -2356252 -2358625 -2357801 -2352825 -2343268 -2330217 -2315617 
3954.692 -2301972 -2291722 -2286217 -2285723 -2289052 -2294260 -2298841 
3958.067 -2300950 -2299039 -2292678 -2282559 -2269902 -2256552 -2244356 
3961.443 -2234764 -2228896 -2227149 -2228533 -2232193 -2236016 -2238423 
3964.818 -2237796 -2233709 -2226325 -2216501 -2205425 -2194480 -2184491 
3968.193 -2176018 -2169292 -2164116 -2160654 -2158083 -2156467 -2155082 
3971.568 -2153533 -2151291 -2147631 -2142554 -2135828 -2127716 -2118451 
3974.944 -2108526 -2098173 -2087588 -2077332 -2067604 -2058535 -2050588 
3978.319 -2044124 -2039408 -2037001 -2037363 -2041123 -2048378 -2058898 
3981.694 -2071891 -2085081 -2096260 -2103481 -2105064 -2100678 -2091446 
3985.069 -2078981 -2065659 -2053391 -2043531 -2036935 -2033736 -2033373 
3988.445 -2035352 -2039013 -2043531 -2048016 -2051379 -2053160 -2053391 
3991.820 -2052402 -2051742 -2052303 -2054776 -2058700 -2062460 -2064240 
3995.195 -2062097 -2055601 -2045773 -2034989 -2026184 -2021698 -2023347 
3998.570 -2030339 -2040958 -2053061 -2064307 -2072847 
##END=
