
##TITLE=Z413_2_a
##JCAMP-DX=5.01  $$ Nicolet v. 1
##DATATYPE=INFRARED SPECTRUM
##ORIGIN=UniL
##OWNER=Nicolet
##LONGDATE=2011/09/21
##TIME=15:17:22
##SPECTROMETER/DATA SYSTEM=Nicolet iS5
##DATA PROCESSING=
Ratio against background
%Transmittance->Absorbance
Truncated
ElementMultiply or ElementDivide
##COMMENTS=
Number of sample scans: 32
Collection length: 51.21 sec
Sample gain: 2.0
Background collected on: Mer Sep 21 15:15:46 2011 (GMT+02:00);
Number of background scans: 32
Background gain: 2.0
Sample spacing:  1.000
Number of scan points: 12415
Resolution points: 8192
Number of FFT points: 65536
Apodization: N-B fort;
Phase correction: Mertz;
Laser frequency: 15798.0 cm-1
Number of rejected sample scans: 0
Number of rejected background scans: 0
Bench serial number: ASB1000141;
##RESOLUTION=4.000
##XUNITS=1/CM
##YUNITS=ABSORBANCE
##FIRSTX=649.893372
##LASTX=4000.122314
##FIRSTY=0.109213
##MAXX=4000.122314
##MINX=649.893372
##MAXY=0.257374
##MINY=-0.005450
##XFACTOR=1.000000
##YFACTOR=1.000000E-009
##NPOINTS=6950
##DELTAX=0.482117
##ZPD=6100
##XYDATA=(X++(Y..Y))
649.893 109212848 108715088 108338440 108094264 107961088 107905392 
652.786 107895840 107922736 107996192 108139016 108367864 108681176 
655.679 109057352 109466184 109881792 110297240 110726688 111195720 
658.571 111726928 112325768 112978248 113657112 114339496 115013880 
661.464 115686472 116372048 117081056 117808040 118530240 119210168 
664.357 119809120 120294848 120638232 120814944 120803784 120598376 
667.250 120226536 119769872 119346792 119049624 118903680 118857760 
670.142 118822264 118698264 118406192 117904664 117193832 116316520 
673.035 115337040 114324752 113325528 112353960 111402592 110458472 
675.928 109518832 108596664 107713984 106887760 106120216 105394864 
678.820 104685272 103966512 103229240 102480000 101738288 101022680 
681.713 100343192 99696896 99072992 98460176 97855112 97263072 96695440 
685.088 96160304 95658112 95179440 94711304 94242936 93772808 93308408 
688.463 92861816 92444176 92058720 91700976 91362504 91037456 90726696 
691.838 90438360 90183232 89969312 89797336 89660696 89549392 89456392 
695.212 89381816 89334272 89327560 89373632 89480376 89648032 89872760 
698.587 90148904 90473944 90847208 91268144 91732248 92228400 92738408 
701.962 93243344 93727536 94182800 94610680 95017424 95408736 95784664 
705.337 96138304 96458544 96736584 96970072 97165592 97335496 97493768 
708.712 97649984 97809040 97973432 98147800 98343640 98579616 98876448 
712.086 99248024 99695888 100203856 100740416 101264128 101736736 102128672 
715.461 102423872 102620352 102725952 102754496 102722176 102650152 
718.354 102565424 102499296 102488808 102569584 102765160 103081384 
721.247 103496008 103958936 104389872 104693656 104776648 104558032 
724.139 103995984 103096968 101921048 100567344 99158040 97815104 96625776 
727.514 95639112 94861080 94266728 93814800 93464312 93186640 92964248 
730.889 92787640 92650056 92541384 92449136 92362160 92274128 92186000 
734.264 92104472 92037464 91988688 91955968 91931600 91907896 91880592 
737.639 91852264 91829336 91820208 91829176 91854792 91891024 91930584 
741.013 91969480 92008064 92050368 92100336 92158456 92221104 92282200 
744.388 92336744 92384288 92429336 92478736 92536960 92602032 92665072 
747.763 92714120 92739392 92737872 92716088 92686312 92661864 92650216 
751.138 92651168 92657440 92661128 92657112 92647144 92637960 92637464 
754.513 92649112 92670608 92693448 92707640 92707112 92691152 92665152 
757.888 92636480 92611424 92591528 92575824 92561768 92549544 92543360 
761.262 92549832 92574312 92619216 92681432 92755104 92835840 92924648 
764.637 93031280 93175136 93382720 93680056 94091848 94631168 95294256 
768.012 96052520 96849056 97602280 98205584 98554256 98565144 98197896 
771.387 97473616 96474184 95330656 94180368 93143560 92295768 91652528 
774.762 91179512 90809304 90470752 90100872 89657560 89120480 88478312 
778.136 87722400 86841808 85823320 84657160 83342072 81887496 80311952 
781.511 78639312 76897816 75115848 73323312 71553768 69839072 68209320 
784.886 66688636 65291232 64022168 62879676 61857800 60950936 60154672 
788.261 59465672 58880428 58393452 57997704 57685216 57449912 57288788 
791.636 57203352 57197908 57277596 57447488 57711440 58071892 58531516 
795.010 59093848 59761836 60537272 61419380 62404260 63487516 64668528 
798.385 65954448 67366016 68934200 70698736 72695840 74942448 77420544 
801.760 80061640 82746512 85292448 87482240 89097656 89937560 89876632 
805.135 88889800 87067312 84596000 81725008 78721640 75793416 73065736 
808.510 70564272 68231688 65963128 63652216 61236632 58711188 56130704 
811.885 53582176 51166144 48964936 47025652 45363228 43963164 42794904 
815.259 41820184 41002960 40313444 39725916 39220948 38783444 38402840 
818.634 38072776 37789836 37552132 37357384 37202460 37083244 36996828 
822.009 36941916 36919728 36932716 36982828 37069572 37189464 37337160 
825.384 37507228 37696880 37906752 38140020 38400996 38693240 39018528 
828.759 39377572 39772900 40210824 40703840 41272508 41942492 42744080 
832.133 43709196 44862284 46215572 47756496 49440520 51178484 52836192 
835.508 54255776 55258620 55688340 55447904 54514560 52956252 50910612 
838.883 48570788 46134572 43772520 41619460 39750820 38193420 36937008 
842.258 35949340 35188528 34611328 34181416 33867152 33642180 33487216 
845.633 33387158 33331450 33313562 33328448 33370520 33434070 33511986 
849.008 33598392 33689908 33786668 33891580 34009384 34144316 34298904 
852.382 34473776 34668532 34883012 35118580 35377852 35664116 35980116 
855.757 36327472 36706980 37119876 37569220 38060116 38600488 39200168 
859.132 39869356 40620592 41468588 42429772 43524704 44772024 46183212 
862.507 47754204 49457380 51237720 53008208 54666652 56105140 57224524 
865.882 57959988 58287872 58234896 57871052 57305044 56668716 56087456 
869.256 55677456 55527756 55690412 56187980 57012964 58135792 59505608 
872.631 61054956 62704280 64353356 65893404 67214480 68208352 68793880 
876.006 68925464 68600904 67861152 66783024 65469496 64024248 62547280 
879.381 61120972 59797356 58601888 57532176 56567024 55673276 54819212 
882.756 53984724 53165768 52376536 51643476 51000776 50478408 50096796 
886.131 49864300 49777152 49823792 49988596 50257312 50617996 51061448 
889.505 51581720 52173492 52834096 53563208 54364180 55244096 56212308 
892.880 57279564 58455880 59749140 61164456 62703052 64359696 66117352 
896.255 67941472 69776624 71538376 73123648 74422656 75326952 75758384 
899.630 75679104 75098280 74068344 72677904 71039968 69267640 67471400 
903.005 65748044 64167640 62780768 61616024 60683256 59980904 59499340 
906.379 59226664 59150720 59260616 59548208 60006620 60631096 61418424 
909.754 62367272 63478232 64752212 66186616 67772960 69491320 71307088 
913.129 73175720 75043456 76855256 78568112 80154080 81607160 82942272 
916.504 84193472 85406344 86625312 87889096 89214712 90589568 91961952 
919.879 93242688 94317112 95050376 95324256 95061432 94246560 92942416 
923.254 91289520 89501792 87820464 86498128 85763448 85767368 86571888 
926.628 88122328 90259424 92718968 95172592 97300840 98809800 99500152 
930.003 99293832 98222616 96407288 94008736 91202896 88139256 84931408 
933.378 81669384 78420440 75244752 72206392 69366912 66785776 64515852 
936.753 62594004 61043704 59875272 59088304 58673644 58612052 58873864 
940.128 59410276 60152580 61018460 61908348 62721812 63373400 63794920 
943.502 63950836 63840360 63495800 62973744 62344936 61685908 61062088 
946.877 60522640 60099072 59802788 59631708 59574356 59616732 59743892 
950.252 59941684 60197372 60497392 60828260 61178072 61536988 61900020 
953.627 62266876 62641120 63027984 63431716 63855140 64298756 64762444 
957.002 65246568 65752244 66281088 66833728 67408856 68002928 68610880 
960.377 69228472 69853440 70486168 71129144 71785424 72456608 73142784 
963.751 73842608 74554624 75278680 76016336 76769608 77540536 78329640 
967.126 79136032 79958936 80798848 81659184 82545512 83464408 84421152 
970.501 85418160 86455464 87531856 88647656 89805848 91012704 92275688 
973.876 93601624 94994504 96454864 97981728 99574152 101233128 102961584 
977.251 104762984 106638976 108588320 110607152 112690728 114836792 
980.143 117046872 119326032 121680088 124111968 126619104 129193064 
983.036 131819768 134480192 137152160 139804064 142389488 144847808 
985.929 147096192 149038368 150581824 151643504 152169216 152143152 
988.821 151588832 150566640 149163824 147495312 145686640 143863216 
991.714 142150688 140651440 139440672 138565616 138041312 137858912 
994.607 137994336 138419248 139105936 140030416 141173488 142515664 
997.500 144035152 145709392 147514016 149425264 151421952 153479008 
1000.392 155564096 157635024 159632864 161489728 163139184 164520128 
1003.285 165593056 166343088 166780896 166939712 166872256 166651024 
1006.178 166356752 166080352 165916624 165946336 166236336 166830368 
1009.070 167745472 168978960 170514352 172331168 174406896 176720048 
1011.963 179248848 181964176 184830928 187811904 190867328 193964368 
1014.856 197075264 200169552 203206864 206126496 208837904 211235808 
1017.748 213207952 214655824 215522672 215802848 215552832 214879952 
1020.641 213944272 212941248 212067696 211525104 211485200 212065664 
1023.534 213331712 215283328 217866768 220981728 224506384 228316592 
1026.427 232283680 236291376 240228528 243977728 247427088 250469856 
1029.320 253013200 254995344 256383744 257173008 257373632 257002896 
1032.213 256078720 254619248 252648800 250200992 247315680 244037616 
1035.106 240407680 236459696 232227088 227749008 223078768 218293168 
1037.999 213484336 208750064 204190016 199885376 195899568 192279344 
1040.892 189049920 186218176 183766480 181650976 179794096 178086320 
1043.785 176408528 174637616 172675328 170471568 168028336 165401760 
1046.678 162683008 159991712 157448992 155160096 153215344 151675072 
1049.571 150569504 149901872 149649216 149768896 150202624 150890640 
1052.464 151775456 152804960 153937872 155133728 156346400 157522464 
1055.357 158593792 159481712 160111840 160414368 160337104 159851408 
1058.250 158950336 157652304 155998224 154056816 151918944 149689760 
1061.144 147490848 145436832 143627280 142144944 141042848 140349024 
1064.037 140068928 140187008 140667776 141453408 142469488 143619728 
1066.930 144791888 145877728 146771712 147388672 147673808 147596624 
1069.823 147151520 146349024 145212272 143771392 142059920 140116512 
1072.716 137979712 135686032 133272232 130773696 128228832 125686568 
1075.609 123202760 120843784 118683064 116787344 115215712 114011656 
1078.502 113197112 112773416 112718992 112992392 113527432 114235520 
1081.395 115016864 115756016 116343584 116694912 116756688 116524152 
1084.288 116038736 115385744 114673664 114019064 113539224 113328840 
1087.181 113459192 113974560 114886520 116176048 117791784 119660568 
1090.074 121685968 123760152 125783280 127662080 129322248 130712448 
1092.967 131796520 132552224 132967952 133040400 132775872 132190544 
1095.860 131312832 130181000 128841832 127352592 125774248 124170312 
1098.753 122604560 121126288 119766336 118526800 117380176 116271344 
1101.646 115128024 113883936 112487712 110920760 109200784 107380880 
1104.540 105539032 103759832 102132360 100733064 99618368 98828064 98379960 
1107.915 98272304 98486240 98989208 99739120 100683512 101768408 102936088 
1111.290 104123264 105266952 106298696 107146520 107746296 108042120 
1114.183 107996192 107594984 106848136 105785920 104450256 102893088 
1117.076 101167744 99323608 97409176 95465336 93522912 91604408 89720984 
1120.451 87875064 86064256 84285872 82541184 80837800 79188632 77610072 
1123.827 76119296 74729560 73450472 72287624 71244296 70323568 69529816 
1127.202 68869120 68348872 67975568 67753128 67680520 67749992 67946312 
1130.577 68243896 68608936 69001080 69372976 69679752 69884184 69961520 
1133.952 69907072 69736200 69484360 69197224 68927016 68724008 68625472 
1137.328 68654928 68816704 69096520 69461648 69865224 70254496 70571832 
1140.703 70765144 70794280 70630624 70260760 69683640 68907448 67947280 
1144.078 66822328 65557800 64181624 62725484 61225264 59715112 58228420 
1147.453 56796340 55443572 54190984 53054932 52046176 51171548 50433560 
1150.829 49830960 49358664 49009000 48773120 48641568 48605956 48659580 
1154.204 48797476 49015604 49310852 49679960 50119592 50626524 51197904 
1157.579 51831152 52523764 53272320 54072756 54919144 55804256 56720100 
1160.954 57657708 58605948 59551668 60476368 61356560 62164968 62869868 
1164.330 63439428 63844888 64060412 64066180 63848808 63401544 62725680 
1167.705 61830560 60735308 59465064 58050496 56526036 54923580 53274232 
1171.080 51606724 49944992 48311632 46726380 45205388 43762880 42410116 
1174.455 41155232 40004376 38961908 38030892 37213472 36511308 35925332 
1177.831 35455680 35101948 34862836 34737048 34723660 34823196 35037648 
1181.206 35370124 35824788 36405436 37114572 37952928 38918892 40007500 
1184.581 41208640 42504052 43867448 45258780 46626656 47913748 49056148 
1187.956 49994288 50680808 51081908 51184004 50994592 50541312 49867088 
1191.332 49025356 48076724 47077604 46079672 45127296 44253824 43484892 
1194.707 42839300 42328912 41960664 41735876 41650020 41691088 41839188 
1198.082 42068232 42343412 42625276 42873892 43047172 43107432 43024632 
1201.457 42776732 42354880 41763708 41022552 40160628 39215040 38226452 
1204.833 37230944 36259608 35335868 34473564 33679808 32956668 32302968 
1208.208 31716544 31195200 30737428 30341816 30007624 29734540 29522692 
1211.583 29372810 29286102 29263522 29305952 29413014 29583236 29813992 
1214.958 30101616 30441386 30827306 31251560 31703602 32171744 32642752 
1218.333 33103466 33543340 33953740 34329492 34668104 34968872 35232980 
1221.709 35463484 35665408 35846412 36015720 36184404 36363356 36561628 
1225.084 36786348 37041204 37326508 37639820 37975852 38327484 38685888 
1228.459 39042596 39390052 39724500 40046848 40363880 40687576 41032600 
1231.834 41415700 41853020 42358424 42945068 43625184 44410400 45313648 
1235.210 46347236 47522108 48846976 50326884 51963224 53753588 55691580 
1238.585 57766696 59961500 62253220 64612076 67002492 69390120 71741576 
1241.960 74028184 76228432 78323840 80297520 82132872 83810400 85308296 
1245.335 86603920 87671592 88484368 89015256 89236848 89127152 88672808 
1248.711 87871608 86733040 85276560 83528944 81519008 79277544 76839680 
1252.086 74242768 71531968 68759992 65980024 63248584 60619172 58135412 
1255.461 55833948 53740204 51866472 50213684 48770748 47516672 46420124 
1258.836 45443712 44547540 43689556 42833340 41950664 41022880 40043652 
1262.212 39017584 37958604 36885964 35822016 34789596 33807372 32890576 
1265.587 32049410 31288772 30609202 30007660 29478648 29015100 28610186 
1268.962 28258478 27956064 27700970 27492582 27330694 27214690 27143154 
1272.337 27114374 27126648 27179380 27272866 27408156 27585960 27805908 
1275.713 28065128 28357218 28671098 28992358 29300846 29573022 29785318 
1279.088 29915004 29945036 29867938 29686180 29412376 29065048 28667558 
1282.463 28242070 27806968 27377064 26962816 26571964 26211660 25888546 
1285.838 25609496 25381384 25209922 25099924 25055764 25080862 25179304 
1289.214 25354512 25608934 25943026 26353944 26835700 27378936 27970624 
1292.589 28595782 29234388 29863642 30458906 30993850 31446658 31803380 
1295.964 32060470 32226484 32321028 32372252 32409952 32463792 32560460 
1299.339 32719306 32954704 33273854 33676192 34152776 34684756 35246024 
1302.715 35802872 36319116 36762508 37106196 37333876 37441132 37434956 
1306.090 37331960 37155248 36933400 36694796 36465432 36267640 36116276 
1309.465 36019172 35977708 35988684 36046104 36143532 36275636 36437904 
1312.840 36626220 36836512 37063868 37303076 37549964 37801696 38056896 
1316.216 38315940 38579704 38848660 39122860 39401952 39686272 39976840 
1319.591 40275784 40584572 40902976 41226824 41547372 41851192 42120436 
1322.966 42336836 42482716 42545128 42519180 42411104 42239432 42032860 
1326.341 41830104 41673364 41599696 41639228 41807268 42103168 42511836 
1329.717 43008612 43565692 44155216 44756048 45353700 45939984 46511760 
1333.092 47069332 47615420 48153532 48687344 49219256 49749252 50273088 
1336.467 50781876 51263784 51703416 52084500 52392088 52612664 52736068 
1339.842 52756868 52674564 52494116 52225208 51882192 51481736 51042032 
1343.218 50583112 50123716 49681784 49273288 48910012 48599992 48347444 
1346.593 48152084 48009404 47909720 47839276 47778872 47706236 47600704 
1349.968 47444304 47227444 46950888 46627948 46283128 45948824 45664836 
1353.343 45470016 45397728 45472632 45704224 46084572 46587520 47173808 
1356.719 47793668 48392668 48923400 49344404 49626468 49755124 49729524 
1360.094 49564516 49287020 48939200 48573200 48244200 48007328 47904536 
1363.469 47955228 48153644 48468492 48850608 49235508 49556864 49751628 
1366.844 49764336 49560836 49131828 48498096 47703944 46811216 45887064 
1370.219 44987036 44154264 43414800 42778412 42246228 41815876 41485976 
1373.595 41258448 41136404 41120300 41203684 41372288 41606552 41884396 
1376.970 42187652 42503872 42827888 43161884 43514888 43902820 44345628 
1380.345 44867612 45493232 46240156 47111284 48085124 49113164 50114980 
1383.720 50986692 51621272 51909784 51766124 51144896 50058236 48588464 
1387.096 46875512 45100500 43429336 41978840 40807420 39915484 39268132 
1390.471 38812644 38495988 38268788 38086956 37914380 37719900 37480208 
1393.846 37184160 36834816 36448644 36047972 35653648 35276856 34918308 
1397.221 34572972 34236304 33911748 33614040 33366300 33192694 33111942 
1400.597 33130430 33243414 33438512 33701760 34020816 34386048 34792040 
1403.972 35235456 35713432 36222544 36758000 37314268 37886504 38471004 
1407.347 39066596 39673524 40292872 40925148 41569976 42225628 42890424 
1410.722 43563568 44244984 44934780 45631196 46328212 47015976 47681864 
1414.098 48313632 48904748 49456116 49977668 50485368 50999064 51539784 
1417.473 52126116 52773028 53488512 54267564 55091500 55928160 56739848 
1420.848 57488412 58143708 58687976 59115904 59438656 59683520 59891552 
1424.223 60105924 60360528 60671636 61034744 61431480 61837208 62232724 
1427.599 62605292 62951528 63275568 63588040 63905196 64246892 64638376 
1430.974 65106972 65674996 66357284 67154032 68052992 69030440 70060592 
1434.349 71123056 72203496 73298368 74411608 75552832 76727216 77934536 
1437.724 79168192 80413616 81650024 82848584 83975040 84984400 85824736 
1441.100 86447384 86804128 86854920 86570840 85932744 84937336 83600680 
1444.475 81965648 80098296 78077680 75995536 73938016 71980336 70188048 
1447.850 68606024 67255024 66127656 65193900 64411304 63739584 63157104 
1451.225 62665844 62290740 62064084 62010156 62127008 62380356 62700376 
1454.601 62990712 63147372 63069320 62700524 62065080 61283904 60528548 
1457.976 59947428 59626728 59583364 59798304 60243084 60890396 61712680 
1461.351 62673428 63726232 64805636 65827236 66704088 67353488 67723000 
1464.726 67808360 67656824 67348536 66962748 66564024 66189976 65855652 
1468.102 65562964 65302484 65053240 64775752 64411192 63884424 63114076 
1471.477 62045128 60678644 59091156 57412240 55780824 54297864 53005628 
1474.852 51905788 50984792 50233844 49655664 49256660 49033148 48962712 
1478.227 49002992 49103260 49210904 49285872 49307324 49273028 49197656 
1481.603 49105488 49026432 48989600 49023912 49161476 49435364 49879536 
1484.978 50523072 51380204 52441472 53665096 54980588 56281892 57434932 
1488.353 58297908 58722192 58584636 57821464 56445204 54554044 52298828 
1491.728 49849320 47343488 44865300 42458376 40131664 37884192 35730664 
1495.104 33707240 31874940 30307670 29066148 28179948 27642102 27422238 
1498.479 27479698 27776872 28283586 28971424 29809664 30764918 31797108 
1501.854 32863810 33924720 34932064 35831120 36554992 37007972 37072276 
1505.229 36622400 35568228 33921604 31834684 29563480 27347846 25328802 
1508.604 23536162 21935214 20476174 19124812 17868850 16715944 15681464 
1511.980 14775201 13997623 13338340 12782074 12313331 11920247 11593671 
1515.355 11324130 11101902 10917807 10765818 10646377 10564719 10525814 
1518.730 10529379 10566621 10620571 10673407 10714159 10747918 10794893 
1522.105 10881758 11025053 11223407 11460835 11715755 11972561 12225599 
1525.481 12482707 12760167 13075466 13437778 13844688 14285536 14748188 
1528.856 15225505 15717329 16229214 16768219 17338788 17940946 18571120 
1532.231 19224616 19898278 20592756 21310200 22049468 22804454 23562956 
1535.606 24310384 25029754 25704964 26323526 26872640 27343046 27727282 
1538.982 28022326 28227220 28344416 28383006 28357856 28286946 28186806 
1542.357 28066258 27923450 27748014 27528486 27259528 26950054 26622056 
1545.732 26303706 26017494 25769830 25550876 25340180 25117724 24873062 
1549.107 24613108 24359444 24141024 23978840 23877940 23828058 23811222 
1552.483 23812552 23826028 23857812 23921036 24027270 24177140 24357342 
1555.858 24541300 24696820 24787248 24776618 24639654 24377424 24033888 
1559.233 23686216 23413614 23256908 23211676 23248344 23330534 23426656 
1562.608 23510000 23562924 23577896 23558970 23521226 23485026 23469182 
1565.984 23481180 23515910 23557150 23585556 23583982 23545398 23475584 
1569.359 23392946 23321374 23279700 23277008 23310606 23372176 23449352 
1572.734 23528782 23596750 23635724 23626874 23553896 23410744 23210452 
1576.109 22986462 22783222 22633832 22548388 22513316 22502114 22486550 
1579.485 22443912 22363006 22242600 22089350 21911934 21717974 21510350 
1582.860 21288832 21052894 20804914 20550336 20296534 20048918 19808934 
1586.235 19573518 19338402 19101060 18863190 18630776 18411070 18209442 
1589.610 18026972 17861082 17707680 17565234 17435146 17321410 17227214 
1592.986 17151446 17086890 17023000 16947988 16854978 16743975 16621467 
1596.361 16497169 16379651 16274000 16181510 16102036 16037397 15992327 
1599.736 15974348 15991192 16047815 16144643 16279124 16447680 16647460 
1603.111 16876814 17133038 17408142 17686730 17946608 18160310 18300704 
1606.487 18348644 18294624 18142518 17905380 17603358 17256036 16880018 
1609.862 16489357 16097188 15717020 15363822 15050082 14781988 14557298 
1613.237 14365670 14190526 14013398 13818658 13596961 13348419 13084515 
1616.612 12825857 12595935 12413114 12287050 12216806 12194997 12208628 
1619.988 12242639 12281767 12312239 12326045 12323829 12316261 12320080 
1623.363 12351544 12420786 12526187 12659075 12807497 12962455 13119450 
1626.738 13277799 13437710 13598705 13757332 13909653 14052856 14187719 
1630.113 14318616 14450718 14586869 14725428 14858579 14973869 15057422 
1633.489 15095500 15079480 15008338 14891428 14747092 14598073 14463804 
1636.864 14353650 14267115 14197030 14132912 14063842 13979931 13874929 
1640.239 13747072 13600791 13444784 13289995 13144141 13008851 12878450 
1643.614 12741127 12582461 12388771 12153151 11878974 11582066 11287028 
1646.990 11020635 10804540 10648211 10550800 10503002 10492039 10500967 
1650.365 10507959 10486064 10400060 10215753 9917844 9534610 9142003 8821532 
1654.222 8616532 8517313 8487207 8484841 8480956 8459535 8415954 8353393 
1658.080 8278920 8198719 8115462 8027090 7929186 7817304 7689227 7546455 
1661.937 7394091 7239658 7091106 6955163 6836294 6736067 6653627 6584457 
1665.794 6521319 6454390 6371601 6261497 6116875 5937466 5732245 5517591 
1669.652 5313239 5134699 4989681 4876844 4789396 4716737 4647273 4569983 
1673.509 4474195 4353225 4206360 4043189 3882086 3742565 3638104 3570182 
1677.367 3528892 3498495 3463524 3414297 3349414 3276428 3206826 3150919 
1681.224 3110637 3077433 3032553 2954316 2825465 2646877 2442439 2251785 
1685.082 2109024 2025228 1990775 1985050 1989244 1989544 1978626 1955460 
1688.939 1921479 1880046 1834724 1790006 1751247 1723602 1710928 1713190 
1692.796 1724933 1734281 1726064 1685481 1605458 1493264 1372490 1273217 
1696.654 1215365 1200845 1213770 1229221 1220117 1165893 1061153 922237 
1700.511 783630 677821 620812 606146 616564 632193 638830 628145 598050 
1704.851 552231 497792 443195 394606 355176 324304 299734 278348 257030 
1709.190 234685 211181 187910 167259 151415 140908 134843 130004 122546 
1713.530 109057 87151 56265 16865 -31078 -88160 -155138 -230783 -309692 
1717.870 -381966 -435428 -462338 -460881 -436586 -398916 -358329 -323499 
1721.727 -298468 -283104 -272971 -262408 -246513 -223133 -193327 -160140 
1725.584 -126354 -94057 -63943 -36247 -12060 6792 18290 21703 18290 10934 
1730.406 2021 -8813 -26970 -63049 -130959 -241446 -394745 -573204 -745968 
1734.746 -879645 -956420 -979364 -965181 -935095 -906528 -891648 -895286 
1738.603 -915654 -945840 -977446 -1003463 -1020455 -1028355 -1028719 
1741.979 -1023463 -1013909 -1000521 -984620 -967892 -952320 -939790 -931161 
1745.836 -926399 -924912 -926234 -930830 -939823 -955230 -978537 -1010868 
1749.693 -1051923 -1099849 -1151371 -1202358 -1247922 -1284164 -1308643 
1753.069 -1321790 -1326349 -1327736 -1332790 -1347721 -1376490 -1418303 
1756.444 -1467476 -1514266 -1549165 -1566961 -1568479 -1560292 -1551311 
1759.819 -1550288 -1562669 -1589113 -1624667 -1662264 -1694544 -1716723 
1763.194 -1728208 -1730815 -1728010 -1723389 -1720089 -1721013 -1728934 
1766.570 -1745501 -1770086 -1800015 -1829546 -1852642 -1866202 -1870986 
1769.945 -1872734 -1880157 -1902030 -1942901 -1999898 -2062493 -2117067 
1773.320 -2152874 -2166523 -2161644 -2146378 -2128541 -2112879 -2100580 
1776.695 -2089929 -2078585 -2065955 -2053754 -2044817 -2042211 -2046103 
1780.071 -2054512 -2062822 -2066879 -2065494 -2060712 -2057249 -2059756 
1783.446 -2070737 -2089236 -2111131 -2131080 -2144928 -2151027 -2150961 
1786.821 -2147269 -2142356 -2136916 -2130651 -2123002 -2115022 -2109450 
1790.196 -2110274 -2121254 -2143279 -2173479 -2204996 -2230709 -2245444 
1793.572 -2248114 -2241950 -2231269 -2220358 -2210864 -2203513 -2197480 
1796.947 -2192963 -2190985 -2193425 -2201897 -2216501 -2234995 -2253520 
1800.322 -2267595 -2274121 -2272770 -2265584 -2255597 -2245806 -2237961 
1803.697 -2231896 -2227347 -2224017 -2222270 -2222929 -2226786 -2233445 
1807.073 -2241324 -2248576 -2253487 -2255728 -2256816 -2258728 -2263573 
1810.448 -2272209 -2283383 -2295380 -2306257 -2315386 -2324087 -2334238 
1813.823 -2347618 -2363930 -2381165 -2395335 -2401925 -2398070 -2383340 
1817.198 -2359251 -2329755 -2298577 -2268814 -2242247 -2219204 -2199788 
1820.573 -2183469 -2170084 -2159039 -2149972 -2142191 -2135003 -2128310 
1823.949 -2121814 -2115253 -2107702 -2097579 -2083565 -2065230 -2044058 
1827.324 -2023611 -2009232 -2005769 -2015663 -2036902 -2062724 -2084026 
1830.699 -2092039 -2082806 -2057777 -2022919 -1985550 -1951280 -1923010 
1834.074 -1899918 -1879300 -1857855 -1833605 -1806713 -1778335 -1749890 
1837.450 -1721046 -1690055 -1654309 -1611363 -1560754 -1504063 -1444624 
1840.825 -1386168 -1331965 -1284329 -1243759 -1210024 -1181079 -1153122 
1844.200 -1121959 -1082596 -1031561 -968487 -896840 -822766 -754998 -702039 
1848.058 -669917 -661083 -673589 -702535 -741932 -787147 -836722 -890954 
1851.915 -951362 -1017942 -1088810 -1160426 -1229089 -1292357 -1350495 
1855.290 -1405456 -1459881 -1515356 -1571319 -1625756 -1676721 -1723257 
1858.666 -1767116 -1811135 -1857789 -1907803 -1959328 -2008539 -2051280 
1862.041 -2085213 -2111032 -2131179 -2149049 -2166820 -2184491 -2200876 
1865.416 -2214128 -2224314 -2234005 -2247125 -2267693 -2297094 -2332623 
1868.791 -2367852 -2395796 -2410888 -2411547 -2400145 -2381659 -2360437 
1872.167 -2339939 -2322175 -2308069 -2298841 -2296171 -2301741 -2316111 
1875.542 -2337995 -2363996 -2389173 -2409602 -2423409 -2431745 -2438137 
1878.917 -2446209 -2458367 -2474313 -2491905 -2508344 -2522345 -2534599 
1882.292 -2547611 -2564443 -2586479 -2612202 -2638615 -2661503 -2678002 
1885.667 -2688045 -2694006 -2699571 -2708000 -2720579 -2736351 -2753241 
1889.043 -2768189 -2779481 -2786461 -2789589 -2789490 -2786790 -2782411 
1892.418 -2777605 -2774378 -2775201 -2781424 -2792881 -2806675 -2818098 
1895.793 -2822312 -2816419 -2800519 -2778296 -2755513 -2737240 -2726374 
1899.168 -2723871 -2727625 -2735692 -2746689 -2760452 -2776913 -2795844 
1902.544 -2815069 -2831101 -2840977 -2842952 -2838508 -2831792 -2827875 
1905.919 -2830805 -2841767 -2858587 -2876987 -2893346 -2905327 -2913291 
1909.294 -2919841 -2926818 -2934651 -2942056 -2946367 -2945479 -2939785 
1912.669 -2931459 -2923856 -2919972 -2921059 -2926160 -2933565 -2941891 
1916.045 -2951106 -2962295 -2977104 -2995203 -3014255 -3029556 -3037847 
1919.420 -3037880 -3032912 -3028437 -3030905 -3044461 -3068677 -3099109 
1922.795 -3128716 -3151282 -3164045 -3168453 -3168091 -3167433 -3168453 
1926.170 -3170525 -3171117 -3168453 -3162762 -3156019 -3152072 -3153388 
1929.546 -3159934 -3169275 -3177860 -3182630 -3183814 -3183189 -3184143 
1932.921 -3188748 -3197036 -3205917 -3213054 -3217264 -3220553 -3226900 
1936.296 -3240976 -3263931 -3293594 -3323780 -3347519 -3361099 -3365570 
1939.671 -3366228 -3370699 -3385066 -3410151 -3442301 -3474252 -3499430 
1943.047 -3514779 -3521845 -3524212 -3524934 -3524902 -3520793 -3509520 
1946.422 -3489700 -3463865 -3438389 -3421196 -3416101 -3422183 -3433984 
1949.797 -3443287 -3443912 -3435529 -3423136 -3415246 -3420177 -3441019 
1953.172 -3475994 -3520005 -3566903 -3613631 -3661998 -3714958 -3775566 
1956.548 -3843357 -3912484 -3974574 -4022736 -4053135 -4068956 -4076572 
1959.923 -4083563 -4094395 -4110248 -4128858 -4147992 -4168077 -4192328 
1963.298 -4223699 -4264353 -4311827 -4360083 -4401413 -4430473 -4445658 
1966.673 -4451495 -4453693 -4456513 -4460613 -4462449 -4457661 -4444018 
1970.049 -4424635 -4405545 -4394394 -4395804 -4408694 -4427357 -4444411 
1973.424 -4454152 -4454382 -4447461 -4434113 -4411777 -4372679 -4307004 
1976.799 -4205520 -4069449 -3909726 -3745871 -3598844 -3484573 -3408967 
1980.174 -3369417 -3357811 -3365964 -3389045 -3425240 -3473266 -3530555 
1983.550 -3589216 -3638144 -3667255 -3670803 -3649808 -3614354 -3577616 
1986.925 -3551227 -3542550 -3552048 -3575973 -3608374 -3645077 -3682861 
1990.300 -3720444 -3755824 -3783383 -3797704 -3793171 -3769522 -3731187 
1993.675 -3688019 -3649315 -3621879 -3607815 -3603182 -3602065 -3599699 
1997.051 -3595033 -3591352 -3594474 -3609162 -3636205 -3673432 -3715254 
2000.426 -3756317 -3794978 -3832026 -3869893 -3912024 -3958519 -4006617 
2003.801 -4052741 -4093049 -4125477 -4149928 -4166502 -4173886 -4169554 
2007.176 -4149928 -4113301 -4062490 -4005796 -3953430 -3915932 -3898528 
2010.552 -3900466 -3915144 -3933762 -3948340 -3954907 -3953890 -3948340 
2013.927 -3941741 -3936290 -3932022 -3928541 -3925454 -3922401 -3919249 
2017.302 -3915209 -3906738 -3889662 -3861059 -3822272 -3778916 -3741075 
2020.677 -3717980 -3715057 -3730497 -3756185 -3778719 -3788409 -3779080 
2024.052 -3753623 -3720083 -3688873 -3667616 -3659928 -3663641 -3674351 
2027.428 -3687953 -3700897 -3710392 -3714334 -3708749 -3688052 -3649545 
2030.803 -3592634 -3521451 -3444569 -3370403 -3304050 -3245910 -3191182 
2034.178 -3133618 -3069006 -2998856 -2927279 -2861319 -2805095 -2757719 
2037.553 -2714948 -2670362 -2620139 -2564904 -2510716 -2464725 -2432766 
2040.929 -2416753 -2412337 -2413062 -2412832 -2409042 -2402452 -2396949 
2044.304 -2394610 -2394972 -2393423 -2382615 -2354967 -2307806 -2241159 
2047.679 -2160226 -2072485 -1985517 -1906549 -1841919 -1796847 -1774079 
2051.054 -1774310 -1792987 -1821594 -1848452 -1860824 -1849739 -1812851 
2054.430 -1755599 -1688834 -1625558 -1575445 -1542133 -1523511 -1513870 
2057.805 -1506374 -1497756 -1487388 -1476260 -1465297 -1453045 -1436302 
2061.180 -1411797 -1378868 -1340520 -1303456 -1276103 -1263615 -1266720 
2064.555 -1281422 -1300120 -1314820 -1321031 -1318388 -1310229 -1300781 
2067.931 -1293447 -1289119 -1286939 -1284725 -1281488 -1277656 -1274319 
2071.306 -1272138 -1270685 -1268075 -1261864 -1251027 -1236523 -1220994 
2074.681 -1207777 -1198790 -1193239 -1188249 -1179327 -1162540 -1137293 
2078.056 -1104872 -1068285 -1030735 -994273 -959627 -926664 -896641 -871279 
2081.914 -853753 -847139 -851372 -864401 -880869 -894955 -901899 -900675 
2085.771 -893070 -883712 -877628 -877727 -884771 -897402 -913538 -931458 
2089.629 -951262 -973711 -1000323 -1031429 -1065541 -1099650 -1130452 
2093.004 -1154114 -1167497 -1168885 -1157121 -1132435 -1096610 -1053047 
2096.379 -1006670 -962966 -926201 -897997 -877000 -858912 -838243 -811853 
2100.237 -779209 -743520 -710342 -684605 -668263 -659793 -654268 -645799 
2104.094 -630182 -606393 -576414 -543952 -512877 -484414 -458266 -432713 
2107.951 -406000 -377762 -348794 -319990 -291581 -262309 -230386 -193426 
2111.809 -152091 -108931 -68847 -37108 -17229 -9774 -12988 -22199 -33298 
2116.148 -43734 -52746 -61393 -71132 -83025 -96806 -111879 -127017 -141260 
2120.488 -154509 -165804 -173521 -175873 -170673 -156629 -135629 -111514 
2124.345 -89850 -76367 -74611 -84682 -104194 -128276 -152687 -174647 -194155 
2128.685 -212204 -231346 -253103 -277574 -303732 -330022 -353992 -374087 
2132.542 -388951 -396532 -396598 -388687 -374650 -358263 -344854 -338233 
2136.400 -340616 -351078 -365215 -377398 -384549 -384648 -380046 -375445 
2140.257 -373955 -377663 -385575 -395109 -404610 -415236 -430628 -455751 
2144.115 -494972 -548684 -612382 -679709 -743057 -797697 -843634 -884142 
2147.972 -923986 -967165 -1015033 -1066500 -1121132 -1180186 -1247261 
2151.347 -1327835 -1427220 -1547713 -1687745 -1843833 -2010782 -2185546 
2154.723 -2366237 -2551004 -2733519 -2901179 -3033833 -3106873 -3101214 
2158.098 -3008727 -2839857 -2620699 -2385713 -2167908 -1990465 -1861550 
2161.473 -1778896 -1733290 -1711607 -1700947 -1691111 -1673618 -1642459 
2164.848 -1597069 -1541142 -1484416 -1439340 -1418501 -1428937 -1471868 
2168.224 -1540647 -1623082 -1709099 -1789951 -1862639 -1929443 -1994060 
2171.599 -2059624 -2125672 -2188711 -2243631 -2286316 -2315024 -2329327 
2174.974 -2332260 -2326031 -2313475 -2297490 -2283647 -2277318 -2285855 
2178.349 -2314332 -2362579 -2425419 -2492630 -2552848 -2597183 -2623433 
2181.725 -2634598 -2638451 -2642501 -2649714 -2657848 -2662623 -2657749 
2185.100 -2641744 -2618032 -2592506 -2572744 -2561808 -2558152 -2555484 
2188.475 -2546590 -2525639 -2490752 -2445188 -2394577 -2344421 -2298215 
2191.850 -2257475 -2221479 -2190623 -2164875 -2145851 -2134740 -2131442 
2195.226 -2133651 -2138795 -2143609 -2146280 -2146345 -2144532 -2140773 
2198.601 -2134443 -2123133 -2104866 -2079245 -2049829 -2021335 -1999931 
2201.976 -1990102 -1992411 -2003031 -2016092 -2024897 -2025128 -2015564 
2205.351 -1998545 -1977107 -1955073 -1933764 -1914137 -1896718 -1881972 
2208.727 -1870986 -1864585 -1862078 -1860692 -1856799 -1846241 -1826709 
2212.102 -1799784 -1769261 -1739560 -1715601 -1698273 -1685731 -1675367 
2215.477 -1663551 -1648763 -1632094 -1615985 -1602549 -1592843 -1586241 
2218.852 -1581025 -1576733 -1574026 -1574422 -1580926 -1593768 -1610241 
2222.228 -1625393 -1632655 -1627241 -1606973 -1575049 -1536157 -1497261 
2225.603 -1463711 -1437491 -1418666 -1405522 -1395944 -1389338 -1385903 
2228.978 -1385177 -1386300 -1388050 -1387224 -1381147 -1368695 -1349670 
2232.353 -1325193 -1296915 -1265366 -1230014 -1190926 -1147240 -1099948 
2235.729 -1051295 -1004158 -961677 -925639 -897303 -876173 -862185 -853918 
2239.586 -849983 -848594 -846875 -841087 -828554 -807090 -777026 -741172 
2243.443 -703792 -669321 -640935 -619528 -603812 -591404 -579988 -568274 
2247.301 -556096 -544514 -534156 -524857 -515590 -505265 -493019 -478787 
2251.158 -463794 -449032 -435891 -424107 -413150 -402193 -390044 -376471 
2255.016 -361308 -345119 -328002 -310719 -293766 -278865 -268037 -263898 
2258.873 -267475 -279230 -296514 -315321 -332670 -345450 -353263 -357998 
2262.730 -362368 -368161 -375246 -381139 -381702 -373160 -353760 -323830 
2266.588 -286912 -247904 -211244 -180178 -156596 -140399 -131124 -127481 
2270.445 -127746 -129766 -130660 -127481 -117808 -101444 -79613 -55860 
2274.303 -33961 -16632 -4075 5268 15009 28695 47815 71906 98419 124303 
2279.125 147637 168088 187115 207070 230176 257030 287234 318733 349837 
2283.464 378655 403826 424356 439513 448269 450160 445450 435533 422498 
2287.804 409199 398288 390859 387178 386448 387443 389035 391091 393412 
2292.143 395867 398089 399316 398918 396828 394175 392650 394441 400576 
2296.483 411023 424190 437423 448137 455036 458120 458618 458154 458452 
2300.823 460044 462996 467275 472251 478387 485784 494508 503995 513284 
2305.162 520980 526587 530700 534515 540188 549378 562483 578640 596159 
2309.502 612715 626618 637038 644305 648519 650211 649083 645002 638299 
2313.841 629837 621575 615602 613711 616199 622438 630235 637768 643907 
2318.181 648718 653696 661229 673308 691328 715389 744364 775664 806070 
2322.521 830768 844711 843118 822137 780178 719040 643707 561222 479548 
2326.860 405949 344598 296684 260710 233392 211512 193545 178894 168718 
2331.200 164210 165701 172563 183402 196827 211612 227425 244100 261141 
2335.539 277752 292738 304542 312864 318236 321651 324868 329178 335280 
2339.879 342774 351661 361642 373183 386713 402732 420674 439811 458983 
2344.219 478453 499484 525326 559928 606809 667401 740514 822568 908291 
2348.558 992171 1068494 1132671 1181176 1211478 1222409 1214568 1190379 
2352.416 1153069 1107823 1059459 1012064 968427 929642 895707 865992 840329 
2356.755 819016 802784 792560 788244 789074 793257 798535 803082 806037 
2361.095 807199 807597 808726 812012 819149 831333 849426 873529 903410 
2365.434 937578 973973 1010703 1045974 1078857 1109916 1140246 1171176 
2369.292 1203736 1238326 1274646 1312465 1351683 1392634 1435915 1482126 
2373.149 1530836 1581181 1631632 1681057 1728625 1774735 1819984 1865238 
2377.007 1910896 1956558 2001194 2043770 2083521 2120678 2155973 2190772 
2380.864 2225840 2261677 2298117 2334559 2370971 2407653 2445271 2484525 
2384.721 2525449 2567277 2608108 2646111 2679548 2707754 2731460 2752367 
2388.579 2772374 2792983 2814993 2838272 2862018 2885266 2907448 2928296 
2392.436 2947811 2966192 2983707 3000622 3017171 3034221 3052440 3072661 
2396.294 3095286 3120181 3146614 3173815 3200784 3227322 3253326 3279500 
2400.151 3306142 3333554 3361869 3391121 3421109 3452302 3485301 3521042 
2404.009 3559725 3601719 3646625 3693707 3742198 3791329 3840733 3889842 
2407.866 3938322 3985904 4032621 4078474 4124365 4171131 4219575 4270233 
2411.723 4323004 4377189 4431781 4485410 4537538 4587530 4635183 4680396 
2415.581 4722432 4760686 4794488 4824105 4850507 4875470 4901171 4929153 
2419.438 4960052 4993334 5027455 5060910 5092690 5122495 5151765 5182043 
2423.296 5215040 5252097 5293752 5339504 5388749 5440818 5495041 5550882 
2427.153 5607804 5665539 5724154 5783953 5845943 5911233 5980934 6055922 
2431.010 6135458 6218808 6304224 6390195 6475982 6561482 6647033 6733139 
2434.868 6820508 6908803 6998160 7088276 7179591 7272878 7369354 7469525 
2438.725 7573529 7680391 7788865 7897231 8004341 8109756 8213475 8315530 
2442.583 8415616 8513427 8608185 8699345 8786704 8870902 8952986 9034240 
2446.440 9115677 9197502 9280054 9362553 9445068 9526889 9607674 9686576 
2450.298 9762443 9833985 9900352 9961237 10017553 10071130 10124476 10180101 
2454.155 10239228 10302569 10369585 10439157 10510200 10582068 10654323 
2457.530 10726827 10799309 10871395 10942407 11011696 11078992 11144326 
2460.906 11208276 11271351 11334198 11397189 11460835 11525614 11592309 
2464.281 11661872 11735430 11814346 11898963 11990306 12088858 12195474 
2467.656 12310774 12435924 12571445 12717243 12872443 13035379 13204424 
2471.031 13377976 13555460 13736675 13922243 14112478 14306938 14504707 
2474.406 14704245 14903772 15101229 15295722 15485803 15670575 15848311 
2477.782 16017284 16175421 16320681 16451672 16567385 16667601 16753133 
2481.157 16824322 16882086 16926662 16958222 16976484 16981410 16973176 
2484.532 16952192 16919670 16877572 16827732 16773004 16715428 16656928 
2487.907 16598435 16539745 16479893 16417537 16350785 16278230 16198808 
2491.283 16111974 16017456 15915364 15805803 15688816 15564373 15432172 
2494.658 15291775 15142570 14983608 14814248 14634090 14443867 14245304 
2498.033 14040604 13832990 13625065 13418811 13214705 13012504 12811148 
2501.408 12609817 12408239 12207469 12008836 11814210 11624809 11441071 
2504.784 11262374 11088068 10917399 10750024 10586720 10428364 10276308 
2508.159 10131429 9994395 9865575 9745025 9633453 9531494 9439346 9357441 
2512.016 9285233 9222175 9167214 9119332 9078424 9044085 9016343 8994727 
2515.874 8978559 8966685 8957789 8951600 8948082 8948082 8952918 8963371 
2519.731 8979708 9001797 9029165 9060899 9096628 9135980 9178686 9223969 
2523.589 9270915 9317832 9363637 9407077 9447744 9485435 9520081 9551072 
2527.446 9577593 9597884 9610552 9614754 9610552 9598866 9581083 9558828 
2531.303 9532781 9503181 9469518 9431253 9388725 9342579 9294576 9246307 
2535.161 9199940 9156487 9116659 9080387 9047164 9016343 8986880 8958365 
2539.018 8929953 8901373 8873101 8845709 8820450 8798201 8779232 8762733 
2542.876 8747485 8730852 8711075 8686771 8657835 8625793 8591996 8558640 
2546.733 8527079 8497749 8470549 8445413 8422170 8400989 8382510 8367039 
2550.591 8354305 8343936 8334816 8325899 8316780 8307121 8297495 8288275 
2554.448 8279900 8272638 8266256 8260514 8255078 8250046 8245284 8241030 
2558.305 8236978 8233026 8228367 8222626 8215332 8206013 8194600 8180588 
2562.163 8163875 8144664 8123361 8101080 8079510 8060405 8045215 8034920 
2566.020 8029689 8028845 8030903 8034616 8038565 8042042 8044473 8046059 
2569.878 8046801 8047071 8047443 8048827 8052270 8058616 8068337 8081839 
2573.735 8098380 8117284 8137609 8158675 8180014 8201725 8223572 8245352 
2577.593 8266593 8286822 8305533 8322724 8338936 8354913 8371566 8389942 
2581.450 8410109 8432372 8456562 8482544 8510352 8540493 8573138 8608725 
2585.307 8647121 8688089 8731055 8775514 8820585 8865830 8910742 8954982 
2589.165 8998516 9041581 9085056 9129856 9177062 9227185 9280223 9335436 
2593.022 9391299 9446457 9499794 9550631 9599103 9645683 9690540 9733538 
2596.880 9774202 9811853 9846051 9876963 9905403 9932523 9959474 9987310 
2600.737 10016468 10047087 10078930 10112097 10146894 10183697 10223182 
2604.112 10265621 10310916 10358659 10408612 10460234 10513288 10568216 
2607.488 10625052 10683594 10743978 10805865 10868882 10933199 10998783 
2610.863 11065668 11133992 11203686 11274718 11346850 11420116 11494721 
2614.238 11570802 11648565 11727567 11807025 11885886 11963126 12037927 
2617.613 12110322 12180616 12249626 12318000 12386009 12453245 12519161 
2620.989 12582871 12643997 12702368 12758734 12813844 12868791 12924222 
2624.364 12980344 13037496 13094930 13151928 13207532 13260718 13310528 
2627.739 13356415 13398615 13437675 13474826 13511500 13548862 13587696 
2631.114 13628005 13669172 13710138 13750219 13788524 13825294 13860630 
2634.490 13894634 13927855 13960119 13991634 14022090 14051897 14081194 
2637.865 14110321 14139827 14169883 14200556 14231746 14263314 14295228 
2641.240 14327999 14361492 14396256 14432495 14470140 14509332 14549898 
2644.615 14591872 14635220 14679945 14726182 14773829 14822716 14872671 
2647.990 14923627 14975583 15028609 15082669 15137699 15193420 15249183 
2651.366 15304851 15359737 15413839 15466987 15519248 15570315 15620596 
2654.741 15670093 15719218 15768589 15818723 15870305 15923612 15978232 
2658.116 16033752 16089143 16143646 16196918 16248887 16300108 16351094 
2661.491 16402533 16454322 16506428 16558161 16608728 16657891 16705200 
2664.867 16750896 16795392 16839304 16882878 16926974 16972004 17017968 
2668.242 17065074 17112876 17160994 17208494 17254862 17299686 17343444 
2671.617 17386998 17431180 17477228 17525902 17577204 17630722 17685522 
2674.992 17741090 17796628 17852450 17908868 17966466 18026144 18088178 
2678.368 18152710 18219392 18287884 18357664 18428388 18499922 18572190 
2681.743 18645476 18719984 18796062 18873674 18952652 19032822 19113870 
2685.118 19195454 19277504 19360124 19443694 19528806 19615876 19705356 
2688.493 19797384 19892036 19989168 20088720 20190932 20296118 20404212 
2691.869 20515148 20628682 20744054 20860742 20978228 21096614 21216354 
2695.244 21338006 21462096 21589040 21718672 21850464 21983796 22117938 
2698.619 22252574 22387740 22523750 22661060 22800158 22941468 23084956 
2701.994 23230342 23377140 23524410 23671274 23816926 23960598 24102110 
2705.370 24241706 24379946 24517424 24654978 24793034 24931662 25070508 
2708.745 25209608 25348682 25488082 25628054 25769162 25911512 26054964 
2712.120 26199060 26343028 26486272 26628256 26768880 26908278 27046522 
2715.495 27183400 27318664 27451744 27581864 27708564 27831412 27950552 
2718.871 28066188 28179028 28289740 28398816 28507390 28615990 28725680 
2722.246 28837310 28952122 29071142 29195512 29326192 29464074 29609556 
2725.621 29762714 29923134 30089826 30261164 30436232 30613078 30791132 
2728.996 30969722 31148494 31327624 31507254 31687244 31867166 32045986 
2732.372 32222812 32396280 32565210 32728344 32884966 33034530 33176348 
2735.747 33310092 33435970 33553432 33662516 33763392 33856404 33942312 
2739.122 34022320 34097972 34171272 34243724 34317480 34393504 34473204 
2742.497 34557472 34647036 34743004 34846284 34957772 35077844 35206604 
2745.873 35343708 35487752 35637428 35790676 35945312 36099064 36249052 
2749.248 36392828 36527924 36652068 36763988 36862772 36948552 37021432 
2752.623 37081696 37128860 37162824 37182068 37185708 37172792 37142540 
2755.998 37094832 37029984 36947832 36848092 36730236 36593744 36437940 
2759.374 36262632 36068712 35857456 35630628 35390688 35140136 34881144 
2762.749 34615672 34345736 34072888 33799276 33527162 33259258 32998708 
2766.124 32748890 32513142 32294296 32094608 31915768 31758286 31622202 
2769.499 31507362 31412960 31338270 31282682 31245260 31225070 31220230 
2772.875 31228596 31247288 31273636 31304546 31337808 31371608 31404980 
2776.250 31437110 31467530 31495464 31519972 31539782 31553466 31559772 
2779.625 31557668 31546768 31527240 31500056 31466604 31428844 31389128 
2783.000 31349812 31312988 31280618 31253770 31232904 31217522 31206664 
2786.375 31198334 31190288 31180248 31165972 31145646 31117740 31081612 
2789.751 31036730 30983352 30922114 30853596 30779074 30699838 30617948 
2793.126 30535114 30454216 30377456 30307492 30246210 30195236 30155704 
2796.501 30127932 30112448 30109534 30119478 30143202 30181276 30234664 
2799.876 30304010 30389714 30491322 30608278 30739560 30883904 31039686 
2803.252 31205240 31378802 31559094 31744558 31934348 32127574 32323670 
2806.627 32521748 32720808 32918778 33113622 33302438 33482530 33650592 
2810.002 33804576 33942236 34062456 34164356 34247488 34311672 34357356 
2813.377 34384968 34395620 34390496 34371592 34341076 34301556 34255736 
2816.753 34206044 34155716 34106968 34062456 34025296 33998420 33985236 
2820.128 33989316 34013508 34060448 34131376 34226372 34343800 34480988 
2823.503 34634476 34799972 34973896 35152816 35333928 35514936 35694040 
2826.878 35869944 36041208 36207096 36366456 36518952 36664544 36803836 
2830.254 36937728 37067728 37195852 37324268 37455216 37591152 37733996 
2833.629 37885960 38049012 38225368 38417212 38626924 38856956 39109628 
2837.004 39387184 39691788 40026212 40393584 40798576 41247044 41746600 
2840.379 42306156 42935776 43645440 44445928 45347816 46361132 47496864 
2843.755 48765408 50176192 51735812 53445080 55296216 57267236 59320284 
2847.130 61401516 63435980 65337448 67014784 68374120 69339160 69855544 
2850.505 69898080 69475104 68625584 67415392 65921432 64230368 62427904 
2853.880 60586676 58771276 57032044 55403144 53907816 52556936 51351784 
2857.256 50285884 49347412 48521992 47793148 47145556 46565792 46041872 
2860.631 45565024 45128252 44726040 44354028 44008776 43687176 43386860 
2864.006 43106004 42844236 42602396 42382428 42187688 42022020 41889288 
2867.381 41793004 41735476 41717788 41739416 41798692 41891696 42013440 
2870.757 42157092 42313644 42473324 42625896 42761304 42871956 42952748 
2874.132 43002760 43024156 43022292 43004512 42977988 42949752 42925428 
2877.507 42908860 42902128 42906848 42923524 42952460 42994084 43049036 
2880.882 43117900 43201924 43301592 43417328 43548552 43693732 43850036 
2884.258 44013948 44181772 44349736 44515564 44678004 44836896 44993832 
2887.633 45150752 45310812 45476384 45650996 45837572 46039368 46259948 
2891.008 46503316 46774128 47078640 47423904 47818304 48272008 48795660 
2894.383 49399312 50091812 50878200 51757836 52721512 53750852 54816656 
2897.759 55877808 56888036 57796592 58554304 59123876 59481552 59622964 
2901.134 59562344 59331832 58975532 58540272 58075492 57625016 57223160 
2904.509 56898692 56672264 56558000 56566532 56705264 56979604 57394240 
2907.884 57953780 58663176 59528484 60555628 61748852 63108980 64630224 
2911.260 66297224 68082872 69950352 71849384 73721032 75504408 77135272 
2914.635 78554776 79717064 80588376 81153784 81416208 81394784 81120360 
2918.010 80629464 79962712 79156304 78240800 77241072 76173184 75047744 
2921.385 73870456 72644488 71373584 70063832 68724440 67369192 66015468 
2924.760 64681560 63386320 62146392 60973732 59876680 58858348 57917660 
2928.136 57049464 56246172 55498428 54795720 54128036 53486148 52862536 
2931.511 52251104 51647620 51048400 50451348 49853928 49254288 48651392 
2934.886 48044892 47435656 46825680 46217708 45614852 45019816 44435248 
2938.261 43863672 43307380 42769748 42254584 41766120 41309096 40887392 
2941.637 40503708 40159284 39853232 39582992 39344160 39130912 38936396 
2945.012 38752648 38572168 38387820 38194036 37987928 37769744 37543320 
2948.387 37314740 37093208 36888456 36709036 36562384 36452608 36380252 
2951.762 36342460 36333524 36345916 36370920 36400536 36427924 36447416 
2955.138 36455452 36448928 36425652 36383888 36322144 36239940 36137988 
2958.513 36018776 35886680 35746960 35605380 35466900 35334900 35210952 
2961.888 35094836 34985712 34881828 34782060 34685724 34592604 34503304 
2965.263 34418216 34337920 34262976 34193388 34129120 34069804 34015120 
2968.639 33964884 33919740 33880980 33851176 33833480 33831440 33848020 
2972.014 33884812 33941452 34015656 34103564 34199772 34298152 34392680 
2975.389 34476396 34542764 34585460 34598520 34577892 34521884 34432316 
2978.764 34314036 34174856 34024360 33872132 33726896 33595100 33480882 
2982.140 33385836 33309448 33249494 33202316 33162654 33124994 33082620 
2985.515 33029132 32958954 32867562 32752640 32613818 32453154 32273702 
2988.890 32079768 31876330 31667676 31457522 31248572 31042424 30839758 
2992.265 30640596 30445046 30253598 30067134 29886928 29714280 29549788 
2995.641 29392628 29240486 29089564 28935510 28774110 28602472 28419722 
2999.016 28227114 28027486 27824772 27622894 27424884 27232294 27045818 
3002.391 26865274 26689700 26518814 26352288 26190614 26034346 25884430 
3005.766 25741528 25606474 25479720 25361608 25252168 25151426 25058782 
3009.142 24973176 24893484 24818084 24745258 24673988 24603256 24532780 
3012.517 24462702 24393370 24325276 24258560 24193256 24129150 24065966 
3015.892 24003632 23942426 23882980 23825888 23771776 23721138 23673932 
3019.267 23630056 23589334 23551414 23516680 23485200 23457712 23434666 
3022.643 23416760 23404520 23398646 23399800 23408752 23426236 23452746 
3026.018 23488174 23532314 23583912 23641848 23704200 23768768 23833062 
3029.393 23894112 23948554 23993302 24025518 24043448 24046530 24035778 
3032.768 24013088 23981256 23942986 23900344 23855046 23808318 23760964 
3036.144 23713858 23668090 23624354 23583352 23545258 23509790 23476632 
3039.519 23445402 23416130 23389066 23364798 23343646 23325882 23311236 
3042.894 23299104 23288790 23279944 23272254 23266032 23261522 23259146 
3046.269 23259076 23261802 23267464 23276276 23288754 23304836 23324344 
3049.645 23346756 23371406 23397528 23424768 23453376 23484082 23517730 
3053.020 23554632 23594862 23637370 23680826 23723762 23765162 23804746 
3056.395 23842828 23880600 23919074 23959232 24002056 24047966 24097698 
3059.770 24151604 24210246 24273730 24341676 24413242 24487380 24563072 
3063.146 24639516 24716636 24794754 24874430 24955770 25038634 25122322 
3066.521 25205604 25287568 25367404 25444900 25520022 25592802 25663064 
3069.896 25730066 25793178 25851620 25904794 25952698 25996106 26036176 
3073.271 26074418 26112492 26151902 26193570 26238446 26286140 26336234 
3076.646 26387566 26438730 26488594 26536530 26582286 26626532 26670392 
3080.022 26714860 26760564 26808068 26857202 26907502 26958690 27010238 
3083.397 27062356 27114726 27167492 27220722 27274876 27330414 27388040 
3086.772 27448956 27513588 27582252 27654462 27728976 27804212 27879002 
3090.147 27952532 28024906 28097118 28170260 28245324 28322630 28402036 
3093.523 28482552 28563686 28644978 28727024 28810966 28898076 28989630 
3096.898 29086022 29186936 29291028 29396458 29501024 29602744 29700834 
3100.273 29794794 29885258 29973790 30061880 30151194 30242764 30336840 
3103.648 30432892 30530068 30627228 30723380 30818164 30911512 31003350 
3107.024 31094034 31183452 31271786 31358964 31445838 31533156 31622346 
3110.399 31714368 31810120 31909812 32012812 32118048 32224522 32331344 
3113.774 32437872 32543852 32648928 32752782 32854982 32955416 33053800 
3117.149 33150994 33247884 33345476 33444774 33545632 33647516 33749064 
3120.525 33848952 33946000 34039772 34130660 34219704 34308192 34397556 
3123.900 34488808 34582768 34679980 34780660 34884808 34992036 35101480 
3127.275 35212176 35322676 35431916 35538956 35643504 35745556 35845548 
3130.650 35943976 36041172 36137844 36234608 36332624 36432464 36535316 
3134.026 36641540 36750828 36862124 36974096 37085232 37194592 37302316 
3137.401 37408808 37515572 37624104 37734716 37847532 37961496 38075020 
3140.776 38186724 38295712 38401864 38505984 38609724 38714360 38821484 
3144.151 38931900 39045532 39161804 39280140 39399120 39517888 39635880 
3147.527 39752748 39868556 39983632 40098484 40213548 40329372 40446132 
3150.902 40563872 40682628 40801812 40920816 41039084 41155744 41270436 
3154.277 41383260 41494688 41605236 41715816 41826968 41938988 42052060 
3157.652 42165596 42279532 42393236 42506760 42619904 42732968 42845844 
3161.028 42958824 43071904 43185124 43298592 43412128 43525988 43640020 
3164.403 43754124 43868476 43983296 44098804 44215560 44333736 44453012 
3167.778 44572872 44692064 44809200 44923500 45034372 45141928 45247048 
3171.153 45351312 45455416 45560460 45666972 45774976 45884632 45996084 
3174.529 46109072 46223052 46336912 46449108 46557532 46661076 46759000 
3177.904 46852588 46943912 47035764 47130636 47229956 47333440 47439644 
3181.279 47546320 47651432 47753388 47852264 47948384 48043264 48138204 
3184.654 48234020 48331188 48430228 48530696 48632528 48735124 48837964 
3188.030 48940384 49042048 49142664 49242744 49343036 49444532 49547916 
3191.405 49653512 49760772 49868984 49977408 50085304 50192408 50298944 
3194.780 50404760 50509600 50612896 50714136 50812604 50908748 51003272 
3198.155 51097448 51192128 51287720 51384232 51480612 51576384 51670568 
3201.531 51763656 51856092 51948620 52041880 52135980 52230740 52325884 
3204.906 52421656 52518496 52616888 52717284 52818828 52920208 53019328 
3208.281 53114728 53205428 53292216 53376580 53460968 53547012 53635520 
3211.656 53726104 53817572 53908756 53998908 54088440 54178480 54270156 
3215.031 54364552 54461712 54561032 54661656 54762340 54862408 54961336 
3218.407 55058552 55153872 55246656 55336932 55424788 55511228 55597836 
3221.782 55686120 55777696 55873328 55972824 56075504 56180364 56286344 
3225.157 56392988 56499884 56606808 56713416 56819260 56923432 57024980 
3228.532 57123680 57219192 57311888 57402184 57491096 57579460 57668752 
3231.908 57760488 57856404 57957716 58065076 58177728 58294084 58411340 
3235.283 58526852 58638900 58746732 58851024 58953672 59056268 59160288 
3238.658 59266540 59374984 59485200 59597044 59710400 59824920 59940616 
3242.033 60056612 60171720 60285112 60395824 60504172 60611248 60718920 
3245.409 60828872 60942700 61060520 61181736 61305428 61430180 61555428 
3248.784 61681016 61807488 61934944 62063628 62192616 62320836 62446652 
3252.159 62569208 62687740 62803164 62916940 63031280 63148020 63268824 
3255.534 63393988 63522720 63653068 63782796 63909448 64031884 64149512 
3258.910 64262756 64372800 64480676 64586976 64691676 64794600 64895040 
3262.285 64993352 65090224 65186620 65283960 65382400 65481672 65580652 
3265.660 65677656 65771520 65861740 65948592 66033328 66116968 66200196 
3269.035 66283368 66365936 66447788 66528296 66607512 66685660 66762396 
3272.411 66837436 66910140 66979600 67045876 67109552 67172096 67235408 
3275.786 67301528 67371360 67444688 67520784 67598056 67675448 67752240 
3279.161 67828696 67905248 67982152 68059384 68136592 68213072 68288720 
3282.536 68363728 68439432 68516936 68597920 68683056 68772496 68865664 
3285.912 68961776 69059728 69158368 69257576 69356952 69456832 69557504 
3289.287 69659872 69764640 69872584 69984056 70099336 70218000 70339960 
3292.662 70464848 70593312 70726224 70864640 71009688 71161304 71318920 
3296.037 71480992 71646176 71812952 71981512 72152360 72326768 72506096 
3299.413 72690904 72880888 73075112 73272320 73471816 73673408 73877600 
3302.788 74085352 74297808 74515712 74739200 74968160 75202120 75440744 
3306.163 75683440 75930336 76181200 76436528 76696936 76963600 77237824 
3309.538 77520816 77812952 78113736 78421664 78734784 79051112 79369704 
3312.914 79690512 80014264 80342208 80675144 81013096 81355376 81701016 
3316.289 82048968 82399160 82751920 83107456 83466136 83827280 84189528 
3319.664 84551472 84911592 85269424 85625008 85978832 86331032 86681416 
3323.039 87029744 87375224 87718064 88058576 88397728 88736248 89073456 
3326.415 89407784 89735896 90054432 90360176 90650840 90925960 91185688 
3329.790 91430560 91661368 91877896 92080056 92267656 92440944 92600024 
3333.165 92744600 92873920 92985760 93077832 93147712 93194600 93219200 
3336.540 93223760 93211440 93184456 93143968 93088920 93017032 92925136 
3339.916 92810736 92672288 92508912 92320888 92108608 91872448 91612920 
3343.291 91330736 91026952 90702648 90359040 89996584 89615168 89213896 
3346.666 88792224 88350216 87888896 87410848 86918952 86416128 85904848 
3350.041 85386376 84861152 84329400 83791312 83247744 82699448 82147600 
3353.417 81593048 81036656 80479256 79921896 79366160 78814000 78267616 
3356.792 77728856 77198440 76677128 76164704 75661352 75167256 74683280 
3360.167 74210336 73749256 73300440 72863488 72437536 72021360 71613864 
3363.542 71214128 70821344 70435344 70055728 69682624 69316696 68959024 
3366.917 68611304 68275384 67952744 67643512 67346944 67060872 66782260 
3370.293 66507868 66235004 65961936 65687412 65411284 65133220 64853028 
3373.668 64570368 64284540 63995028 63701600 63403844 63101544 62794588 
3377.043 62482116 62163900 61839616 61508892 61172200 60830164 60483260 
3380.418 60132104 59776440 59415972 59049928 58676864 58296128 57906944 
3383.794 57509028 57103008 56690388 56272840 55852788 55432396 55013568 
3387.169 54597628 54185200 53776200 53370624 52967784 52567704 52169756 
3390.544 51774372 51381696 50992060 50606344 50224988 49848840 49477948 
3393.919 49111944 48749620 48389072 48028240 47665816 47301220 46935716 
3397.295 46571732 46212364 45860220 45517004 45182480 44855160 44532264 
3400.670 44211340 43890616 43569244 43247968 42927548 42609228 42293520 
3404.045 41980704 41670264 41361792 41054888 40749368 40444788 40140784 
3407.420 39837104 39532652 39227224 38920952 38614504 38309316 38007240 
3410.796 37709856 37418412 37133480 36854584 36581124 36311624 36045276 
3414.171 35780996 35518676 35258276 35000152 34744728 34492432 34243368 
3417.546 33997416 33754116 33512988 33273674 33035494 32798734 32563780 
3420.921 32331414 32102850 31879146 31661228 31449222 31243372 31042710 
3424.297 30845840 30651478 30457912 30263652 30068058 29870634 29672168 
3427.672 29473682 29276284 29081026 28888726 28699308 28512768 28328642 
3431.047 28146466 27966806 27789764 27616078 27445884 27279356 27115714 
3434.422 26954074 26793266 26632590 26471126 26309234 26147080 25985272 
3437.798 25824192 25663978 25504668 25345802 25186748 25026946 24866394 
3441.173 24705202 24543998 24384398 24227658 24074898 23926462 23781752 
3444.548 23638420 23493210 23343366 23186616 23022690 22853240 22681902 
3447.923 22513036 22349992 22195136 22048736 21909286 21774616 21642220 
3451.299 21510350 21377614 21243736 21108266 20970924 20831194 20688936 
3454.674 20544466 20398134 20251540 20106036 19962872 19822424 19684760 
3458.049 19549012 19414588 19280726 19147146 19013920 18881290 18749216 
3461.424 18618154 18488132 18359946 18234044 18111322 17991986 17875582 
3464.800 17761178 17646768 17530456 17410900 17287618 17161338 17033682 
3468.175 16906476 16781202 16659234 16540743 16425554 16313318 16203590 
3471.550 16095847 15989885 15884671 15779516 15673529 15566021 15457167 
3474.925 15347620 15238408 15131111 15027065 14926851 14830670 14737802 
3478.301 14647420 14558258 14469456 14380090 14289406 14197612 14105153 
3481.676 14012919 13922825 13836342 13754870 13679020 13608346 13541000 
3485.051 13475133 13408320 13338989 13266355 13190556 13112756 13033844 
3488.426 12954877 12876094 12797259 12718233 12638812 12559882 12482979 
3491.802 12409807 12342510 12282550 12230678 12185932 12146677 12110254 
3495.177 12073936 12035645 11994496 11950763 11905944 11862118 11822007 
3498.552 11787007 11758239 11735771 11718784 11706257 11697169 11690940 
3501.927 11687502 11686753 11689409 11696182 11707517 11724469 11747924 
3505.302 11778222 11815231 11858202 11905365 11954816 12004374 12052916 
3508.678 12100067 12147256 12196121 12248706 12306479 12369441 12436640 
3512.053 12506885 12578505 12650887 12723589 12796849 12870259 12943134 
3515.428 13013562 13079700 13139940 13193630 13241246 13284393 13324297 
3518.803 13362257 13397726 13428722 13452303 13465290 13464778 13448612 
3522.179 13416351 13368100 13305266 13229359 13142160 13045008 12938832 
3525.554 12823741 12699298 12564862 12419592 12263464 12097137 11922257 
3528.929 11740843 11555081 11366134 11175195 10982165 10787182 10590455 
3532.304 10392593 10194246 9995990 9797687 9598358 9396716 9191918 8983633 
3536.162 8773113 8562459 8354778 8152632 7958477 7773280 7597266 7430020 
3540.019 7270620 7117680 6969943 6825792 6683472 6541535 6398333 6253295 
3543.877 6105853 5956412 5805779 5655065 5505712 5359865 5219466 5086522 
3547.734 4962398 4847357 4739683 4636388 4533821 4428434 4317617 4201107 
3551.592 4080447 3958885 3839697 3725521 3617589 3515497 3418104 3323704 
3555.449 3231962 3142709 3056577 2974033 2895072 2819262 2745298 2672180 
3559.306 2598742 2524516 2449136 2372704 2295685 2218347 2141722 2066608 
3563.164 1993738 1922777 1852293 1778927 1698687 1606755 1500745 1381532 
3567.021 1253943 1126592 1009042 908756 829540 771017 728432 695609 665742 
3571.361 633023 593305 544402 486282 420541 350202 278779 210021 146908 
3575.700 90863 41684 -2783 -46020 -90844 -140068 -194353 -252639 -312705 
3580.040 -371770 -427880 -479780 -527405 -571914 -614665 -657378 -701212 
3583.897 -747919 -799087 -857027 -923523 -999893 -1085703 -1178038 -1271478 
3587.755 -1359017 -1433627 -1490855 -1529553 -1551774 -1562603 -1568479 
3591.130 -1575577 -1588915 -1611396 -1644208 -1685533 -1731673 -1778335 
3594.505 -1821562 -1858251 -1887745 -1910574 -1929146 -1945936 -1963616 
3597.881 -1984033 -2008704 -2038485 -2073903 -2114758 -2160556 -2209776 
3601.256 -2260936 -2311464 -2359185 -2402353 -2439521 -2470096 -2494278 
3604.631 -2512858 -2527484 -2540364 -2554726 -2573699 -2599950 -2635190 
3608.006 -2678232 -2726999 -2776913 -2824320 -2867672 -2907499 -2946663 
3611.382 -2988622 -3035840 -3088219 -3142072 -3191839 -3231570 -3257420 
3614.757 -3269226 -3270706 -3268766 -3270837 -3282643 -3308128 -3347585 
3618.132 -3397822 -3453149 -3507482 -3555203 -3592502 -3618757 -3635219 
3621.507 -3644978 -3650892 -3655887 -3661143 -3666762 -3670672 -3670672 
3624.883 -3665119 -3654704 -3643039 -3637125 -3646358 -3679378 -3740976 
3628.258 -3827987 -3927523 -4021817 -4093509 -4134536 -4147467 -4142183 
3631.633 -4130959 -4124526 -4129318 -4146548 -4173098 -4202632 -4229310 
3635.008 -4248210 -4257857 -4259235 -4254969 -4247816 -4239876 -4232066 
3638.384 -4225602 -4220746 -4218121 -4218416 -4222288 -4229081 -4238071 
3641.759 -4247488 -4255855 -4262220 -4266354 -4268979 -4271637 -4276296 
3645.134 -4285449 -4300968 -4325376 -4360214 -4406759 -4464712 -4532003 
3648.509 -4604889 -4677533 -4742529 -4793359 -4823834 -4830585 -4813938 
3651.885 -4777498 -4727518 -4671830 -4619379 -4578496 -4556266 -4557315 
3655.260 -4581545 -4624165 -4675534 -4724536 -4762193 -4783790 -4790049 
3658.635 -4785592 -4776351 -4767470 -4762423 -4762128 -4766126 -4771861 
3662.010 -4777301 -4780775 -4781136 -4777891 -4770616 -4759047 -4743021 
3665.385 -4722274 -4698151 -4672715 -4649310 -4632296 -4625018 -4629673 
3668.761 -4644196 -4661864 -4670650 -4656390 -4607544 -4518362 -4390884 
3672.136 -4232592 -4055400 -3872454 -3697711 -3547283 -3437929 -3383850 
3675.511 -3392792 -3461728 -3579062 -3728821 -3897247 -4074438 -4252475 
3678.886 -4424274 -4582004 -4717784 -4826226 -4906566 -4962782 -5001401 
3682.262 -5030420 -5055508 -5078368 -5097853 -5111475 -5117370 -5116387 
3685.637 -5112719 -5112097 -5121103 -5144319 -5181710 -5229444 -5279530 
3689.012 -5324013 -5356709 -5375724 -5382269 -5379389 -5369931 -5356284 
3692.387 -5339887 -5321656 -5303818 -5287910 -5275962 -5268826 -5266076 
3695.763 -5265258 -5262737 -5254062 -5236090 -5207608 -5169793 -5126637 
3699.138 -5083476 -5046764 -5021381 -5011325 -5017385 -5037855 -5067888 
3702.513 -5102306 -5135478 -5163605 -5184788 -5198965 -5207444 -5212126 
3705.888 -5215072 -5217888 -5221489 -5226073 -5231180 -5236516 -5241459 
3709.264 -5246271 -5251541 -5258449 -5267975 -5279890 -5292721 -5303621 
3712.639 -5309186 -5306534 -5294522 -5274161 -5248824 -5222144 -5198605 
3716.014 -5181612 -5172936 -5171790 -5176505 -5183937 -5191304 -5196313 
3719.389 -5199030 -5199881 -5200602 -5201780 -5204138 -5206626 -5208525 
3722.765 -5208689 -5207346 -5205676 -5205807 -5209671 -5218543 -5231998 
3726.140 -5248137 -5263457 -5273900 -5276453 -5269644 -5254553 -5233864 
3729.515 -5211504 -5191697 -5177585 -5170578 -5169793 -5173296 -5178207 
3732.890 -5183937 -5191173 -5204334 -5227153 -5262443 -5308105 -5358378 
3736.266 -5403998 -5436328 -5450072 -5445065 -5424712 -5393363 -5354254 
3739.641 -5309022 -5257369 -5199947 -5139571 -5082265 -5038772 -5021479 
3743.016 -5040967 -5100473 -5189535 -5284734 -5356087 -5383021 -5362469 
3746.391 -5306174 -5232620 -5161018 -5106923 -5079743 -5082658 -5111803 
3749.767 -5158660 -5212813 -5264996 -5308891 -5340705 -5357429 -5357265 
3753.142 -5338970 -5303981 -5256158 -5201420 -5146578 -5097198 -5057408 
3756.517 -5029143 -5012144 -5005102 -5006380 -5014404 -5028292 -5045781 
3759.892 -5063958 -5077975 -5083607 -5078368 -5062975 -5041425 -5019972 
3763.268 -5004676 -4999927 -5006511 -5020791 -5036971 -5048434 -5051087 
3766.643 -5044766 -5033335 -5022593 -5018105 -5023772 -5040148 -5064449 
3770.018 -5091565 -5116224 -5133939 -5142059 -5140913 -5131647 -5116747 
3773.393 -5098475 -5079285 -5061174 -5045421 -5032582 -5022789 -5015976 
3776.769 -5012013 -5010867 -5013192 -5019219 -5028521 -5039264 -5048631 
3780.144 -5053609 -5051873 -5042604 -5027506 -5009295 -4991738 -4978472 
3783.519 -4972085 -4973395 -4982206 -4996324 -5013127 -5029962 -5044340 
3786.894 -5053969 -5057768 -5055082 -5046633 -5034416 -5021119 -5009491 
3790.270 -5001729 -4997831 -4996127 -4993998 -4987808 -4975393 -4956983 
3793.645 -4934970 -4913413 -4896737 -4887826 -4886908 -4890578 -4893821 
3797.020 -4890709 -4878193 -4856699 -4830552 -4807090 -4795555 -4802633 
3800.395 -4832419 -4881666 -4940637 -4994555 -5029569 -5038346 -5021676 
3803.771 -4987578 -4947090 -4912496 -4893821 -4896639 -4920752 -4959080 
3807.146 -5000320 -5032156 -5046796 -5042539 -5023248 -4994817 -4963011 
3810.521 -4931333 -4900767 -4870264 -4838285 -4804337 -4770386 -4740727 
3813.896 -4721586 -4718538 -4734368 -4766683 -4806926 -4842249 -4861549 
3817.271 -4858501 -4834025 -4795686 -4755639 -4726502 -4719947 -4743086 
3820.647 -4795358 -4866889 -4941423 -5002646 -5039493 -5049515 -5037692 
3824.022 -5012308 -4982730 -4955509 -4935231 -4922029 -4913937 -4906959 
3827.397 -4897851 -4884189 -4865906 -4843790 -4819476 -4794604 -4769764 
3830.772 -4745545 -4722504 -4700674 -4680647 -4663077 -4648654 -4638098 
3834.148 -4632198 -4632951 -4642097 -4662225 -4695561 -4742562 -4801388 
3837.523 -4867709 -4933954 -4992655 -5038117 -5067167 -5080169 -5079448 
3840.898 -5068444 -5050497 -5028161 -5003301 -4976900 -4949678 -4921669 
3844.273 -4892674 -4862696 -4831732 -4799552 -4767109 -4734827 -4703330 
3847.649 -4672453 -4641573 -4609052 -4573578 -4535413 -4496883 -4464351 
3851.024 -4447297 -4457530 -4506688 -4599971 -4731877 -4882027 -5022593 
3854.399 -5128634 -5187309 -5200438 -5178207 -5133546 -5077254 -5017057 
3857.774 -4957737 -4901750 -4850343 -4804108 -4763668 -4729255 -4700773 
3861.150 -4677894 -4660226 -4647671 -4640786 -4640655 -4647834 -4661340 
3864.525 -4677926 -4692022 -4697758 -4691268 -4672354 -4645572 -4619379 
3867.900 -4603676 -4607151 -4634459 -4683105 -4743185 -4800535 -4842709 
3871.275 -4863417 -4864236 -4852047 -4835926 -4823572 -4818100 -4819411 
3874.651 -4822687 -4822557 -4814168 -4796341 -4771042 -4743021 -4717587 
3878.026 -4699658 -4692218 -4695758 -4707492 -4721455 -4731091 -4729813 
3881.401 -4713949 -4683925 -4643933 -4601578 -4565709 -4545938 -4548331 
3884.776 -4575546 -4622559 -4678549 -4729878 -4764192 -4775237 -4764684 
3888.152 -4739842 -4710213 -4685892 -4673698 -4676353 -4691366 -4711688 
3891.527 -4729092 -4736532 -4730468 -4711688 -4683729 -4651211 -4617445 
3894.902 -4584955 -4554758 -4526887 -4501572 -4479469 -4461629 -4449232 
3898.277 -4442837 -4442476 -4446871 -4454939 -4465368 -4478092 -4494030 
3901.653 -4514328 -4539937 -4570463 -4603807 -4636295 -4663536 -4682024 
3905.028 -4689563 -4686383 -4674353 -4656423 -4635574 -4613970 -4593217 
3908.403 -4573185 -4554037 -4535281 -4516788 -4498883 -4481765 -4466057 
3911.778 -4451791 -4439197 -4427980 -4418042 -4409875 -4404135 -4402298 
3915.154 -4405545 -4414533 -4429292 -4448052 -4468516 -4487373 -4502392 
3918.529 -4511639 -4514722 -4511902 -4504261 -4493046 -4479371 -4464450 
3921.904 -4449921 -4437098 -4427882 -4423060 -4423618 -4428734 -4436737 
3925.279 -4444936 -4450675 -4451922 -4447593 -4438016 -4424372 -4408235 
3928.655 -4391277 -4374713 -4359853 -4347519 -4338760 -4334430 -4334791 
3932.030 -4339777 -4348077 -4357655 -4366643 -4373204 -4376484 -4376878 
3935.405 -4375500 -4373433 -4371793 -4370383 -4368611 -4365331 -4359394 
3938.780 -4350734 -4340171 -4329772 -4321833 -4318290 -4320488 -4328131 
3942.156 -4339581 -4351718 -4361559 -4366381 -4364741 -4356671 -4343976 
3945.531 -4329411 -4316124 -4306906 -4303691 -4306512 -4314255 -4324589 
3948.906 -4334496 -4341614 -4344140 -4342172 -4336136 -4327968 -4319372 
3952.281 -4312056 -4307136 -4305430 -4306807 -4310515 -4315272 -4319274 
3955.656 -4320914 -4318552 -4311565 -4300508 -4287024 -4273605 -4262844 
3959.032 -4256610 -4255494 -4258480 -4263336 -4267535 -4268881 -4266256 
3962.407 -4259398 -4249227 -4237054 -4224027 -4210672 -4197809 -4185043 
3965.782 -4173065 -4162334 -4153571 -4147467 -4144349 -4143529 -4143824 
3969.157 -4143758 -4142380 -4138934 -4133912 -4128235 -4123312 -4120423 
3972.533 -4119865 -4121604 -4124591 -4127053 -4127677 -4125248 -4119471 
3975.908 -4110380 -4099515 -4087929 -4077163 -4068234 -4061768 -4058124 
3979.283 -4056942 -4057828 -4059962 -4062654 -4065214 -4066954 -4067250 
3982.658 -4066330 -4064033 -4060849 -4057763 -4055366 -4054316 -4054480 
3986.034 -4055498 -4056417 -4056844 -4056483 -4055925 -4056220 -4058222 
3989.409 -4062654 -4069252 -4076703 -4083202 -4087305 -4088126 -4085730 
3992.784 -4081200 -4076112 -4071812 -4068792 -4066954 -4065214 -4063048 
3996.159 -4060061 -4056844 -4054579 -4054645 -4058058 -4064755 -4073815 
3999.535 -4083859 -4092984 -4099614 
##END=
