
##TITLE=Z413_1_a
##JCAMP-DX=5.01  $$ Nicolet v. 1
##DATATYPE=INFRARED SPECTRUM
##ORIGIN=UniL
##OWNER=Nicolet
##LONGDATE=2011/09/21
##TIME=14:48:51
##SPECTROMETER/DATA SYSTEM=Nicolet iS5
##DATA PROCESSING=
Ratio against background
%Transmittance->Absorbance
Truncated
ElementMultiply or ElementDivide
##COMMENTS=
Number of sample scans: 32
Collection length: 51.20 sec
Sample gain: 2.0
Background collected on: Mer Sep 21 14:46:37 2011 (GMT+02:00);
Number of background scans: 32
Background gain: 2.0
Sample spacing:  1.000
Number of scan points: 12415
Resolution points: 8192
Number of FFT points: 65536
Apodization: N-B fort;
Phase correction: Mertz;
Laser frequency: 15798.0 cm-1
Number of rejected sample scans: 0
Number of rejected background scans: 0
Bench serial number: ASB1000141;
##RESOLUTION=4.000
##XUNITS=1/CM
##YUNITS=ABSORBANCE
##FIRSTX=649.893372
##LASTX=4000.122314
##FIRSTY=0.115535
##MAXX=4000.122314
##MINX=649.893372
##MAXY=0.260888
##MINY=-0.004858
##XFACTOR=1.000000
##YFACTOR=1.000000E-009
##NPOINTS=6950
##DELTAX=0.482117
##ZPD=6100
##XYDATA=(X++(Y..Y))
649.893 115535472 115091784 114727992 114461312 114277760 114147504 
652.786 114045176 113966464 113929296 113966680 114106184 114355968 
655.679 114700888 115110272 115551120 116002200 116458944 116925544 
658.571 117405488 117893528 118374816 118833368 119265328 119683400 
661.464 120115112 120589504 121125456 121719856 122350568 122980824 
664.357 123575448 124105928 124544888 124861648 125013408 124949072 
667.250 124636216 124099360 123436256 122772368 122198288 121727840 
670.142 121311704 120869120 120322296 119623032 118762240 117773320 
673.035 116712336 115641448 114600536 113598440 112621544 111650736 
675.928 110677344 109709592 108767440 107869080 107019544 106209064 
678.820 105417544 104628008 103836752 103054872 102302616 101596296 
681.713 100940864 100326528 99736208 99153792 98573912 98002496 97452880 
685.088 96934784 96448208 95980976 95515328 95037056 94542872 94042344 
688.463 93554520 93098768 92685576 92314984 91977832 91662312 91360184 
691.838 91069696 90793424 90535568 90298008 90079584 89880336 89705136 
695.212 89565152 89478712 89464088 89531920 89682240 89903000 90175696 
698.587 90480712 90805392 91145304 91501648 91876336 92265200 92657848 
701.962 93039528 93397144 93724784 94026144 94311192 94591152 94871144 
705.337 95147472 95409072 95643992 95843248 96006064 96137848 96247632 
708.712 96343048 96429752 96512504 96601104 96711792 96869760 97101032 
712.086 97424560 97843408 98339816 98876912 99404912 99876384 100254192 
715.461 100518552 100667472 100712720 100673776 100572136 100433072 
718.354 100286584 100166176 100112768 100166680 100356760 100692744 
721.247 101152232 101679912 102184456 102557960 102694224 102503576 
724.139 101942208 101019416 99802784 98399032 96935688 95535552 94283272 
727.514 93222976 92356624 91658096 91089848 90618504 90224752 89900192 
730.889 89642040 89446464 89302568 89194120 89105184 89023872 88946568 
734.264 88876992 88821048 88782104 88758328 88743328 88730768 88718008 
737.639 88708288 88708168 88724712 88759304 88806776 88856872 88898824 
741.013 88926632 88941808 88952216 88967056 88993568 89032784 89080896 
744.388 89132320 89183624 89235216 89290768 89353280 89420896 89486400 
747.763 89538808 89567960 89569096 89545400 89506512 89464336 89427168 
751.138 89396920 89369648 89339608 89302608 89259832 89216944 89182032 
754.513 89160432 89152904 89155632 89162552 89169832 89177232 89188464 
757.888 89208200 89240104 89283232 89334232 89387800 89441080 89494344 
761.262 89550944 89615000 89689048 89772888 89864696 89963856 90075384 
764.637 90211704 90394656 90653944 91019808 91521408 92174608 92974800 
768.012 93886024 94838328 95732864 96444480 96853360 96869176 96452424 
771.387 95634032 94510624 93231032 91947248 90790936 89844152 89125200 
774.762 88600808 88203920 87864144 87519696 87129472 86673488 86139112 
778.136 85514568 84784584 83929736 82933888 81790328 80504024 79091064 
781.511 77575760 75987880 74358512 72720048 71107016 69550736 68078728 
784.886 66711544 65458900 64322232 63296920 62376452 61556116 60834432 
788.261 60211416 59687588 59260540 58925132 58674060 58501220 58403344 
791.636 58382536 58444888 58598704 58852996 59215048 59689716 60280392 
795.010 60989136 61817112 62765108 63833184 65021372 66331616 67771064 
798.385 69354512 71108496 73066672 75268864 77747992 80515312 83542872 
801.760 86746760 89986640 93049992 95684544 97637416 98676456 98659904 
805.135 97564032 95500920 92694264 89436488 86037632 82733480 79662368 
808.510 76846048 74212152 71636288 68995488 66220732 63310376 60332432 
811.885 57391068 54604880 52071128 49846236 47949860 46367624 45065796 
815.259 44000236 43127888 42410336 41812924 41308476 40876364 40502216 
818.634 40179308 39905676 39681296 39505076 39373440 39279848 39217796 
822.009 39182328 39172176 39189400 39237848 39321052 39440596 39596352 
825.384 39787316 40013136 40274508 40572532 40907668 41278596 41682480 
828.759 42118136 42588436 43103480 43682448 44354800 45154208 46118692 
832.133 47285112 48679636 50312224 52163292 54176940 56246588 58214588 
835.508 59897332 61088288 61607204 61342248 60268740 58466156 56094848 
838.883 53379056 50547380 47797772 45286176 43100664 41273132 39792692 
842.258 38622796 37715092 37019304 36493400 36101044 35812516 35606528 
845.633 35466540 35381484 35343992 35348056 35387128 35454136 35540432 
849.008 35638792 35744732 35857208 35978352 36112132 36262308 36431132 
852.382 36619516 36827604 37056220 37307516 37584432 37890264 38227536 
855.757 38598028 39002796 39444660 39928488 40461264 41052848 41713736 
859.132 42454836 43289004 44231884 45302356 46523156 47916044 49492728 
862.507 51245888 53140340 55108916 57048708 58840704 60362468 61503508 
865.882 62193988 62411112 62188448 61605940 60785572 59872424 59003012 
869.256 58302192 57864276 57743648 57963356 58516276 59374604 60492324 
872.631 61809624 63257100 64746244 66178320 67450616 68457784 69116912 
876.006 69376512 69225632 68695720 67854808 66797636 65621196 64418376 
879.381 63264264 62202900 61251092 60398376 59616200 58866960 58116472 
882.756 57345880 56554908 55764436 55008228 54328164 53761388 53332896 
886.131 53054708 52925152 52933384 53064516 53305100 53644104 54072904 
889.505 54585116 55174112 55833420 56558156 57346260 58199128 59122208 
892.880 60123428 61212100 62397296 63686900 65086068 66594532 68201568 
896.255 69879856 71583152 73237568 74750896 76024112 76956984 77475504 
899.630 77539392 77149560 76345344 75198456 73804360 72261368 70669024 
903.005 69118192 67678200 66402072 65323472 64457044 63805356 63362436 
906.379 63119016 63065372 63193700 63498484 63975520 64621808 65434904 
909.754 66413536 67557752 68867768 70342184 71974352 73748792 75637368 
913.129 77602776 79600152 81582976 83515248 85373792 87154296 88869512 
916.504 90547528 92223856 93932256 95697344 97522264 99379712 101201632 
919.879 102880872 104283824 105256312 105664368 105422904 104520136 
922.771 103035800 101139848 99087816 97164016 95664512 94854816 94908040 
926.146 95892992 97742264 100266880 103155704 106022752 108492560 110221000 
929.521 110976456 110671704 109351208 107165224 104309440 100996720 97405440 
932.896 93668464 89887680 86136488 82478280 78980488 75709512 72730552 
936.271 70103976 67872280 66063844 64691788 63755512 63243792 63133344 
939.646 63388736 63953252 64748824 65682552 66642628 67516720 68208616 
943.020 68640920 68772448 68600632 68159808 67513088 66739292 65925488 
946.395 65146120 64458540 63899704 63484140 63210072 63065188 63033500 
949.770 63098596 63244680 63458600 63726304 64033844 64368920 64720712 
953.145 65082796 65453388 65834328 66229680 66642664 67075372 67528256 
956.520 68001096 68494088 69008184 69544672 70104096 70684896 71283928 
959.894 71896888 72520656 73153960 73797760 74454000 75123960 75806952 
963.269 76499864 77199464 77903448 78612944 79331912 80065864 80819440 
966.644 81594928 82391304 83206336 84038000 84887176 85757552 86655168 
970.019 87584992 88550584 89552776 90591400 91667752 92785624 93951592 
973.394 95173536 96458512 97809168 99225408 100704608 102244416 103844744 
976.768 105507688 107236312 109032136 110893168 112814664 114790872 
979.661 116818168 118897144 121031792 123227360 125485792 127803656 
982.554 130171168 132573936 134993792 137411392 139801456 142127248 
985.447 144339760 146370432 148136384 149556400 150555168 151081520 
988.339 151117360 150678944 149816288 148603728 147142128 145543280 
991.232 143920544 142388992 141043616 139955184 139168416 138697920 
994.125 138535888 138659760 139043296 139661488 140492640 141520272 
997.017 142726864 144092992 145598368 147220480 148939104 150736640 
999.910 152594112 154486560 156380304 158226304 159966224 161540816 
1002.803 162894048 163987360 164802800 165344496 165636480 165720768 
1005.695 165658032 165518640 165384448 165342832 165470576 165832496 
1008.588 166471904 167407520 168638448 170150080 171923328 173936432 
1011.481 176167472 178593568 181184464 183904368 186716720 189585344 
1014.374 192483616 195393680 198298848 201174848 203978192 206636256 
1017.266 209057408 211138752 212783776 213929088 214554320 214693744 
1020.159 214429824 213895568 213262208 212708832 212425792 212582448 
1023.052 213301392 214659200 216670512 219297120 222454272 226033472 
1025.945 229920000 233992336 238137264 242243408 246189792 249857984 
1028.838 253131712 255905392 258103248 259677504 260606704 260888192 
1031.731 260527376 259534656 257926016 255729584 252989472 249761008 
1034.624 246108992 242096368 237777136 233204224 228432368 223525840 
1037.517 218569408 213659184 208894528 204374768 200179664 196369856 
1040.410 192987968 190053680 187566288 185497280 183789360 182347168 
1043.303 181039216 179722816 178249520 176498320 174402944 171956512 
1046.196 169216208 166282784 163292208 160385616 157687984 155309280 
1049.089 153325472 151778640 150680816 150014368 149739344 149798384 
1051.982 150131392 150679600 151389648 152219072 153127664 154071232 
1054.875 155000368 155852672 156557088 157045568 157253792 157131440 
1057.768 156648688 155793040 154574048 153021600 151191824 149163312 
1060.661 147031120 144907936 142902736 141111664 139615648 138467696 
1063.554 137696864 137310368 137295872 137622304 138237792 139075024 
1066.448 140045504 141045456 141973488 142730960 143238112 143443936 
1069.341 143321152 142865520 142088960 141013680 139667984 138082288 
1072.234 136291008 134327808 132224184 130011736 127719920 125381184 
1075.127 123036640 120734648 118533680 116500112 114695200 113174192 
1078.020 111979632 111133960 110641480 110486168 110633792 111027712 
1080.913 111590760 112234496 112854752 113350816 113642776 113677904 
1083.806 113447144 112984304 112364432 111685792 111055480 110582832 
1086.699 110357512 110448816 110901856 111732368 112928440 114448456 
1089.592 116229952 118188264 120226224 122252080 124178120 125931952 
1092.485 127461720 128727200 129700080 130361232 130698088 130706488 
1095.378 130393800 129780216 128899024 127795072 126527784 125162784 
1098.271 123769840 122419168 121164560 120037480 119036856 118127456 
1101.164 117242704 116296720 115209968 113920240 112402464 110673848 
1104.057 108791792 106842712 104921632 103128224 101548072 100243928 
1106.950 99259760 98614616 98306536 98315552 98607512 99139056 99857576 
1110.326 100710416 101642600 102596352 103515360 104339480 105005544 
1113.219 105456784 105642640 105527584 105097040 104356752 103331288 
1116.112 102056744 100578656 98945520 97202728 95395488 93562536 91733560 
1119.487 89930672 88164624 86438280 84748528 83091248 81465288 79874504 
1122.862 78327848 76837744 75417408 74077536 72825912 71667240 70604736 
1126.238 69642136 68785768 68044000 67427976 66949064 66616400 66434852 
1129.613 66402144 66507832 66730208 67038292 67393144 67747752 68056168 
1132.988 68278920 68387264 68371872 68243088 68031288 67778384 67534568 
1136.363 67350160 67263728 67301992 67473184 67766880 68154464 68592016 
1139.739 69029592 69410760 69683288 69806272 69748264 69492368 69033664 
1143.114 68376760 67533440 66521152 65364144 64090604 62733180 61328700 
1146.489 59911788 58515932 57171452 55902040 54727536 53663300 52720128 
1149.864 51905192 51221580 50668636 50241692 49933360 49734724 49636424 
1153.240 49630444 49710348 49871360 50109252 50420128 50799456 51242232 
1156.615 51744212 52301780 52912688 53574944 54286300 55042980 55839036 
1159.990 56666716 57517236 58380604 59245580 60099604 60926000 61703704 
1163.365 62408432 63011856 63485368 63803672 63943772 63888760 63627556 
1166.740 63155344 62473968 61593228 60530872 59310636 57960632 56512412 
1170.116 54995140 53436756 51862924 50295520 48754920 47260288 45827704 
1173.491 44472360 43206756 42040416 40980272 40031008 39194836 38472924 
1176.866 37865752 37373200 36995164 36731424 36581956 36547208 36628636 
1180.241 36829156 37153188 37605856 38192224 38916752 39782052 40788712 
1183.617 41934608 43214732 44617812 46123812 47702684 49308660 50882076 
1186.992 52356612 53657828 54716672 55478244 55902984 55975384 55703596 
1190.367 55119488 54272372 53223820 52044044 50798412 49546392 48339372 
1193.742 47214664 46200868 45318028 44578232 43988832 43551700 43263232 
1197.118 43113432 43084636 43153248 43287136 43449224 43601628 43703736 
1200.493 43718796 43616684 43373940 42979232 42433684 41751816 40958608 
1203.868 40086384 39172320 38249468 37346476 36485000 35677312 34930120 
1207.243 34245016 33621448 33058092 32553994 32108382 31720500 31390018 
1210.619 31116350 30900058 30742620 30646606 30615246 30651050 30755424 
1213.994 30927808 31165936 31465750 31821814 32227698 32674972 33153102 
1217.369 33650304 34153496 34649656 35128532 35582180 36006324 36399276 
1220.744 36761284 37094000 37400104 37684016 37951912 38212052 38474304 
1224.120 38748628 39043756 39366288 39719128 40101612 40509456 40935632 
1227.495 41371048 41805008 42228148 42632660 43015816 43380236 43735396 
1230.870 44096604 44481756 44910784 45402988 45974352 46640376 47415216 
1234.245 48312484 49346632 50531484 51878832 53397712 55092968 56964872 
1237.621 59009272 61218244 63578680 66070520 68667416 71335744 74035448 
1240.996 76727896 79376304 81949752 84425776 86785968 89013624 91091320 
1244.371 92997080 94704464 96184368 97401672 98319456 98901288 99110792 
1247.746 98919472 98310816 97282768 95848040 94031320 91866424 89389384 
1251.122 86639272 83659928 80498200 77209648 73857576 70505224 67218504 
1254.497 64059460 61077800 58315756 55802036 53550612 51562580 49825352 
1257.872 48316076 47001244 45841768 44796748 43823388 42884536 41950412 
1261.247 40999316 40020728 39013848 37986448 36952196 35928428 34934072 
1264.623 33985556 33097136 32279160 31536896 30871988 30282516 29763884 
1267.998 29309956 28914154 28571506 28278140 28031976 27832614 27679780 
1271.373 27573108 27511964 27495196 27522060 27592774 27708458 27870910 
1274.748 28081422 28339782 28643208 28984600 29351574 29727160 30088370 
1278.124 30407482 30657166 30811122 30850358 30767018 30565046 30260028 
1281.499 29874292 29435174 28968272 28494582 28030562 27587338 27172748 
1284.874 26793442 26455316 26164500 25926566 25746168 25626894 25572102 
1288.249 25584788 25668582 25827146 26063232 26377604 26767646 27228166 
1291.625 27749780 28320332 28925524 29546454 30161174 30745962 31275346 
1295.000 31727664 32089294 32356724 32538924 32655358 32734382 32805704 
1298.375 32898798 33039786 33247560 33535536 33909996 34369764 34904484 
1301.750 35493648 36109292 36714912 37271664 37745308 38107032 38340116 
1305.125 38440416 38416636 38287640 38079144 37822732 37549028 37285924 
1308.501 37056720 36876660 36753424 36687620 36675144 36709108 36782272 
1311.876 36889032 37024496 37184992 37366624 37564600 37774008 37990352 
1315.251 38210204 38431404 38653436 38876164 39099656 39323848 39549204 
1318.626 39777256 40010628 40253244 40508472 40777248 41056564 41338796 
1322.002 41611220 41856816 42058048 42197220 42260468 42241256 42142668 
1325.377 41979644 41777608 41572712 41406076 41315252 41332200 41474968 
1328.752 41746200 42133508 42614640 43163164 43752620 44361884 44976564 
1332.127 45586772 46187492 46775712 47350292 47911160 48459156 48994832 
1335.503 49517460 50023732 50506548 50956476 51361148 51707336 51983612 
1338.878 52179768 52289036 52308172 52238212 52083792 51853744 51560492 
1342.253 51218632 50844824 50458016 50076416 49717892 49399052 49132532 
1345.628 48927552 48789392 48718328 48708952 48749356 48821096 48898256 
1349.004 48950732 48949804 48870260 48696648 48426856 48073316 47662676 
1352.379 47231324 46825092 46489964 46266764 46188448 46271336 46513936 
1355.754 46895328 47379596 47919412 48461788 48959856 49372916 49671416 
1359.129 49839916 49875932 49790568 49606632 49360628 49099328 48872816 
1362.505 48732344 48717144 48845636 49111908 49484856 49915440 50338680 
1365.880 50686876 50895112 50905916 50683752 50219228 49534692 48677524 
1369.255 47713668 46714832 45740004 44835100 44026712 43324476 42728328 
1372.630 42234244 41840504 41549268 41365436 41291896 41324800 41451240 
1376.006 41652280 41905344 42191340 42497624 42819516 43160640 43532544 
1379.381 43954256 44448832 45043488 45765148 46632076 47646072 48780756 
1382.756 49980084 51152352 52179844 52941844 53315552 53203516 52553608 
1386.131 51377220 49763852 47867872 45890380 44017284 42380528 41048332 
1389.507 40024540 39273392 38738920 38364548 38097300 37890192 37704796 
1392.882 37507952 37274264 36991052 36659892 36296204 35921916 35557944 
1396.257 35215836 34896408 34593496 34301808 34022392 33767436 33558408 
1399.632 33418648 33367374 33412422 33550356 33769800 34056724 34397632 
1403.008 34781448 35200928 35651128 36128016 36627592 37145248 37675812 
1406.383 38215524 38762468 39317392 39883084 40462972 41059152 41672120 
1409.758 42299656 42938888 43587524 44244504 44909864 45582836 46260092 
1413.133 46934680 47597376 48238648 48853464 49443048 50015924 50585868 
1416.509 51169948 51785720 52448576 53170748 53957900 54803540 55687852 
1419.884 56577896 57433948 58215992 58891436 59440708 59858272 60157792 
1423.259 60371192 60547324 60737248 60981592 61300616 61690608 62131672 
1426.634 62597492 63067028 63527324 63973984 64410076 64844296 65290392 
1430.010 65766276 66296840 66910252 67630696 68474536 69442792 70523040 
1433.385 71691272 72922312 74197488 75504920 76842448 78212352 79617672 
1436.760 81053432 82509096 83972704 85429048 86860992 88243344 89543280 
1440.135 90713096 91694024 92428144 92857016 92931416 92616832 91892008 
1443.510 90755528 89229440 87366232 85244144 82954984 80603456 78286152 
1446.886 76086088 74073528 72294872 70769472 69485720 68408328 67488808 
1450.261 66681876 65963476 65336220 64829336 64481100 64323232 64358808 
1453.636 64556868 64847296 65131180 65300748 65248644 64911700 64306400 
1457.011 63547380 62804504 62228904 61913088 61880344 62116724 62597448 
1460.387 63296884 64187272 65229976 66375120 67552024 68668384 69628752 
1463.762 70340200 70741240 70822280 70631016 70253208 69776856 69276776 
1467.137 68799512 68367136 67987808 67656976 67357048 67051248 66682412 
1470.512 66176272 65451624 64452580 63177988 61700380 60144700 58645920 
1473.888 57302432 56155552 55206620 54441616 53850576 53433948 53195728 
1477.263 53130456 53214640 53405508 53651940 53900576 54110360 54258704 
1480.638 54341684 54373604 54379496 54391964 54443568 54568400 54804892 
1484.013 55192924 55773780 56582912 57638632 58931468 60413072 62000904 
1487.389 63570356 64964412 66017820 66558116 66442608 65596416 64032384 
1490.764 61861620 59257388 56416604 53501928 50615952 47815604 45116932 
1494.139 42523348 40053428 37747768 35672676 33907668 32517426 31532514 
1497.514 30943106 30713954 30797748 31150274 31735544 32520174 33469572 
1500.890 34546996 35709080 36910168 38106992 39247316 40271236 41104680 
1504.265 41640576 41745288 41273568 40114728 38269804 35899708 33288948 
1507.640 30714062 28346220 26232426 24342272 22624650 21041938 19578128 
1511.015 18238744 17037920 15984764 15079308 14310260 13661239 13115351 
1514.391 12658324 12278290 11962002 11695841 11467912 11270637 11105369 
1517.766 10979447 10900682 10870649 10880705 10912574 10946009 10967349 
1521.141 10979752 11003677 11067606 11191004 11374161 11601565 11850812 
1524.516 12104223 12353248 12602585 12865582 13157767 13487438 13852899 
1527.892 14245441 14655509 15078897 15518356 15981292 16475488 17004082 
1531.267 17564956 18150880 18753264 19366810 19992152 20634832 21298646 
1534.642 21983100 22680400 23378470 24061870 24716040 25329714 25891218 
1538.017 26390912 26819312 27167562 27428732 27600332 27690552 27716156 
1541.393 27697580 27653120 27589950 27503210 27378936 27203084 26968950 
1544.768 26686036 26377744 26074770 25801790 25566832 25361398 25166208 
1548.143 24962228 24739752 24505784 24281370 24093810 23961998 23889352 
1551.518 23864392 23868942 23888022 23916414 23960668 24035394 24153986 
1554.894 24319390 24521596 24737858 24939380 25092586 25162486 25121584 
1558.269 24962158 24713970 24440618 24215466 24082568 24046146 24084668 
1561.644 24167016 24264096 24350368 24408898 24432662 24426282 24404410 
1565.019 24387026 24391092 24422322 24473848 24528186 24565246 24567876 
1568.395 24528922 24454464 24363474 24280494 24225802 24210140 24233790 
1571.770 24290094 24368662 24457722 24543964 24609882 24635272 24601466 
1575.145 24498424 24334178 24137524 23950166 23805690 23716518 23672464 
1578.520 23650454 23624248 23572122 23483348 23355672 23194794 23008402 
1581.896 22802986 22581614 22344272 22091440 21826528 21555752 21286988 
1585.271 21025662 20772972 20526160 20281188 20036114 19793708 19560520 
1588.646 19344048 19149364 18976778 18822566 18681794 18551960 18433784 
1592.021 18330808 18245552 18176100 18115226 18052324 17976826 17883800 
1595.396 17775296 17660020 17548810 17450356 17368618 17303202 17252520 
1598.772 17217010 17201600 17214596 17265034 17358894 17497374 17677480 
1602.147 17894090 18142622 18419470 18720710 19037704 19355168 19651028 
1605.522 19897410 20066024 20135362 20093404 19941084 19690202 19360990 
1608.897 18975394 18553066 18112532 17670474 17243280 16848156 16498202 
1612.273 16199738 15950011 15737427 15544214 15350434 15139139 14900034 
1615.648 14632719 14348718 14070242 13822488 13625783 13490411 13415975 
1619.023 13394207 13411395 13451107 13497213 13534710 13554332 13555733 
1622.398 13548691 13549477 13575390 13637442 13736710 13866411 14016717 
1625.774 14179434 14349985 14526154 14705993 14885324 15057765 15217063 
1629.149 15359977 15488962 15610670 15733579 15863707 16001059 16138555 
1632.524 16263472 16360005 16411824 16406558 16339604 16217932 16059194 
1635.899 15888315 15728803 15594081 15486112 15397704 15317757 15232678 
1639.275 15130596 15003879 14850350 14675592 14490078 14307452 14137362 
1642.650 13982805 13838258 13691091 13525105 13323921 13077754 12787192 
1646.025 12466578 12140715 11839134 11587544 11399502 11277064 11212662 
1649.400 11193282 11201408 11213682 11201816 11128723 10956781 10666717 
1652.776 10282924 9879302 9539318 9310858 9188433 9137165 9116997 9098116 
1656.633 9063978 9008969 8935940 8851222 8760908 8668145 8571414 8466900 
1660.490 8350657 8220533 8077249 7924428 7767681 7613620 7468277 7337103 
1664.348 7223655 7129165 7051736 6986106 6923482 6852586 6761710 6642289 
1668.205 6491688 6315486 6126418 5941128 5773678 5632172 5517792 5426491 
1672.063 5350774 5280973 5206791 5116628 5000775 4854863 4684583 4506300 
1675.920 4340708 4205188 4106102 4038239 3989114 3944608 3895192 3837992 
1679.778 3778227 3724886 3686088 3662563 3645489 3616854 3555048 3442684 
1683.635 3278832 3085308 2899842 2756335 2667680 2625942 2612642 2610009 
1687.492 2604308 2588375 2560444 2521616 2474861 2423579 2372204 2325898 
1691.350 2290122 2269271 2263676 2268805 2273867 2265074 2228571 2157472 
1695.207 2058485 1953097 1869198 1825341 1823943 1850263 1881876 1893258 
1699.065 1863075 1783119 1664626 1536655 1429765 1362452 1333071 1328584 
1702.922 1332406 1330977 1314958 1279996 1226696 1159913 1087228 1016448 
1706.780 953118 899990 856829 821174 789904 759731 729395 698596 669425 
1711.119 644305 625324 612948 605814 601401 597220 591547 583849 574227 
1715.459 561620 543075 514047 471222 415268 353153 296717 256466 238763 
1719.798 242940 262666 289555 315815 336606 350998 361775 372586 387078 
1724.138 406380 429098 452681 475203 496034 516070 536572 557407 577213 
1728.478 593571 604686 610459 613180 615204 617095 615270 600505 559065 
1732.817 478851 354679 197590 33135 -107274 -202600 -249825 -260090 -250619 
1737.157 -237108 -232240 -242539 -268832 -306580 -348761 -388256 -419704 
1741.014 -441452 -453401 -456943 -453599 -445060 -433441 -420863 -409078 
1744.872 -399346 -391434 -384582 -377961 -371671 -366639 -365513 -370942 
1748.729 -385442 -410469 -446185 -491100 -542231 -595738 -646162 -688344 
1752.586 -718347 -734291 -737434 -731910 -724368 -721556 -729694 -750400 
1756.444 -780863 -813440 -839665 -853951 -855473 -848991 -842079 -843005 
1760.301 -857721 -887747 -929805 -977446 -1023298 -1061476 -1089206 -1106161 
1764.159 -1114060 -1114886 -1111416 -1106723 -1104377 -1107384 -1117200 
1767.534 -1132633 -1149421 -1161846 -1166308 -1162276 -1154114 -1149322 
1770.909 -1156394 -1180285 -1219903 -1267282 -1310790 -1341445 -1355912 
1774.284 -1357036 -1351354 -1345111 -1341511 -1340223 -1338406 -1333418 
1777.660 -1324433 -1313994 -1306264 -1305571 -1313433 -1327934 -1344285 
1781.035 -1356837 -1362585 -1361891 -1358555 -1356771 -1360206 -1369125 
1784.410 -1381312 -1392872 -1400799 -1403970 -1403375 -1400700 -1397199 
1787.785 -1392707 -1385936 -1375829 -1363080 -1350297 -1341973 -1342964 
1791.161 -1355813 -1379298 -1408098 -1435807 -1456711 -1468962 -1473981 
1794.536 -1475203 -1475996 -1477647 -1480288 -1482864 -1484614 -1485836 
1797.911 -1487586 -1491846 -1499044 -1508587 -1518294 -1525789 -1529487 
1801.286 -1529289 -1526813 -1523808 -1521398 -1519582 -1517172 -1512978 
1804.662 -1506540 -1498648 -1490888 -1485275 -1482534 -1482435 -1483458 
1808.037 -1484152 -1483458 -1481675 -1479694 -1478505 -1478769 -1479958 
1811.412 -1481114 -1481939 -1482699 -1485011 -1490657 -1500596 -1514002 
1814.787 -1528926 -1541407 -1547911 -1546458 -1536421 -1519384 -1497723 
1818.163 -1473618 -1447926 -1421308 -1393335 -1364269 -1334706 -1305835 
1821.538 -1278448 -1253571 -1231468 -1212403 -1197138 -1185969 -1178997 
1824.913 -1175065 -1171562 -1165118 -1153089 -1135112 -1112804 -1091156 
1828.288 -1075589 -1070003 -1075325 -1087488 -1099650 -1103682 -1094891 
1831.664 -1072879 -1041478 -1006273 -972157 -942005 -916017 -891880 -866980 
1835.521 -839698 -809306 -776464 -741833 -704884 -664293 -617907 -563939 
1839.378 -501856 -432713 -358627 -282276 -205680 -130859 -59471 6792 66836 
1843.718 120657 169778 217844 268767 325000 385917 447971 504526 548449 
1848.058 574261 579635 565900 537136 498091 452382 400775 342210 275000 
1852.397 199247 117476 34261 -45755 -119001 -185047 -245851 -304792 -364520 
1856.737 -426027 -488055 -549015 -607286 -662440 -715403 -767004 -816450 
1860.594 -862086 -901072 -930698 -950932 -964123 -973711 -983860 -996720 
1864.452 -1011893 -1027661 -1041478 -1052320 -1061740 -1072945 -1089206 
1867.827 -1112077 -1139705 -1167134 -1188877 -1200805 -1201995 -1195485 
1871.202 -1185606 -1176023 -1169249 -1165944 -1165118 -1166704 -1171165 
1874.577 -1179327 -1192578 -1211015 -1233252 -1256908 -1279274 -1298865 
1877.953 -1315811 -1331304 -1346994 -1363278 -1379859 -1395019 -1407569 
1881.328 -1417742 -1426923 -1438118 -1453540 -1473354 -1495973 -1518096 
1884.703 -1535992 -1547746 -1553325 -1554778 -1555240 -1556924 -1561216 
1888.078 -1567885 -1576040 -1584887 -1594032 -1603011 -1610901 -1615985 
1891.454 -1616678 -1611660 -1601724 -1589443 -1579374 -1575148 -1578912 
1894.829 -1589179 -1601658 -1611000 -1612486 -1604794 -1589707 -1571120 
1898.204 -1553325 -1539261 -1530148 -1525690 -1525558 -1530742 -1542562 
1901.579 -1561744 -1587594 -1616678 -1642921 -1661174 -1667677 -1662330 
1904.955 -1649259 -1634305 -1622356 -1616117 -1614664 -1614334 -1612651 
1908.330 -1608425 -1603044 -1600436 -1603572 -1613476 -1628166 -1642987 
1911.705 -1652790 -1654540 -1647113 -1631533 -1610637 -1586769 -1562107 
1915.080 -1538831 -1519945 -1508554 -1508686 -1522422 -1548373 -1581454 
1918.456 -1614103 -1638795 -1651833 -1654441 -1651503 -1650183 -1656487 
1921.831 -1672265 -1695534 -1721574 -1745204 -1762628 -1773452 -1777972 
1925.206 -1777247 -1770812 -1756985 -1734577 -1704247 -1670218 -1639521 
1928.581 -1619286 -1613839 -1623313 -1643383 -1667281 -1688570 -1704511 
1931.957 -1715369 -1723884 -1732366 -1740253 -1744214 -1739989 -1724511 
1935.332 -1698273 -1666027 -1635032 -1611462 -1598687 -1595716 -1598456 
1938.707 -1602450 -1604035 -1602648 -1599908 -1597729 -1597597 -1598885 
1942.082 -1601262 -1604299 -1609548 -1619088 -1633843 -1651437 -1666918 
1945.458 -1672892 -1663749 -1638432 -1601625 -1563032 -1534143 -1521596 
1948.833 -1525789 -1540482 -1554778 -1557981 -1545005 -1517799 -1483359 
1952.208 -1451757 -1431249 -1425635 -1435377 -1457206 -1486662 -1520837 
1955.583 -1557518 -1593240 -1625888 -1651833 -1667512 -1673255 -1671077 
1958.958 -1665201 -1660712 -1659128 -1658897 -1656586 -1648070 -1632292 
1962.334 -1613773 -1599743 -1596871 -1609713 -1636946 -1671770 -1705963 
1965.709 -1732300 -1746623 -1750847 -1748174 -1740946 -1730089 -1714346 
1969.084 -1692530 -1665663 -1638960 -1617998 -1608458 -1612222 -1624733 
1972.459 -1638630 -1646189 -1642162 -1625954 -1599908 -1564716 -1517898 
1975.835 -1452219 -1358753 -1233615 -1082034 -919621 -769419 -652713 -583429 
1979.692 -563807 -586639 -637461 -702502 -771536 -839037 -901899 -959065 
1983.550 -1006472 -1040453 -1058336 -1060848 -1053939 -1045973 -1045874 
1986.925 -1058236 -1081406 -1109499 -1134715 -1151338 -1158211 -1158443 
1990.300 -1156295 -1154907 -1151801 -1141986 -1118951 -1079225 -1024554 
1993.675 -962569 -902494 -852827 -818566 -799516 -792571 -794754 -803684 
1997.533 -818665 -840161 -867708 -898195 -927656 -952386 -970636 -985645 
2001.390 -1002901 -1028719 -1067524 -1119480 -1180087 -1242701 -1299823 
2004.765 -1344285 -1372626 -1381312 -1367308 -1329190 -1266786 -1183193 
2008.141 -1087554 -993282 -912248 -855109 -824618 -814994 -817475 -820484 
2011.998 -815061 -799285 -775009 -746266 -716859 -688906 -661083 -632101 
2015.855 -602323 -573039 -547658 -528265 -513439 -499407 -482395 -458928 
2019.713 -430363 -402656 -381702 -373160 -378093 -391169 -404974 -412124 
2023.570 -408549 -395837 -378457 -362467 -351078 -345086 -342040 -339093 
2027.428 -335981 -334061 -335187 -341080 -348529 -351244 -342338 -316712 
2031.285 -273369 -216609 -152555 -87166 -22530 43043 112968 189800 271386 
2035.625 352258 424521 481837 522904 550008 569052 585773 603491 621177 
2039.964 636573 646063 648453 645599 640754 636142 632027 625955 612881 
2044.304 590120 558269 521710 489002 471156 475435 507512 567824 651240 
2048.644 748745 848297 935751 997817 1024884 1013492 968028 900754 827648 
2052.983 766469 730888 725379 746156 782767 821805 852148 870707 878575 
2057.323 881663 885880 893715 904274 914235 920510 922104 921473 922137 
2061.662 927417 938242 952155 964807 972910 975135 972578 968460 964741 
2066.002 961420 956206 944949 924893 896371 862340 827913 799132 779149 
2070.342 768561 765905 768859 775498 785589 799929 818751 841325 865859 
2074.681 889366 910151 927749 943057 957335 971249 984201 994230 1000042 
2079.021 1001703 1001935 1004924 1015153 1034781 1063213 1096197 1127456 
2082.878 1152405 1167953 1174299 1174830 1173169 1172405 1173867 1176957 
2086.736 1179448 1179482 1174997 1164564 1146956 1121377 1087427 1046140 
2090.593 1000806 955409 915297 885547 868914 865893 875056 893748 919913 
2094.933 952753 991640 1035878 1084039 1132107 1175727 1211345 1236963 
2098.790 1253811 1265474 1275444 1286311 1299138 1312033 1322834 1331442 
2102.647 1338090 1345900 1358530 1377975 1404733 1437278 1472551 1507794 
2106.505 1541942 1574963 1607453 1640479 1673340 1704907 1734647 1762358 
2110.362 1789773 1819152 1852360 1889530 1928601 1965212 1994503 2013178 
2114.220 2019170 2013244 1998198 1977195 1952731 1927869 1904539 1884605 
2118.077 1870762 1864772 1867501 1877850 1892825 1908400 1921479 1930298 
2121.935 1935823 1940616 1947838 1959621 1975996 1995735 2016773 2038144 
2125.792 2060449 2085252 2114152 2147416 2183246 2216881 2243925 2259812 
2129.649 2262543 2252451 2232601 2206890 2179783 2156340 2140889 2138225 
2133.507 2152510 2186110 2238163 2303979 2375269 2443738 2501887 2545912 
2137.364 2577343 2600942 2621942 2643777 2667313 2688917 2704387 2709855 
2141.222 2702753 2684149 2656878 2622742 2584776 2544313 2501987 2459066 
2145.079 2418049 2380266 2346685 2317636 2289589 2259279 2224641 2184112 
2148.937 2137992 2087782 2031919 1967409 1889963 1794531 1679095 1546165 
2152.794 1401642 1252913 1106494 964575 825589 689005 557241 441669 362239 
2157.134 343172 404489 553923 777788 1046506 1322203 1566948 1756370 1882009 
2161.473 1947838 1965812 1951499 1918950 1877916 1837186 1802582 1777296 
2165.331 1762791 1756736 1753576 1746589 1729657 1699019 1653982 1596512 
2169.188 1529041 1453302 1368469 1273383 1167388 1052219 933294 818850 
2173.045 717613 637038 580067 547354 534615 536937 548615 563710 575555 
2177.385 578474 567559 540255 499119 451055 405915 373548 361377 369071 
2181.725 391356 418386 439811 449695 447142 435334 420409 408270 400178 
2186.064 396729 395867 395734 395966 398785 404755 415434 429961 446279 
2190.404 462399 477757 492385 507180 523634 540288 555283 566995 573464 
2194.743 575090 574659 574460 576218 580498 585044 587399 586105 582157 
2199.083 578142 577943 583152 593471 606146 615801 618157 611786 597419 
2203.423 578043 557904 539823 525094 514644 508374 506848 511393 522274 
2207.762 538098 555880 570611 577811 575090 563942 548117 533719 525558 
2212.102 525525 532658 543904 555814 566431 575953 585342 596059 607672 
2216.441 618323 625324 626884 622935 615469 607307 600671 595296 590120 
2220.781 581726 568222 549710 529207 510730 498622 494774 498290 506616 
2225.121 516336 524662 530700 535842 541217 547852 556113 565004 573531 
2229.460 582157 591049 601832 616067 633421 653298 674436 695012 714958 
2233.800 735203 756379 779614 804875 830669 855302 877612 897102 914467 
2238.139 931335 948170 965206 981909 996754 1008610 1017777 1024319 1029600 
2242.479 1034615 1040195 1046738 1055241 1066534 1082046 1103472 1130578 
2246.336 1162239 1195928 1228357 1256270 1278734 1295184 1306616 1314227 
2250.194 1317749 1316852 1311668 1302894 1293688 1288869 1293755 1311435 
2254.051 1342643 1383459 1427604 1467996 1498750 1517004 1523189 1519897 
2257.909 1509689 1495126 1477272 1456128 1431992 1405398 1377643 1350420 
2261.766 1324928 1301598 1280927 1263680 1251484 1247464 1254575 1274447 
2265.624 1306151 1346066 1387747 1424679 1451872 1467398 1472451 1470390 
2269.481 1465270 1459818 1455463 1451773 1447650 1441999 1434851 1426806 
2273.338 1418629 1411747 1406595 1404002 1405398 1411914 1425310 1446653 
2277.196 1475244 1509456 1545933 1581048 1612509 1639747 1663528 1686413 
2281.053 1710995 1738505 1769012 1801085 1832095 1859381 1880578 1894023 
2284.911 1899181 1896852 1888432 1876286 1863574 1852659 1845405 1842377 
2288.768 1842643 1843542 1842810 1838251 1829068 1816690 1802915 1790006 
2292.625 1779792 1772239 1766617 1762092 1757335 1752444 1748419 1746523 
2296.483 1747687 1752245 1759464 1767748 1775999 1783085 1788375 1791935 
2300.340 1793499 1792967 1789972 1784183 1775699 1765186 1753675 1742331 
2304.198 1732351 1724201 1717947 1713855 1711660 1711760 1714121 1719244 
2308.055 1726330 1734513 1742364 1748519 1752345 1753509 1752910 1751413 
2311.913 1750216 1749617 1749750 1750182 1750349 1749983 1748685 1746756 
2315.770 1744294 1741599 1738971 1736776 1735378 1734879 1735578 1737740 
2319.627 1741799 1748153 1757302 1769811 1784982 1800819 1813396 1817056 
2323.485 1806076 1775467 1722903 1650257 1563124 1469027 1376845 1294320 
2327.342 1225865 1173136 1134864 1107923 1089155 1076167 1067331 1061751 
2331.200 1058563 1056204 1053016 1048034 1041125 1033586 1027840 1026046 
2335.057 1029966 1039697 1054278 1071816 1090816 1110315 1130080 1150179 
2338.915 1170312 1189781 1207956 1224004 1238060 1251351 1265375 1281425 
2342.772 1300036 1320541 1341978 1364314 1388578 1418230 1457325 1509789 
2346.629 1576858 1657142 1745558 1835523 1919615 1990809 2043804 2075630 
2350.487 2085485 2075164 2048364 2010282 1966277 1921412 1879514 1842311 
2354.344 1810235 1782653 1758167 1735312 1713124 1691602 1670513 1651222 
2358.202 1634359 1621422 1613406 1611311 1615502 1626111 1642175 1662298 
2362.059 1684650 1707868 1731120 1754175 1777962 1803248 1830831 1860812 
2365.917 1892159 1923975 1955693 1986914 2018703 2052726 2090379 2133098 
2369.774 2181248 2234366 2291721 2352182 2414350 2477227 2539580 2600142 
2373.631 2657812 2712255 2763571 2813225 2863519 2916054 2972331 3032519 
2377.489 3095519 3159196 3221580 3280868 3336425 3388316 3437006 3483063 
2381.346 3526887 3568411 3607666 3645188 3681643 3717902 3754831 3792633 
2385.204 3830939 3868981 3906024 3941732 3976574 4011385 4047135 4084294 
2389.061 4122392 4160293 4196557 4229914 4259626 4286094 4310355 4333178 
2392.918 4355601 4377624 4399380 4420434 4440886 4460938 4481191 4502216 
2396.776 4524213 4547516 4571859 4597241 4623763 4651325 4680162 4709704 
2400.633 4739616 4769296 4798374 4827054 4856203 4887399 4922283 4961997 
2404.491 5007478 5058161 5113409 5171715 5231338 5291069 5349701 5406731 
2408.348 5461923 5515746 5569306 5623814 5680544 5740136 5802321 5865220 
2412.206 5926919 5984831 6037106 6083406 6124772 6163284 6201397 6240992 
2416.063 6282641 6325505 6368474 6408958 6445848 6478100 6505948 6530401 
2419.920 6553341 6576619 6602254 6631825 6666346 6705949 6750066 6797183 
2423.778 6845618 6894361 6942537 6990752 7040084 7091981 7147556 7207484 
2427.635 7271295 7338282 7408011 7479975 7554715 7632909 7715332 7802426 
2431.493 7894126 7989728 8088287 8189062 8291214 8394131 8497884 8601627 
2435.350 8705228 8809054 8913279 9018983 9127182 9238489 9353277 9471178 
2439.208 9591075 9711716 9832426 9952660 10071910 10190108 10306743 10420558 
2443.065 10530432 10635206 10734162 10827979 10917603 11004492 11090209 
2446.440 11175195 11259823 11343856 11426613 11508126 11587715 11665276 
2449.815 11740536 11813052 11882583 11949434 12014116 12078024 12142316 
2453.191 12207980 12275155 12343055 12410557 12476705 12541329 12605689 
2456.566 12671766 12741775 12817598 12899850 12988025 13080384 13175083 
2459.941 13270658 13365845 13460369 13554332 13647459 13739993 13832306 
2463.316 13924673 14018531 14115216 14216339 14323136 14436708 14557230 
2466.692 14685154 14821002 14965500 15119515 15284019 15458712 15642785 
2470.067 15834942 16033236 16236402 16444067 16656343 16874096 17097850 
2473.442 17326960 17559886 17794176 18026556 18254052 18474576 18686396 
2476.817 18888556 19080908 19262678 19433194 19591748 19737046 19867790 
2480.193 19982958 20081362 20162192 20225364 20270566 20298306 20309796 
2483.568 20305910 20288306 20258900 20219464 20172362 20119606 20063074 
2486.943 20004156 19943652 19881316 19815972 19746444 19670476 19586758 
2490.318 19493804 19390888 19277644 19154384 19021640 18880182 18730986 
2493.694 18575476 18414422 18247936 18075916 17896540 17707886 17507550 
2497.069 17294030 17067072 16828042 16579708 16326083 16071022 15818071 
2500.444 15569181 15325068 15085346 14848841 14614659 14382110 14151432 
2503.819 13923236 13698854 13479679 13266901 13061740 12865037 12677122 
2507.195 12498018 12327544 12165520 12012345 11868008 11733456 11609052 
2510.570 11495333 11391984 11298284 11212832 11134468 11062304 10996132 
2513.945 10936189 10883423 10838171 10800940 10771898 10750839 10737457 
2517.320 10732091 10734605 10745133 10762863 10786572 10814358 10844591 
2520.696 10875914 10908090 10941999 10978427 11018562 11062609 11109754 
2524.071 11158536 11207392 11254655 11299577 11341612 11380318 11414911 
2527.446 11444472 11467334 11482371 11488801 11486794 11476825 11459883 
2530.821 11436784 11408243 11374331 11335456 11292367 11246188 11198722 
2534.197 11151227 11104689 11059279 11014517 10969898 10924670 10879006 
2537.572 10833381 10788643 10745575 10704922 10666513 10630350 10595887 
2540.947 10562920 10530771 10499167 10467396 10434948 10401111 10366294 
2544.322 10330969 10296496 10264400 10235937 10211207 10190005 10170570 
2547.698 10151270 10130852 10108468 10084254 10058820 10032744 10006873 
2551.073 9981308 9956287 9931913 9908555 9886827 9867134 9850220 9836357 
2554.930 9825274 9817208 9811481 9807786 9805176 9802432 9798399 9792062 
2558.788 9782335 9769085 9753192 9736147 9718697 9701856 9685559 9668957 
2562.645 9650867 9630709 9608791 9586332 9565331 9547244 9532985 9522384 
2566.502 9513984 9506195 9498304 9489736 9481709 9475647 9473040 9474835 
2570.360 9480931 9490785 9503316 9517947 9533933 9551173 9569802 9589618 
2574.217 9609875 9630268 9650053 9668789 9686813 9704432 9722085 9740789 
2578.075 9760647 9781894 9804973 9830019 9857168 9886623 9918217 9951405 
2581.932 9985818 10020605 10055158 10089274 10122746 10155612 10188140 
2585.307 10220638 10253273 10286894 10322521 10360966 10403284 10449950 
2588.683 10500593 10554398 10609739 10665121 10719151 10771184 10821220 
2592.058 10869527 10916787 10963645 11010270 11056695 11102820 11148508 
2595.433 11193622 11238095 11281961 11325219 11367834 11409367 11449677 
2598.808 11488087 11523947 11556817 11586762 11614463 11640941 11668374 
2602.184 11698565 11733116 11772946 11817853 11866680 11918101 11970620 
2605.559 12023415 12076729 12131072 12187432 12246763 12309240 12374896 
2608.934 12443357 12514455 12588124 12664704 12744300 12827085 12912583 
2612.309 12999974 13088373 13176621 13264066 13350127 13434907 13518029 
2615.685 13599799 13680217 13759623 13838463 13917590 13997486 14078354 
2619.060 14159955 14241332 14320910 14397626 14470140 14538009 14601227 
2622.435 14660410 14716345 14770058 14822373 14874283 14926713 14980247 
2625.810 15035229 15091417 15147786 15202754 15254915 15302998 15346864 
2629.186 15387164 15425340 15463142 15501873 15542257 15583984 15626127 
2632.561 15667381 15706783 15743818 15778039 15809927 15839480 15867591 
2635.936 15894603 15921207 15947878 15975241 16003568 16032824 16062839 
2639.311 16092993 16123012 16152931 16182713 16213117 16244760 16277885 
2642.687 16312631 16348962 16386567 16425725 16466608 16509870 16555889 
2646.062 16605252 16657410 16711881 16767839 16824390 16881088 16938102 
2649.437 16995606 17054012 17113118 17172402 17231042 17288274 17343306 
2652.812 17395932 17446702 17496304 17545670 17595836 17647182 17700086 
2656.188 17754722 17810780 17868022 17926064 17984388 18042514 18100060 
2659.563 18156684 18212276 18266526 18319818 18372320 18423998 18475200 
2662.938 18525854 18576340 18626626 18677090 18728112 18779766 18832254 
2666.313 18885408 18938774 18991836 19044142 19095312 19145312 19194312 
2669.688 19242730 19290736 19338992 19387598 19436626 19486144 19536256 
2673.064 19586828 19638512 19691902 19747344 19805812 19867652 19932794 
2676.439 20001068 20071820 20144490 20218458 20293514 20369452 20446026 
2679.814 20523346 20601338 20679760 20758512 20837764 20917864 20999334 
2683.189 21082838 21168654 21256890 21347126 21438702 21530962 21623692 
2686.565 21717034 21811580 21908136 22007534 22110338 22216686 22326866 
2689.940 22440492 22557148 22676384 22797854 22921138 23045854 23171830 
2693.315 23299068 23427670 23558024 23690378 23824802 23961158 24099028 
2696.690 24238134 24378124 24519388 24662240 24807524 24955840 25107332 
2700.066 25261614 25418448 25576600 25735622 25895262 26055350 26216200 
2703.441 26377990 26540614 26703760 26867072 27030020 27192290 27354056 
2706.816 27515210 27675968 27836324 27996350 28155906 28315414 28474698 
2710.191 28634076 28793902 28954210 29115076 29276460 29438474 29601220 
2713.567 29765056 29929984 30096324 30263616 30430902 30596794 30759798 
2716.942 30918272 31071040 31217558 31358074 31493254 31624410 31752508 
2720.317 31878934 32004788 32131106 32258782 32388926 32522642 32660968 
2723.692 32804810 32955096 33112086 33276070 33446812 33623884 33806728 
2727.068 33995336 34189092 34388556 34593284 34803276 35017568 35234740 
2730.443 35452952 35669980 35884304 36093988 36298224 36495956 36687076 
2733.818 36870884 37047088 37214912 37373704 37523196 37662984 37793308 
2737.193 37914416 38027168 38132460 38231556 38325788 38416816 38505908 
2740.569 38594624 38684044 38775148 38868916 38966440 39069060 39178412 
2743.944 39296244 39423868 39562452 39712152 39872480 40042160 40219436 
2747.319 40401876 40586648 40770620 40950304 41121832 41282164 41428308 
2750.694 41558532 41671940 41768488 41848496 41912200 41959680 41990120 
2754.070 42003184 41998040 41974244 41931800 41870532 41790376 41690648 
2757.445 41570632 41429292 41265664 41079252 40870212 40639072 40386676 
2760.820 40114692 39824612 39518828 39199880 38871128 38536396 38199680 
2764.195 37865212 37536636 37217440 36910816 36619696 36346496 36093772 
2767.571 35863396 35656848 35474556 35316428 35181916 35069832 34979252 
2770.946 34909152 34858996 34827720 34814080 34816524 34832856 34860644 
2774.321 34897196 34940072 34986648 35034884 35082512 35127308 35167224 
2777.696 35200172 35224604 35239052 35242752 35235316 35216988 35188528 
2781.072 35151380 35107372 35059056 35009200 34960216 34914468 34873248 
2784.447 34837452 34806684 34780372 34757400 34736220 34715116 34692580 
2787.822 34666344 34634476 34595256 34547212 34489452 34421696 34344484 
2791.197 34258280 34164572 34064572 33960012 33853072 33746484 33643184 
2794.573 33546668 33460162 33386410 33327586 33285052 33259616 33251676 
2797.948 33261478 33289344 33335638 33400294 33483386 33584396 33702224 
2801.323 33835632 33983296 34143888 34316548 34500468 34695160 34899816 
2804.698 35113692 35335580 35563948 35796900 36032316 36267640 36500068 
2808.073 36727244 36946316 37154456 37349076 37527568 37687340 37826096 
2811.449 37942332 38034548 38102800 38147400 38169288 38170116 38151812 
2814.824 38116508 38066556 38004600 37934156 37858632 37782064 37708696 
2818.199 37642816 37588840 37550364 37531324 37534756 37562824 37616876 
2821.574 37696988 37801696 37929096 38075416 38237632 38411496 38593536 
2824.950 38780620 38969412 39157020 39340680 39517704 39686448 39845460 
2828.325 39994096 40132792 40262660 40384820 40501344 40614296 40726040 
2831.700 40838980 40955876 41079364 41211520 41354688 41510476 41680292 
2835.075 41865712 42068232 42289392 42531316 42795712 43085040 43402132 
2838.451 43750824 44136032 44564576 45044444 45585008 46196740 46889092 
2841.826 47672104 48555228 49546988 50656604 51893356 53265280 54778580 
2845.201 56434336 58225348 60131268 62116228 64128736 66096364 67935856 
2848.576 69558088 70871536 71801104 72293264 72323008 71898176 71057216 
2851.952 69865112 68397776 66740484 64977312 63179484 61409264 59714732 
2855.327 58128064 56670228 55350784 54170188 53122104 52195388 51377000 
2858.702 50651840 50005588 49425560 48900256 48420412 47978540 47568576 
2862.077 47185668 46826048 46486276 46163904 45857568 45566900 45293384 
2865.453 45040324 44812432 44615172 44454040 44333556 44256208 44222236 
2868.828 44229720 44275288 44353772 44459328 44585316 44724056 44866660 
2872.203 45004492 45128400 45230756 45307100 45354952 45376212 45374888 
2875.578 45356936 45328800 45296696 45265728 45239620 45221492 45213000 
2878.954 45215460 45229656 45255760 45293860 45344392 45407736 45484772 
2882.329 45576544 45683200 45804140 45937336 46079748 46227512 46376692 
2885.704 46524596 46669856 46812508 46953912 47096288 47242220 47394080 
2889.079 47554380 47725800 47911236 48114068 48338036 48587464 48867480 
2892.455 49184148 49544792 49958672 50436168 50987996 51624408 52352088 
2895.830 53172508 54078536 55053624 56070756 57090880 58070228 58960048 
2899.205 59713328 60293944 60678072 60860200 60852008 60682152 60390496 
2902.580 60020352 59616732 59220476 58863964 58574512 58372224 58272140 
2905.956 58286084 58422716 58688812 59090052 59631176 60317204 61153624 
2909.331 62145928 63298644 64612696 66083716 67698144 69430976 71247888 
2912.706 73101416 74934768 76689112 78301304 79713160 80878400 81761888 
2916.081 82346376 82631632 82633720 82379936 81904464 81245904 80440096 
2919.457 79518256 78507608 77427112 76290792 75107936 73884752 72626712 
2922.832 71340352 70034200 68720512 67414432 66131592 64888388 63699104 
2926.207 62574068 61520232 60539896 59631592 58790548 58009784 57280772 
2929.582 56594124 55940372 55311268 54699084 54098200 53504436 52914856 
2932.958 52327568 51741260 51155448 50569600 49984432 49401168 48821500 
2936.333 48247680 47681864 47125872 46581208 46049608 45532900 45033932 
2939.708 44556900 44106216 43686736 43302508 42955932 42647536 42375740 
2943.083 42137156 41926544 41738176 41565164 41399808 41235092 41063888 
2946.458 40880476 40682156 40468900 40244704 40016400 39793416 39586336 
2949.834 39404420 39255004 39142372 39067356 39027044 39016168 39027808 
2953.209 39053616 39085808 39117312 39142004 39155204 39153936 39135844 
2956.584 39100200 39047056 38977312 38893376 38798080 38695344 38588900 
2959.959 38482448 38378808 38279824 38186180 38098060 38014908 37936292 
2963.335 37861884 37791392 37724560 37660884 37599856 37540752 37483352 
2966.710 37427624 37374032 37323728 37278164 37238884 37207584 37185964 
2970.085 37176040 37179360 37197660 37232420 37284376 37353592 37439108 
2973.460 37538224 37647228 37760704 37872080 37973320 38056028 38112384 
2976.836 38135644 38122004 38070856 37985648 37872476 37739996 37597904 
2980.211 37455216 37319540 37197044 37090968 37003140 36933040 36878748 
2983.586 36836296 36800412 36764712 36721980 36665192 36588588 36487416 
2986.961 36359644 36204896 36025472 35825112 35608436 35380800 35147356 
2990.337 34911952 34677504 34445656 34216944 33991468 33769260 33550892 
2993.712 33337246 33129644 32929108 32735634 32547850 32363258 32178168 
2997.087 31988952 31792474 31586640 31371284 31147602 30917668 30684298 
3000.462 30450342 30218004 29989200 29765198 29546704 29334416 29128718 
3003.838 28930270 28739522 28556928 28382970 28217568 28060498 27911188 
3007.213 27768854 27632852 27502610 27378018 27259248 27146470 27039682 
3010.588 26938278 26841058 26746360 26652706 26558754 26463978 26368448 
3013.963 26273082 26178824 26086628 25997198 25911160 25828798 25750248 
3017.339 25676140 25606616 25541882 25481898 25426140 25373972 25324762 
3020.714 25278122 25234152 25193454 25156694 25124850 25098520 25078580 
3024.089 25065556 25060080 25062924 25075070 25097046 25129342 25171966 
3027.464 25223934 25283354 25347556 25413212 25475996 25532076 25577234 
3030.840 25608268 25623168 25621270 25603136 25570838 25526594 25473570 
3034.215 25414302 25351246 25286654 25222002 25158448 25096518 25036598 
3037.590 24978054 24920326 24863166 24806786 24751992 24700256 24653086 
3040.965 24611392 24575346 24543964 24515462 24488396 24461650 24435430 
3044.341 24410894 24389654 24373358 24362564 24357236 24356044 24357588 
3047.716 24360636 24364702 24370028 24377072 24386676 24399154 24414400 
3051.091 24431996 24451518 24472552 24494986 24519248 24545472 24573590 
3054.466 24603676 24635376 24668552 24702992 24738700 24775670 24814154 
3057.842 24854114 24895728 24939276 24985074 25033334 25084408 25138050 
3061.217 25193912 25251572 25310608 25371126 25433906 25499888 25570450 
3064.592 25646226 25726868 25811672 25898674 25986116 26072450 26156688 
3067.967 26238410 26317400 26393236 26465246 26532338 26593204 26647174 
3071.343 26693964 26734064 26768668 26799752 26829110 26858294 26888820 
3074.718 26921498 26956646 26994478 27034322 27075334 27116632 27157122 
3078.093 27196558 27234762 27272300 27309948 27348446 27388356 27429756 
3081.468 27472358 27515494 27558422 27600366 27640690 27678968 27715308 
3084.844 27750134 27784854 27821346 27861900 27908820 27963734 28027170 
3088.219 28098212 28174856 28254342 28334054 28411940 28487186 28559828 
3091.594 28630394 28700052 28769366 28839224 28909728 28981590 29055166 
3094.969 29131020 29210078 29292234 29377382 29465102 29554400 29644320 
3098.344 29734256 29823608 29912306 30000418 30088228 30176234 30265036 
3101.720 30355174 30447000 30540660 30635584 30731168 30826312 30920230 
3105.095 31012638 31103608 31193526 31282932 31372320 31461690 31550720 
3108.470 31639128 31726844 31814292 31902254 31991948 32084298 32179918 
3111.845 32278556 32379892 32483324 32587886 32693264 32798662 32903482 
3115.221 33007216 33108902 33207822 33303830 33396822 33487290 33576092 
3118.596 33663876 33751356 33838460 33925148 34011500 34097472 34183500 
3121.971 34270076 34357856 34447380 34538816 34632320 34727824 34825032 
3125.346 34923732 35023532 35123860 35224140 35323936 35422896 35520872 
3128.722 35618364 35715592 35813088 35910684 36008372 36105436 36201908 
3132.097 36297608 36393080 36489148 36586388 36685348 36786384 36889064 
3135.472 36993072 37098260 37204336 37311232 37418848 37526736 37634220 
3138.847 37740720 37845472 37948588 38050676 38152972 38256632 38362736 
3142.223 38471804 38583652 38697444 38811924 38926212 39039188 39150384 
3145.598 39259684 39367524 39474668 39582380 39691640 39803548 39918496 
3148.973 40035948 40155068 40274108 40391764 40507056 40619972 40731280 
3152.348 40841924 40953144 41065124 41177676 41289968 41401120 41510804 
3155.724 41618876 41725992 41832516 41938804 42044904 42150552 42256084 
3159.099 42362040 42469816 42580760 42696044 42815748 42938924 43063232 
3162.474 43186040 43305220 43419564 43529540 43637052 43744268 43853372 
3165.849 43965512 44080760 44198024 44315464 44431176 44543720 44652332 
3169.225 44757588 44860228 44962192 45064732 45169060 45275548 45384044 
3172.600 45493232 45602488 45710628 45816880 45921648 46025188 46127828 
3175.975 46230168 46331828 46432440 46531824 46629716 46726492 46823024 
3179.350 46920212 47018708 47118744 47219836 47321504 47423160 47524656 
3182.726 47626252 47728460 47831988 47937168 48044264 48153124 48263160 
3186.101 48374184 48485648 48597252 48708324 48818088 48926032 49031848 
3189.476 49135540 49238180 49340844 49444608 49550252 49657672 49765972 
3192.851 49873740 49979788 50082704 50182028 50277884 50371160 50462408 
3196.227 50552924 50643908 50736664 50832048 50930956 51033384 51139196 
3199.602 51247196 51355924 51464052 51570640 51675016 51777248 51877340 
3202.977 51975584 52072248 52167852 52262912 52358332 52454744 52552672 
3206.352 52651372 52749756 52845960 52938584 53027004 53112368 53197000 
3209.728 53283932 53376092 53474604 53578688 53686056 53793416 53897576 
3213.103 53997220 54092420 54184824 54277064 54371200 54468960 54570424 
3216.478 54674996 54780984 54886844 54990964 55092140 55190140 55284924 
3219.853 55377472 55469284 55561912 55656812 55754600 55855052 55957028 
3223.229 56059484 56161132 56262012 56362840 56464864 56568988 56675548 
3226.604 56783760 56892152 56999364 57104520 57207816 57310112 57412656 
3229.979 57516024 57620288 57724720 57828240 57930492 58031748 58132952 
3233.354 58235352 58339712 58445760 58552632 58659004 58764260 58868592 
3236.729 58972876 59078816 59187512 59299356 59413736 59529548 59645240 
3240.105 59760164 59873904 59986532 60097816 60207380 60314156 60417416 
3243.480 60517384 60615244 60714008 60816976 60926916 61045652 61172736 
3246.855 61306684 61444876 61585132 61725704 61866356 62006680 62146392 
3250.230 62284696 62420288 62551676 62678324 62800184 62918820 63036220 
3253.606 63154420 63274728 63397668 63522412 63648076 63773544 63898204 
3256.981 64021936 64145252 64268744 64392628 64517080 64641340 64764524 
3260.356 64885384 65002784 65116056 65224812 65329864 65432356 65534340 
3263.731 65637224 65742300 65849984 65959080 66068164 66175120 66278236 
3267.107 66376784 66470684 66560896 66648692 66735304 66821480 66907400 
3270.482 66992632 67076460 67157856 67236304 67311392 67383512 67453632 
3273.857 67523416 67594912 67669680 67749176 67833776 67923024 68015440 
3277.232 68109808 68205016 68300712 68397160 68495064 68594936 68696800 
3280.608 68799664 68902480 69004152 69104176 69202816 69301216 69400920 
3283.983 69503184 69608880 69718384 69831456 69947704 70066560 70187896 
3287.358 70311136 70436200 70562560 70690120 70818536 70948472 71080128 
3290.733 71214672 71352616 71494544 71640864 71791760 71947448 72108280 
3294.109 72274800 72446776 72624040 72805616 72990192 73176936 73365208 
3297.484 73555640 73749184 73947488 74151896 74362960 74580472 74803432 
3300.859 75030536 75260672 75493168 75727848 75964952 76205216 76449808 
3304.234 76699864 76957104 77223096 77498840 77784776 78080024 78383088 
3307.610 78691896 79004448 79319504 79636968 79957296 80281456 80610240 
3310.985 80943864 81282336 81625560 81973808 82327544 82687664 83054576 
3314.360 83427312 83804696 84184624 84565568 84947336 85330480 85717032 
3317.735 86109016 86507304 86911464 87320048 87730392 88139992 88547368 
3321.111 88951808 89353120 89751256 90145968 90536672 90922896 91305312 
3324.486 91684816 92062768 92439792 92815208 93186800 93550656 93903344 
3327.861 94242272 94566848 94877864 95177328 95466440 95745048 96011768 
3331.236 96263760 96498392 96713576 96908192 97081512 97232816 97360288 
3334.612 97462704 97538280 97587304 97611744 97615056 97601448 97573536 
3337.987 97532056 97475272 97399472 97300752 97175832 97023424 96843960 
3341.362 96638568 96408824 96155664 95879072 95578704 95254024 94905112 
3344.737 94531800 94134400 93713024 93267664 92799048 92308224 91797448 
3348.113 91269656 90726856 90171496 89604248 89025296 88434936 87833936 
3351.488 87224240 86609136 85992032 85375528 84761504 84149512 83538824 
3354.863 82928512 82318256 81709448 81104464 80505856 79915800 79335768 
3358.238 78765856 78205960 77655712 77115648 76586336 76069352 75565288 
3361.614 75074808 74597976 74133736 73681336 73239408 72807024 72383088 
3364.989 71966808 71557800 71156424 70763504 70381064 70011032 69654968 
3368.364 69313464 68985664 68669560 68362168 68060544 67762624 67466832 
3371.739 67172480 66878988 66585192 66289580 65990052 65684364 65371036 
3375.115 65049544 64720252 64384252 64043024 63697956 63350052 62999672 
3378.490 62646860 62291160 61932116 61568676 61199856 60824944 60442852 
3381.865 60053796 59658320 59257312 58852240 58444052 58033524 57620700 
3385.240 57205812 56788296 56368312 55946060 55522000 55097144 54672628 
3388.615 54249692 53829760 53414236 53004652 52602148 52207156 51819844 
3391.991 51439248 51064168 50693544 50325728 49959600 49593708 49227492 
3395.366 48859844 48490280 48119660 47749320 47381956 47020736 46668304 
3398.741 46326368 45994608 45670652 45350980 45031356 44708444 44380344 
3402.116 44047168 43710296 43372216 43035608 42702628 42374644 42052824 
3405.492 41737444 41428348 41125112 40826712 40531644 40238124 39944728 
3408.867 39650328 39354828 39058836 38763376 38469776 38178764 37890844 
3412.242 37605784 37323728 37044456 36769112 36497976 36232016 35971260 
3415.617 35715408 35463880 35215696 34970304 34727392 34487304 34250392 
3418.993 34016836 33786452 33558264 33331774 33106006 32881144 32657790 
3422.368 32437016 32219954 32007392 31799208 31594478 31391836 31189682 
3425.743 30986696 30782490 30577170 30371948 30168276 29967898 29772542 
3429.118 29583022 29399684 29221738 29048116 28877182 28707238 28537252 
3432.494 28366840 28196000 28025720 27856778 27690130 27526048 27363970 
3435.869 27203860 27044690 26885718 26726592 26567032 26406932 26246470 
3439.244 26085608 25924420 25762798 25601096 25439948 25279562 25120742 
3442.619 24963772 24808858 24655296 24502140 24347986 24191468 24031892 
3445.995 23868838 23703360 23536828 23371232 23208774 23050326 22896618 
3449.370 22747328 22601542 22458426 22317482 22178086 22040336 21903920 
3452.745 21768138 21631700 21493742 21352938 21209012 21062458 20914526 
3456.120 20766610 20620308 20476314 20334830 20194924 20055996 19917322 
3459.496 19778936 19641320 19505204 19371488 19240616 19112486 18986884 
3462.871 18862982 18740222 18617840 18495704 18373494 18251356 18129668 
3466.246 18008770 17889496 17772120 17656880 17543532 17431422 17319582 
3469.621 17207080 17093610 16979204 16864622 16750723 16637992 16526321 
3472.997 16415369 16304169 16192550 16081130 15971528 15865734 15765497 
3476.372 15671158 15582197 15496138 15410028 15321258 15227942 15130150 
3479.747 15029329 14927228 14826042 14726628 14629566 14534342 14440715 
3483.122 14348786 14259377 14172929 14090299 14011276 13934834 13859808 
3486.498 13785070 13710583 13636929 13566057 13499503 13438222 13381734 
3489.873 13327850 13274143 13218086 13158211 13095272 13031385 12969282 
3493.248 12911900 12860565 12815039 12773338 12732767 12691075 12647067 
3496.623 12601460 12556267 12513978 12477115 12446767 12422524 12403363 
3499.999 12387135 12372578 12358702 12346021 12335658 12329078 12328125 
3503.374 12333817 12346600 12366373 12392419 12423717 12459042 12496313 
3506.749 12534168 12571309 12606781 12640995 12675245 12711477 12751875 
3510.124 12798009 12850839 12910125 12974847 13043642 13115351 13189326 
3513.500 13265227 13342611 13420179 13496256 13568040 13632962 13688868 
3516.875 13735136 13772654 13803300 13829398 13852865 13874142 13892547 
3520.250 13905616 13910748 13905274 13887074 13855361 13810346 13752784 
3523.625 13683910 13604928 13516081 13417410 13307521 13185331 13049105 
3527.000 12897837 12732119 12553471 12365146 12170734 11974026 11777814 
3530.376 11584312 11394230 11207834 11024238 10842756 10661759 10479921 
3533.751 10295647 10107553 9915302 9719239 9521537 9324264 9130566 8941994 
3537.608 8759521 8582702 8410717 8242584 8078160 7917915 7762520 7613249 
3541.466 7469693 7331307 7196164 7062580 6928969 6794390 6658237 6520546 
3545.323 6381553 6241328 6100207 5959065 5819380 5683599 5553331 5430316 
3549.181 5315017 5206086 5101876 4999702 4897452 4793349 4686860 4578053 
3553.038 4467901 4357877 4249621 4144871 4045330 3952365 3866340 3786382 
3556.896 3711084 3637670 3564001 3488107 3409788 3329981 3249855 3171011 
3560.753 3094118 3019173 2945609 2872991 2801687 2732261 2665346 2600375 
3564.610 2535381 2466830 2389995 2300948 2198565 2084886 1965678 1848234 
3568.468 1739637 1644071 1563124 1495326 1437876 1387415 1340915 1295383 
3572.325 1248461 1197855 1142671 1082378 1018275 952520 888403 828478 774137 
3576.665 725080 678352 630833 579270 521909 459082 393346 328250 267208 
3581.004 212673 165668 125761 91293 60308 30517 -198 -34524 -74644 -123042 
3585.826 -181669 -251215 -329922 -414375 -499274 -578797 -648478 -706009 
3589.684 -751558 -787213 -816549 -842972 -870155 -900245 -935095 -974702 
3593.541 -1018571 -1064880 -1111813 -1157154 -1199087 -1236159 -1267744 
3596.916 -1293909 -1315712 -1334970 -1354360 -1377019 -1405390 -1440793 
3600.292 -1482897 -1529289 -1576436 -1620243 -1657412 -1686094 -1706656 
3603.667 -1720320 -1729462 -1736425 -1743652 -1753091 -1767578 -1789588 
3607.042 -1822056 -1866928 -1923571 -1989112 -2057909 -2123463 -2180601 
3610.417 -2227413 -2265320 -2298215 -2331239 -2367489 -2407757 -2449504 
3613.792 -2488479 -2520731 -2544877 -2562269 -2577256 -2595306 -2620699 
3617.168 -2655641 -2699209 -2748434 -2798543 -2844992 -2885315 -2918590 
3620.543 -2945610 -2967857 -2986779 -3003199 -3017480 -3029391 -3038703 
3623.918 -3044362 -3045711 -3042421 -3035116 -3026792 -3022317 -3028930 
3627.293 -3054035 -3102563 -3173485 -3257979 -3341371 -3408244 -3450059 
3630.669 -3466922 -3466297 -3458901 -3454825 -3460578 -3477966 -3503472 
3634.044 -3530325 -3552015 -3563189 -3563452 -3555992 -3546724 -3541564 
3637.419 -3544818 -3558128 -3580179 -3608275 -3638669 -3668897 -3697152 
3640.794 -3722514 -3744688 -3763478 -3777635 -3786471 -3789328 -3786503 
3644.170 -3779179 -3769357 -3759667 -3752539 -3749714 -3752539 -3761605 
3647.545 -3777635 -3801284 -3833373 -3874457 -3923353 -3976675 -4028317 
3650.920 -4070959 -4098531 -4107360 -4097874 -4073880 -4042368 -4011443 
3654.295 -3989020 -3981797 -3992467 -4019552 -4056877 -4096332 -4129941 
3657.671 -4152915 -4164532 -4167355 -4165681 -4163778 -4164729 -4170538 
3661.046 -4180941 -4194855 -4210278 -4224979 -4237054 -4245126 -4247915 
3664.421 -4244634 -4234691 -4217662 -4193674 -4163614 -4129318 -4093706 
3667.796 -4060061 -4031239 -4007996 -3987806 -3962919 -3922401 -3855476 
3671.172 -3754543 -3617673 -3448777 -3256335 -3052654 -2852037 -2674248 
3674.547 -2541550 -2474510 -2486865 -2577783 -2732762 -2930340 -3150427 
3677.922 -3377702 -3600685 -3810612 -3998738 -4157411 -4282004 -4372482 
3681.297 -4433162 -4471533 -4495669 -4511541 -4522100 -4527641 -4527477 
3684.673 -4521280 -4511049 -4500687 -4494784 -4497867 -4512689 -4539282 
3688.048 -4574070 -4611970 -4648129 -4678484 -4701756 -4718046 -4727420 
3691.423 -4730468 -4726994 -4717358 -4702608 -4685269 -4667601 -4652161 
3694.798 -4640557 -4632722 -4626985 -4621117 -4612167 -4598594 -4580103 
3698.174 -4558627 -4537478 -4521116 -4513902 -4519476 -4539413 -4573086 
3701.549 -4616822 -4664913 -4711229 -4750002 -4777170 -4791098 -4792048 
3704.924 -4781266 -4761309 -4734794 -4704706 -4673993 -4645244 -4621182 
3708.299 -4603676 -4594234 -4593217 -4600233 -4614921 -4635213 -4659603 
3711.675 -4685203 -4709295 -4728600 -4740759 -4744299 -4739645 -4728272 
3715.050 -4713261 -4697659 -4684810 -4676550 -4673534 -4674714 -4678549 
3718.425 -4683302 -4688088 -4693234 -4699921 -4709066 -4721324 -4735384 
3721.800 -4748920 -4759473 -4765045 -4765307 -4761964 -4758228 -4757671 
3725.176 -4762292 -4772615 -4786903 -4801093 -4810432 -4811284 -4801879 
3728.551 -4782807 -4757146 -4729190 -4703690 -4684253 -4673173 -4670289 
3731.926 -4673075 -4678386 -4683401 -4687990 -4694086 -4705427 -4725093 
3735.301 -4753541 -4787526 -4820721 -4845788 -4857781 -4855422 -4840841 
3738.677 -4817575 -4788968 -4756819 -4721160 -4681368 -4638033 -4593873 
3742.052 -4555414 -4531576 -4531183 -4559545 -4613052 -4678156 -4734565 
3745.427 -4765831 -4766683 -4742464 -4704477 -4664323 -4633017 -4616429 
3748.802 -4616199 -4630296 -4653768 -4681827 -4711065 -4739613 -4765602 
3752.177 -4786608 -4798701 -4798176 -4783987 -4757507 -4723323 -4687039 
3755.553 -4654161 -4628755 -4612232 -4604036 -4602299 -4604987 -4610987 
3758.928 -4620199 -4632034 -4645212 -4656521 -4663045 -4661700 -4652161 
3762.303 -4636492 -4618724 -4603872 -4595217 -4593578 -4597053 -4601118 
3765.678 -4600233 -4591316 -4574300 -4552135 -4530199 -4513082 -4505212 
3769.054 -4507868 -4520001 -4538364 -4558725 -4577906 -4593480 -4604692 
3772.429 -4612167 -4616461 -4618625 -4618986 -4617543 -4614331 -4609314 
3775.804 -4602692 -4595381 -4588824 -4584594 -4583840 -4586758 -4592561 
3779.179 -4599020 -4603085 -4602594 -4596430 -4585644 -4572070 -4558266 
3782.555 -4546299 -4536724 -4529215 -4522624 -4515902 -4508852 -4502392 
3785.930 -4497834 -4496325 -4498162 -4502293 -4506950 -4510327 -4511443 
3789.305 -4511180 -4510787 -4512361 -4517181 -4524756 -4533577 -4541020 
3792.680 -4545020 -4544791 -4541511 -4537478 -4535183 -4536200 -4539872 
3796.056 -4543413 -4542430 -4533281 -4513410 -4484290 -4449561 -4415713 
3799.431 -4390457 -4380781 -4391540 -4422437 -4467500 -4514918 -4551873 
3802.806 -4569644 -4565382 -4542594 -4509147 -4475895 -4452315 -4446215 
3806.181 -4460514 -4492292 -4533019 -4571710 -4599479 -4612003 -4610265 
3809.557 -4597611 -4578300 -4555676 -4531084 -4504327 -4475174 -4444280 
3812.932 -4413778 -4388522 -4373237 -4372679 -4388260 -4416894 -4449659 
3816.307 -4475469 -4484585 -4472517 -4441263 -4398559 -4355031 -4321833 
3819.682 -4308514 -4319930 -4354998 -4404922 -4455693 -4495014 -4514984 
3823.058 -4515509 -4502064 -4482913 -4465893 -4456382 -4456152 -4463630 
3826.433 -4474616 -4484257 -4489013 -4488586 -4484290 -4479339 -4476190 
3829.808 -4476059 -4477994 -4479666 -4477568 -4469238 -4453332 -4430538 
3833.183 -4402725 -4372843 -4343517 -4317568 -4297063 -4284039 -4280003 
3836.559 -4285548 -4299688 -4320389 -4344140 -4366939 -4385898 -4399904 
3839.934 -4409580 -4416664 -4423355 -4431194 -4441394 -4453561 -4467237 
3843.309 -4480486 -4492095 -4500064 -4503245 -4500851 -4492488 -4478650 
3846.684 -4460317 -4438574 -4414533 -4388456 -4360083 -4328460 -4293750 
3850.060 -4257233 -4222748 -4196890 -4188030 -4204700 -4251819 -4326458 
3853.435 -4415320 -4499670 -4562627 -4595250 -4599479 -4582660 -4554135 
3856.810 -4521280 -4488848 -4458776 -4430932 -4404594 -4379633 -4356113 
3860.185 -4335349 -4318946 -4308612 -4305495 -4309826 -4321833 -4340433 
3863.561 -4364019 -4390260 -4414795 -4433064 -4441197 -4437295 -4423060 
3866.936 -4402757 -4383635 -4372056 -4373302 -4387899 -4411515 -4435097 
3870.311 -4448117 -4444838 -4424799 -4394164 -4362018 -4337612 -4327279 
3873.686 -4332396 -4349061 -4370022 -4387145 -4394197 -4389440 -4375074 
3877.062 -4356474 -4339351 -4328591 -4326918 -4334529 -4348634 -4364380 
3880.437 -4376714 -4381339 -4376320 -4362543 -4343255 -4323473 -4308185 
3883.812 -4302411 -4308809 -4327049 -4352997 -4378813 -4396493 -4399543 
3887.187 -4385996 -4359001 -4324851 -4290830 -4264058 -4250047 -4250408 
3890.563 -4263795 -4285088 -4307923 -4326229 -4336070 -4336398 -4328394 
3893.938 -4314189 -4296342 -4277083 -4257922 -4240565 -4226259 -4216119 
3897.313 -4210672 -4209917 -4212641 -4216907 -4219860 -4219597 -4215200 
3900.688 -4207456 -4198891 -4193083 -4193444 -4202337 -4220123 -4244469 
3904.063 -4271374 -4295522 -4312286 -4318848 -4314386 -4300574 -4280397 
3907.439 -4257430 -4234888 -4215004 -4199154 -4187603 -4180285 -4176215 
3910.814 -4174903 -4175264 -4176215 -4176741 -4175625 -4171621 -4164959 
3914.189 -4156033 -4147007 -4140378 -4138179 -4142117 -4152029 -4165714 
3917.564 -4180022 -4191442 -4197153 -4195151 -4185568 -4168832 -4147007 
3920.940 -4122195 -4097054 -4074471 -4057501 -4048736 -4049852 -4060487 
3924.315 -4078377 -4099417 -4118749 -4132074 -4136800 -4133354 -4123705 
3927.690 -4111168 -4098695 -4087929 -4079362 -4071878 -4064591 -4057205 
3931.065 -4050804 -4047094 -4047554 -4053200 -4062949 -4074701 -4085828 
3934.441 -4094067 -4098597 -4099778 -4098794 -4096758 -4094329 -4090752 
3937.816 -4085106 -4076243 -4064065 -4050016 -4036229 -4025658 -4020307 
3941.191 -4021128 -4027497 -4037312 -4047620 -4056384 -4062129 -4064952 
3944.566 -4065608 -4065608 -4066035 -4067085 -4068595 -4069810 -4069876 
3947.942 -4068267 -4065247 -4061308 -4057501 -4054743 -4053463 -4053561 
3951.317 -4054021 -4053463 -4050640 -4044534 -4035145 -4023458 -4011148 
3954.692 -4000051 -3991712 -3987083 -3985901 -3987149 -3989184 -3990563 
3958.067 -3990005 -3987018 -3981436 -3974344 -3966399 -3959011 -3952970 
3961.443 -3948866 -3946896 -3946896 -3947848 -3948537 -3947618 -3944499 
3964.818 -3938687 -3930807 -3921777 -3913010 -3905194 -3898955 -3893865 
3968.193 -3889235 -3884178 -3878102 -3871239 -3864014 -3857216 -3851469 
3971.568 -3847068 -3843882 -3841222 -3838792 -3836329 -3834128 -3832125 
3974.944 -3830745 -3829727 -3828643 -3826804 -3823618 -3818823 -3812944 
3978.319 -3806835 -3801646 -3798525 -3798427 -3801350 -3807032 -3814685 
3981.694 -3823290 -3831402 -3838135 -3842503 -3844145 -3842799 -3838857 
3985.069 -3832388 -3824177 -3814980 -3805456 -3796554 -3789427 -3784566 
3988.445 -3782234 -3782201 -3783416 -3784697 -3784598 -3782463 -3778456 
3991.820 -3773463 -3769226 -3767222 -3768076 -3771558 -3776190 -3779836 
3995.195 -3780558 -3777536 -3771525 -3764233 -3757828 -3754116 -3754280 
3998.570 -3757598 -3762426 -3767518 -3770901 -3772379 
##END=
