
##TITLE=Z413_1_c
##JCAMP-DX=5.01  $$ Nicolet v. 1
##DATATYPE=INFRARED SPECTRUM
##ORIGIN=UniL
##OWNER=Nicolet
##LONGDATE=2011/09/21
##TIME=14:56:06
##SPECTROMETER/DATA SYSTEM=Nicolet iS5
##DATA PROCESSING=
Ratio against background
%Transmittance->Absorbance
Truncated
ElementMultiply or ElementDivide
##COMMENTS=
Number of sample scans: 32
Collection length: 51.19 sec
Sample gain: 2.0
Background collected on: Mer Sep 21 14:46:37 2011 (GMT+02:00);
Number of background scans: 32
Background gain: 2.0
Sample spacing:  1.000
Number of scan points: 12415
Resolution points: 8192
Number of FFT points: 65536
Apodization: N-B fort;
Phase correction: Mertz;
Laser frequency: 15798.0 cm-1
Number of rejected sample scans: 0
Number of rejected background scans: 0
Bench serial number: ASB1000141;
##RESOLUTION=4.000
##XUNITS=1/CM
##YUNITS=ABSORBANCE
##FIRSTX=649.893372
##LASTX=4000.122314
##FIRSTY=0.118784
##MAXX=4000.122314
##MINX=649.893372
##MAXY=0.283283
##MINY=-0.004141
##XFACTOR=1.000000
##YFACTOR=1.000000E-009
##NPOINTS=6950
##DELTAX=0.482117
##ZPD=6100
##XYDATA=(X++(Y..Y))
649.893 118783792 118275952 117850720 117527256 117298784 117141504 
652.786 117031208 116959248 116933000 116971912 117090816 117289104 
655.679 117549752 117847808 118164816 118500200 118870400 119298248 
658.571 119798376 120366272 120976144 121594288 122198160 122785736 
661.464 123378808 124008536 124700016 125454696 126247960 127032952 
664.357 127758832 128381368 128859880 129158944 129243072 129086096 
667.250 128695192 128140032 127548696 127043512 126685320 126448872 
670.142 126255928 126007048 125615240 125031304 124247184 123300680 
673.035 122254448 121177656 120117944 119090464 118087176 117091384 
675.928 116094920 115103016 114130272 113187568 112273376 111374160 
678.820 110470656 109551576 108623088 107706552 106830000 106012432 
681.713 105255928 104543448 103851480 103159776 102463808 101776360 
684.606 101119984 100513792 99964008 99460776 98984008 98515840 98047088 
687.981 97582368 97135840 96722104 96346312 96002888 95676944 95353432 
691.355 95025008 94695280 94376208 94084072 93832720 93628872 93476024 
694.730 93377008 93336136 93361352 93459920 93632616 93871344 94159176 
698.105 94476360 94805760 95140416 95483368 95844856 96234440 96653264 
701.480 97093408 97540264 97978952 98401784 98810960 99216040 99627328 
704.855 100048016 100470072 100875360 101244504 101561384 101821016 
707.747 102028952 102198384 102343808 102477312 102609824 102753448 
710.640 102924968 103147136 103443280 103829344 104306696 104856832 
713.533 105443728 106019120 106538392 106967016 107287552 107498976 
716.425 107611792 107642104 107606656 107525792 107425648 107339520 
719.318 107310840 107386096 107601096 107972056 108480696 109072008 
722.211 109651200 110104088 110316592 110190808 109676280 108778928 
725.104 107566464 106149704 104665024 103246176 101988888 100946928 
727.996 100127704 99505520 99037248 98679200 98400704 98180984 98008136 
731.371 97872872 97763056 97664256 97565360 97461056 97355064 97258472 
734.746 97184696 97142512 97133760 97152704 97190000 97237960 97293008 
738.121 97355184 97426760 97507496 97593112 97676336 97750440 97812528 
741.496 97865696 97917248 97974592 98041936 98117936 98197312 98274376 
744.870 98347008 98417616 98492440 98576784 98671216 98770456 98865216 
748.245 98946232 99008648 99054560 99090688 99124448 99159504 99193224 
751.620 99218120 99227488 99218328 99194680 99166080 99143888 99136016 
754.995 99144096 99164040 99188976 99214168 99238728 99266176 99301616 
758.370 99349432 99410120 99482064 99562352 99650336 99748208 99860200 
761.744 99989872 100137800 100300856 100474128 100654728 100846232 101060688 
765.119 101320440 101656120 102098744 102677968 103410112 104289968 
768.012 105280120 106307200 107267312 108028776 108465976 108485712 
770.905 108050616 107199576 106042592 104743416 103466152 102348208 
773.797 101468496 100834736 100397168 100070464 99769808 99423696 98987800 
777.172 98443344 97781200 96992608 96064304 94976976 93714096 92269216 
780.547 90648512 88871216 86965408 84966512 82911504 80840200 78794808 
783.922 76814448 74933592 73178856 71564120 70093968 68765896 67574360 
787.297 66515012 65584852 64781016 64099356 63532120 63069208 62700332 
790.671 62418608 62223128 62119400 62117604 62228440 62461456 62821628 
794.046 63310036 63924924 64663180 65521240 66495360 67581752 68776680 
797.421 70079328 71495528 73042096 74751840 76668832 78848240 81340632 
800.796 84173928 87334024 90742008 94251584 97628664 100586048 102827376 
804.171 104072064 104138936 102981832 100712544 97577392 93908400 90064008 
807.546 86323192 82856528 79703288 76792896 73991608 71161736 68220096 
810.920 65154432 62027508 58942700 56020280 53359232 51017024 49013008 
814.295 47332332 45940908 44795168 43853260 43078088 42435544 41897680 
817.670 41442124 41051140 40715012 40429040 40191340 40000708 39854356 
821.045 39747300 39674472 39632140 39619400 39637260 39688048 39772828 
824.420 39891472 40042488 40224636 40437988 40684700 40967200 41287416 
827.794 41645024 42038188 42466308 42933000 43448708 44033088 44715496 
831.169 45530472 46517220 47715332 49155540 50853168 52793348 54921924 
834.544 57128328 59244248 61070400 62379552 62972016 62723032 61603308 
837.919 59698384 57182792 54299780 51296224 48384184 45729072 43422564 
841.294 41496624 39938260 38707948 37754708 37025220 36474800 36063632 
844.669 35758904 35536584 35378824 35274556 35217636 35203836 35228232 
848.043 35284260 35362900 35455864 35557692 35666992 35786284 35920800 
851.418 36075840 36254960 36459596 36689780 36945844 37228920 37541296 
854.793 37885636 38263724 38676436 39124168 39608292 40132684 40703512 
858.168 41330304 42024320 42797940 43666364 44648620 45767284 47049504 
861.543 48521100 50196832 52070568 54105592 56229768 58331032 60279288 
864.917 61939340 63188948 63950376 64198060 63969380 63354156 62488428 
868.292 61534660 60644852 59958000 59578804 59567588 59950012 60718272 
871.667 61841600 63267216 64925320 66732296 68579720 70344560 71898144 
875.042 73108352 73870856 74121904 73848504 73091384 71936968 70505064 
878.417 68918320 67294632 65730616 64285232 62985196 61824260 60773644 
881.792 59792792 58843208 57901416 56963512 56047268 55184532 54416000 
885.166 53777704 53293564 52974368 52817332 52810784 52939184 53188424 
888.541 53547280 54006412 54558704 55196948 55915272 56709868 57581508 
891.916 58535952 59582944 60735116 62005532 63405028 64941748 66619100 
895.291 68433152 70366616 72382032 74419120 76384024 78161616 79628096 
898.666 80660624 81169888 81111216 80493376 79374672 77854416 76060080 
902.040 74119512 72157640 70283400 68575256 67088752 65853336 64877420 
905.415 64154772 63671248 63410828 63358256 63502052 63835180 64353660 
908.790 65055624 65941840 67014748 68278144 69735304 71386040 73221800 
912.165 75221424 77346728 79547856 81764888 83936768 86016952 87976200 
915.540 89811432 91543248 93213784 94877696 96587824 98388152 100296392 
918.914 102292472 104306536 106219056 107875704 109092576 109704472 
921.807 109598744 108743264 107211712 105182688 102934960 100785048 99066840 
925.182 98084256 98041480 99029912 100991032 103730208 106914632 110121672 
928.557 112932560 114953872 115910632 115685856 114309920 111936416 
931.450 108777696 105072728 101028160 96803832 92526424 88288856 84169984 
934.824 80249928 76603448 73301896 70408928 67967736 66004976 64530304 
938.199 63538604 63013160 62924212 63229152 63862740 64736052 65745188 
941.574 66766256 67675912 68370272 68768024 68829248 68556360 67992960 
944.949 67212392 66303672 65363064 64471452 63690164 63057824 62588148 
948.324 62277356 62109804 62065960 62125516 62269324 62481200 62745160 
951.698 63045680 63369832 63706584 64050280 64400120 64759748 65134764 
955.073 65529904 65948436 66390992 66857188 67346328 67858792 68394872 
958.448 68954672 69536424 70136560 70750448 71374800 72008064 72651616 
961.823 73308328 73981112 74670808 75375824 76093432 76821048 77558488 
965.198 78308048 79073856 79860000 80668808 81500544 82354296 83229568 
968.573 84128040 85053880 86012392 87008048 88043480 89118856 90233808 
971.947 91388968 92588216 93837992 95146184 96519536 97960968 99470448 
975.322 101045848 102685656 104391176 106166336 108016240 109944736 
978.215 111952184 114036128 116192840 118420680 120722136 123103240 
981.108 125571264 128130824 130781400 133516016 136322848 139184800 
984.000 142080688 144979216 147830816 150568144 153096320 155301600 
986.893 157072832 158306864 158933344 158927840 158312496 157155600 
989.786 155557552 153652384 151585488 149500992 147541344 145821472 
992.678 144424672 143402240 142769216 142514192 142608688 143019840 
995.571 143716128 144670832 145863648 147274896 148882944 150665904 
998.464 152599568 154661088 156830048 159082608 161386896 163699264 
1001.356 165955984 168080640 169994208 171620448 172904880 173820768 
1004.249 174371712 174590208 174535328 174291408 173954320 173632240 
1007.142 173436672 173462512 173787232 174461456 175505296 176915856 
1010.035 178674656 180758096 183140176 185796128 188700768 191821888 
1012.927 195121776 198561360 202102400 205715632 209379840 213072160 
1015.820 216756528 220369328 223805248 226931984 229598336 231659072 
1018.713 233014192 233623968 233528256 232839216 231742992 230479792 
1021.605 229298384 228458192 228183792 228633472 229902320 232005456 
1024.498 234891968 238454384 242556896 247057504 251805632 256661200 
1027.391 261486464 266131824 270451232 274301472 277553280 280115008 
1030.284 281931808 282985312 283282912 282846016 281703552 279888096 
1033.177 277443264 274424224 270892128 266912608 262543984 257832768 
1036.070 252821888 247558224 242101680 236537472 230967472 225500144 
1038.963 220246800 215299584 210731088 206595648 202922768 199719616 
1041.856 196963264 194598320 192527600 190615440 188713856 186670208 
1044.750 184362112 181726400 178764064 175543264 172177120 168813504 
1047.643 165602752 162675344 160142368 158078096 156519632 155472704 
1050.536 154913360 154795792 155057616 155634512 156464048 157488944 
1053.429 158662400 159938448 161264352 162580560 163811200 164868560 
1056.322 165668544 166129904 166188976 165807104 164969616 163690624 
1059.215 162011664 160007520 157780128 155449104 153152880 151022736 
1062.108 149172320 147695968 146653632 146076400 145968624 146311344 
1065.001 147063088 148157712 149511696 151017792 152551408 153992336 
1067.894 155223712 156150960 156713008 156876032 156632736 155993968 
1070.787 154982624 153628128 151962480 150022048 147842688 145458976 
1073.680 142906592 140221840 137446944 134638288 131863312 129202872 
1076.573 126748488 124583952 122784760 121408664 120486856 120026160 
1079.466 120005720 120380088 121073208 121981912 122987512 123950656 
1082.359 124737064 125239880 125388312 125169944 124629288 123865632 
1085.252 123009368 122202768 121591176 121292992 121398808 121966032 
1088.146 123012320 124517960 126423952 128644168 131063624 133551168 
1091.039 135983600 138243152 140233648 141887536 143155808 144009072 
1093.932 144433360 144427120 144002144 143183360 142011296 140538016 
1096.825 138824624 136944288 134973040 132987872 131064488 129260480 
1099.718 127609936 126113176 124735432 123409624 122049056 120573888 
1102.611 118922512 117072200 115043896 112899952 110732376 108640704 
1105.504 106728488 105083496 103769008 102828720 102280688 102122416 
1108.397 102332976 102877800 103712200 104780824 106026608 107387456 
1111.290 108795152 110180568 111467472 112573792 113423824 113948200 
1114.183 114095456 113840784 113185240 112155040 110793136 109156224 
1117.076 107305960 105301160 103200536 101054368 98901864 96772112 94681304 
1120.451 92635088 90633360 88674432 86760064 84898136 83101760 81388192 
1123.827 79775384 78277736 76905728 75666088 74562608 73599368 72782304 
1127.202 72119304 71620344 71295256 71150568 71187656 71399752 71770928 
1130.577 72272840 72867448 73507560 74137192 74701816 75154176 75460376 
1133.952 75609416 75614736 75514104 75359856 75214256 75139520 75183440 
1137.328 75378392 75733536 76234912 76844936 77507152 78156376 78718904 
1140.703 79126008 79322368 79265216 78930688 78311656 77414520 76256632 
1144.078 74863976 73272512 71523104 69662400 67741472 65807796 63906380 
1147.453 62077504 60352112 58755232 57305536 56014432 54888276 53927848 
1150.829 53129292 52484504 51982792 51612840 51363572 51226128 51193880 
1154.204 51262108 51426304 51682252 52024396 52446852 52944612 53513960 
1157.579 54153596 54863688 55644872 56496640 57415836 58396712 59431020 
1160.954 60508284 61615148 62736132 63850076 64930172 65945848 66860320 
1164.330 67635920 68238048 68634120 68798696 68714112 68370080 67766256 
1167.705 66912344 65828776 64543568 63090392 61506904 59828156 58087608 
1171.080 56316632 54542252 52790428 51086232 49450880 47904536 46463560 
1174.455 45139684 43940876 42871516 41933004 41124964 40446352 39895724 
1177.831 39471580 39172576 38997756 38946868 39021424 39224720 39562164 
1181.206 40040312 40665596 41443324 42376580 43466144 44709624 46101928 
1184.581 47631428 49277704 51009684 52778904 54521512 56165504 57628760 
1187.956 58834408 59720168 60240304 60375376 60132144 59543720 58663288 
1191.332 57557976 56304976 54976676 53639268 52349920 51150340 50072588 
1194.707 49139064 48363668 47754720 47314932 47040900 46922092 46939108 
1198.082 47065232 47263868 47492132 47705424 47855520 47898324 47797256 
1201.457 47523696 47063684 46418684 45607088 44659784 43617780 42527296 
1204.833 41429764 40361328 39348804 38408164 37547944 36770516 36075156 
1208.208 35460140 34923228 34461976 34073280 33753864 33500460 33310770 
1211.583 33184502 33122848 33128570 33204030 33350308 33566860 33850636 
1214.958 34197228 34600460 35053200 35546692 36069540 36609028 37150880 
1218.333 37680904 38187376 38661116 39096684 39491612 39845604 40160196 
1221.709 40438680 40686776 40912876 41127840 41345064 41578000 41838316 
1225.084 42135000 42472700 42851548 43267364 43712676 44177296 44648660 
1228.459 45115204 45566352 45995972 46403936 46797376 47190324 47600444 
1231.834 48048704 48556228 49141628 49823268 50618520 51544072 52617820 
1235.210 53856688 55275216 56885052 58693176 60701772 62908516 65306796 
1238.585 67884984 70623488 73495912 76467064 79494264 82535376 85549272 
1241.960 88500656 91363128 94114400 96733776 99199672 101485488 103559088 
1245.335 105385488 106922848 108127112 108954504 109361104 109311320 
1248.229 108783576 107771992 106288160 104357672 102016968 99305696 96267808 
1251.604 92953544 89417104 85723448 81947320 78163352 74449440 70878688 
1254.979 67509792 64391896 61558328 59025140 56793128 54847556 53161536 
1258.354 51695764 50403868 49237436 48145276 47082848 46014652 44915304 
1261.729 43773252 42589384 41375312 40149616 38935272 37756800 36634836 
1265.105 35586568 34623636 33751392 32970286 32276698 31664218 31125106 
1268.480 30651976 30239212 29882738 29580326 29330978 29133536 28986408 
1271.855 28887700 28835434 28828954 28869250 28958708 29100514 29296806 
1275.230 29547520 29848774 30191968 30562806 30942574 31306684 31626478 
1278.606 31874050 32022658 32053370 31958494 31742670 31422328 31020646 
1281.981 30565652 30083256 29593878 29113410 28652374 28218556 27819332 
1285.356 27462050 27154688 26904930 26718594 26600250 26553366 26580912 
1288.731 26686634 26874474 27148162 27509386 27956454 28484392 29083366 
1292.107 29739792 30436374 31150204 31853974 32517962 33110190 33603440 
1295.482 33980612 34237416 34384684 34446804 34458712 34457208 34478120 
1298.857 34552808 34703668 34945924 35286704 35724260 36247076 36832296 
1302.232 37448532 38055196 38608528 39069964 39407140 39601436 39648552 
1305.608 39558496 39352832 39060432 38716568 38355572 38008472 37701760 
1308.983 37452832 37270508 37155680 37103672 37106164 37154740 37243180 
1312.358 37366844 37522832 37708624 37920636 38154564 38405884 38670676 
1315.733 38946144 39231432 39526232 39830564 40144676 40468828 40804288 
1319.109 41153488 41519444 41904576 42308676 42726572 43147500 43554632 
1322.484 43925184 44236140 44464172 44591340 44609588 44523456 44353112 
1325.859 44131008 43902528 43717440 43620384 43647788 43818440 44132844 
1329.234 44574012 45113952 45721080 46364820 47022216 47678724 48326260 
1332.610 48962264 49587320 50203788 50814952 51424740 52036352 52650512 
1335.985 53264156 53868840 54452096 54996908 55484532 55897328 56218600 
1339.360 56435624 56540532 56531020 56410832 56189680 55882784 55508628 
1342.735 55088112 54644372 54199280 53773052 53383736 53044376 52763940 
1346.111 52547100 52393844 52298640 52249908 52229656 52212728 52169644 
1349.486 52072884 51898732 51634296 51280860 50855588 50389800 49924252 
1352.861 49508624 49191012 49012860 49005772 49183332 49539484 50046672 
1356.236 50661820 51329000 51986304 52578928 53059352 53393104 53562720 
1359.612 53566544 53419596 53150712 52805356 52440684 52116776 51895112 
1362.987 51822120 51920092 52182796 52575036 53040816 53505940 53893112 
1366.362 54128072 54144624 53901888 53388160 52628072 51674824 50603440 
1369.737 49495924 48420372 47430040 46556832 45812568 45197740 44707308 
1373.113 44337812 44088868 43962760 43959756 44072984 44287728 44583372 
1376.488 44936616 45328248 45745600 46183432 46644768 47140164 47687748 
1379.863 48310484 49036596 49894292 50902752 52062872 53344584 54685632 
1383.238 55984960 57114424 57943592 58341148 58203980 57478996 56182060 
1386.614 54414124 52345436 50195976 48167932 46404124 44977552 43891312 
1389.989 43105344 42558064 42186448 41931872 41740984 41569724 41378444 
1393.364 41135820 40824636 40444168 40011532 39552796 39094764 38654452 
1396.739 38235824 37834624 37445824 37071228 36724828 36431308 36217900 
1400.115 36107488 36109792 36221788 36430840 36721076 37076532 37483752 
1403.490 37933652 38419348 38935380 39476808 40038240 40614220 41201064 
1406.865 41797236 42403980 43024596 43662588 44319976 44996444 45688796 
1410.240 46392544 47104192 47821520 48543852 49270576 49998412 50721432 
1413.615 51431524 52121184 52787656 53434732 54073432 54719080 55388764 
1416.991 56098088 56858804 57677004 58551988 59471900 60414560 61348240 
1420.366 62236396 63042312 63735552 64296492 64717980 65011868 65208720 
1423.741 65357828 65512532 65717244 65996684 66350840 66762856 67208408 
1427.116 67667904 68129224 68588416 69048312 69516288 70004536 70529624 
1430.492 71115872 71792192 72584728 73511568 74575040 75762488 77048424 
1433.867 78405120 79811224 81251736 82721776 84221992 85754928 87316680 
1437.242 88899632 90495280 92090464 93668672 95202456 96654544 97970024 
1440.617 99080984 99920040 100419256 100521272 100185664 99387624 98125288 
1443.993 96423256 94340712 91965552 89400984 86764240 84163264 81690736 
1447.368 79425232 77418912 75694088 74239392 73017048 71974544 71062912 
1450.743 70256208 69557624 68999488 68624000 68465816 68528312 68777152 
1454.118 69134632 69489920 69720640 69701384 69352408 68681824 67809680 
1457.494 66924788 66202128 65754136 65615492 65776376 66212660 66898236 
1460.869 67804800 68893120 70113000 71392328 72635720 73743024 74613088 
1464.244 75173912 75405384 75345864 75076064 74682848 74242768 73804984 
1467.619 73394168 73019832 72678056 72350368 71997776 71559320 70955768 
1470.995 70102336 68943680 67486304 65818904 64086108 62439800 60987956 
1474.370 59772600 58789980 58018340 57440756 57052640 56855140 56841848 
1477.745 56988672 57251816 57578480 57911976 58207160 58438216 58598588 
1481.120 58701900 58775412 58855768 58981108 59191276 59530876 60045732 
1484.496 60783020 61783648 63070124 64634264 66424272 68348904 70268088 
1487.871 72002624 73361248 74142656 74177640 73373176 71736840 69389888 
1491.246 66527328 63373708 60117036 56877724 53724600 50679168 47746508 
1494.621 44947712 42327084 39957476 37927108 36309316 35140636 34413552 
1497.997 34091488 34124212 34463160 35068792 35904208 36931380 38110504 
1501.372 39394732 40734336 42082504 43381516 44565052 45550304 46216972 
1504.747 46413416 45972180 44761152 42770300 40169900 37273972 34394620 
1508.122 31731158 29344520 27206436 25263126 23473098 21817782 20301916 
1511.498 18940262 17742814 16710296 15831575 15089840 14467195 13947665 
1514.873 13517004 13158861 12855719 12592285 12359214 12158263 11999401 
1518.248 11893480 11844241 11842675 11867600 11893753 11901653 11890688 
1521.623 11881595 11907306 11993814 12146370 12351577 12586622 12831351 
1524.999 13074407 13317669 13572894 13854506 14170464 14519027 14891325 
1528.374 15278080 15675899 16089246 16527766 17001256 17514484 18065174 
1531.749 18645164 19242936 19850272 20465198 21092440 21737204 22402078 
1535.124 23082962 23770656 24452466 25116354 25753130 26352746 26905564 
1538.500 27399440 27819296 28149330 28378230 28509724 28561314 28558344 
1541.875 28524868 28472364 28397614 28286202 28122568 27898574 27622822 
1545.250 27319580 27021416 26755382 26531740 26343416 26170906 25994382 
1548.625 25801580 25596316 25396562 25227622 25108420 25043934 25025682 
1552.000 25038598 25069874 25115582 25182008 25282722 25429548 25625418 
1555.376 25861748 26118472 26369716 26583870 26723704 26754290 26653024 
1558.751 26433166 26149616 25881582 25689956 25595438 25587706 25639970 
1562.126 25722296 25806292 25870856 25905286 25910808 25900574 25894138 
1565.501 25909682 25954528 26023088 26098310 26159504 26187482 26172172 
1568.877 26116536 26036844 25957200 25899554 25878380 25897936 25955090 
1572.252 26041594 26146448 26256256 26351478 26409328 26407426 26331412 
1575.627 26185756 25997162 25808298 25655296 25554462 25498764 25466684 
1579.002 25432464 25374816 25281948 25151742 24989216 24801946 24596138 
1582.378 24374376 24136646 23883296 23617532 23345814 23076288 22814650 
1585.753 22562104 22315600 22070280 21823498 21576680 21335606 21107466 
1589.128 20897664 20707562 20534912 20376396 20230990 20100310 19988266 
1592.503 19896786 19823152 19758960 19692422 19612028 19511754 19393106 
1595.879 19264306 19136102 19017070 18911950 18821146 18744302 18683420 
1599.254 18644922 18638212 18673458 18757034 18890460 19070730 19292642 
1602.629 19551888 19844586 20166044 20506706 20849132 21169142 21436440 
1606.004 21620452 21698086 21656046 21495134 21227314 20873812 20457350 
1609.380 19998538 19516364 19028184 18551338 18104552 17703228 17356376 
1612.755 17063662 16815746 16595991 16384227 16162284 15916532 15642166 
1616.130 15347001 15049945 14776469 14549727 14384542 14284613 14244038 
1619.505 14249926 14284989 14331424 14371836 14394714 14397763 14389645 
1622.881 14386665 14406805 14462570 14556545 14682926 14832282 14996230 
1626.256 15169607 15349198 15532298 15714237 15888589 16049979 16196297 
1629.631 16331347 16462374 16598435 16745558 16903478 17065316 17218320 
1633.006 17347238 17435320 17468294 17437492 17343030 17195844 17016350 
1636.382 16829076 16653243 16498683 16365476 16247066 16132126 16008621 
1639.757 15867384 15704034 15521790 15329908 15141335 14966460 14809311 
1643.132 14665824 14524407 14369643 14184877 13958511 13687911 13382793 
1646.507 13063719 12757983 12492050 12284016 12141873 12064533 12043513 
1649.883 12064805 12106438 12139590 12123678 12012209 11772674 11414027 
1653.258 11001740 10623661 10341217 10162734 10061330 9999719 9947812 
1656.633 9887403 9811108 9720492 9621020 9518353 9415169 9309978 9198349 
1660.490 9075312 8937596 8784135 8617039 8441257 8264061 8093485 7938027 
1664.348 7804450 7696310 7612980 7549152 7495380 7438581 7364804 7263141 
1668.205 7128087 6962671 6777461 6588293 6409799 6252522 6120806 6014025 
1672.063 5927557 5853533 5781502 5698438 5590921 5451085 5281141 5096311 
1675.920 4919301 4771305 4662645 4590208 4542025 4502718 4460603 4411095 
1679.778 4358580 4312932 4284421 4276624 4282781 4285123 4259659 4183309 
1683.635 4046935 3864702 3671853 3506378 3388482 3318028 3281236 3262140 
1687.492 3247017 3227122 3198581 3160331 3113206 3059247 3002758 2949946 
1691.350 2908215 2884399 2881230 2895673 2917488 2931498 2920557 2872591 
1695.207 2788881 2687550 2597375 2541380 2528315 2548512 2581342 2599742 
1699.065 2577609 2499588 2369905 2215549 2071935 1966011 1904373 1878449 
1702.922 1872359 1870662 1860379 1832195 1782520 1713124 1631366 1546963 
1706.780 1469127 1403670 1352248 1312831 1281292 1253179 1225633 1198088 
1710.637 1172970 1153667 1143502 1143933 1154000 1170711 1190712 1210979 
1714.494 1229321 1244340 1253079 1250687 1230384 1186592 1118952 1035180 
1718.352 949797 877413 828146 804742 802651 814269 831731 849426 865029 
1722.691 879405 894412 912143 932929 955808 979452 1003728 1029733 1059160 
1727.031 1092709 1128818 1163634 1192539 1212076 1222310 1226895 1230982 
1730.888 1238126 1246733 1247696 1225101 1161674 1045675 881862 693452 
1734.746 515241 375736 285576 239525 223016 220795 219137 209557 188838 
1739.085 158409 123342 89206 61037 41021 29954 27137 31412 41220 54475 69355 
1744.389 84632 99512 114526 130335 147140 164143 179292 189700 192882 186783 
1749.211 170209 142731 104119 55138 -2485 -64142 -123771 -174548 -210747 
1753.551 -229922 -233697 -227372 -218331 -214688 -221676 -239691 -264097 
1757.408 -287508 -303434 -309129 -306646 -301150 -299759 -307971 -328730 
1761.266 -360812 -400670 -443041 -483024 -516947 -542694 -558777 -565197 
1765.123 -562649 -553813 -542959 -534520 -532303 -536638 -544349 -549147 
1768.980 -546301 -533693 -514763 -497388 -491662 -505463 -540742 -591238 
1772.838 -645699 -692876 -726419 -746596 -758008 -765979 -773818 -781524 
1776.695 -786882 -787577 -782748 -775273 -769121 -768956 -776861 -791480 
1780.553 -808446 -822402 -829976 -831398 -829744 -829017 -832919 -842245 
1784.410 -855406 -869427 -881464 -890094 -895286 -897402 -896178 -889764 
1788.268 -876272 -854282 -824982 -792273 -762705 -743619 -740080 -753212 
1792.125 -779209 -811588 -843204 -869460 -889301 -904279 -916282 -926366 
1795.982 -935029 -941575 -945840 -948188 -949642 -951725 -955395 -960222 
1799.840 -965512 -970206 -973876 -976884 -980322 -984620 -989414 -993249 
1803.697 -994339 -991860 -985810 -978174 -971033 -966371 -964520 -964421 
1807.555 -964123 -961875 -957180 -951163 -945774 -942898 -943460 -946997 
1811.412 -952188 -957875 -963330 -969281 -976884 -986372 -996819 -1006505 
1815.270 -1012653 -1013017 -1007232 -995926 -981215 -965082 -948617 -931458 
1819.127 -912546 -890756 -865062 -835763 -803221 -767765 -730190 -691420 
1822.984 -653176 -618403 -590411 -571550 -561556 -556295 -549511 -534983 
1826.842 -509071 -472532 -431290 -394182 -369121 -361375 -369486 -386667 
1830.699 -402226 -407622 -398320 -375014 -342239 -304726 -266746 -230121 
1834.557 -194916 -160405 -126288 -93129 -61293 -30912 -66 34394 76214 128678 
1839.378 192982 268767 353717 445384 541316 639261 736365 829307 913969 
1843.718 987157 1047602 1097991 1143169 1187987 1235468 1285147 1332672 
1847.575 1371826 1397420 1406030 1397620 1374850 1340915 1298008 1246301 
1851.433 1184067 1109551 1023124 928114 830237 735668 649183 572237 503398 
1855.772 439447 377229 315418 254676 195866 140179 87316 35686 -15837 -66892 
1860.594 -115854 -159742 -195546 -223299 -244924 -263600 -283038 -304163 
1864.452 -325353 -343000 -353131 -353859 -346940 -337372 -331114 -333697 
1868.309 -346774 -368294 -393652 -417387 -435891 -448568 -456115 -460054 
1872.167 -461907 -462371 -462139 -462503 -466012 -474584 -489941 -511884 
1876.024 -538160 -565097 -589584 -609768 -625881 -639678 -652912 -666112 
1879.881 -678518 -687914 -692975 -694265 -694133 -696382 -704355 -719042 
1883.739 -738327 -758405 -774479 -783211 -783939 -778680 -770676 -763598 
1887.596 -760025 -761348 -768757 -782252 -801931 -827032 -855473 -883216 
1891.454 -906462 -921737 -927755 -926399 -921506 -917142 -916282 -918563 
1895.311 -920779 -918795 -909305 -891681 -868832 -845122 -824552 -809901 
1899.168 -801369 -797234 -796441 -799153 -806065 -818202 -835532 -854480 
1903.026 -869824 -876702 -871544 -855605 -834242 -813969 -801369 -799814 
1906.883 -807917 -822039 -838045 -852992 -866617 -881034 -897666 -916778 
1910.741 -935756 -949907 -954866 -948320 -930367 -903155 -869890 -833415 
1914.598 -795415 -758008 -723905 -697110 -682786 -684440 -702138 -731248 
1918.456 -763234 -788768 -802030 -802195 -793233 -783178 -779441 -786155 
1922.313 -803518 -828124 -854580 -878256 -896707 -908975 -914794 -913604 
1926.170 -903916 -884969 -857589 -825643 -795019 -771536 -758636 -755990 
1930.028 -760158 -766078 -769981 -771900 -774182 -780499 -793034 -809438 
1933.885 -823626 -829017 -820054 -795878 -761249 -723739 -690560 -665881 
1937.743 -649504 -637196 -624955 -609635 -591304 -572543 -556857 -546268 
1941.600 -540510 -539087 -540047 -543687 -551397 -563377 -578631 -593157 
1945.458 -601132 -597128 -580220 -553548 -524956 -503643 -494508 -496924 
1949.315 -504470 -506820 -494508 -464357 -418744 -366043 -316877 -279528 
1953.172 -258269 -253401 -261978 -279726 -304328 -333167 -364222 -394645 
1957.030 -420995 -439366 -449561 -452408 -452209 -453964 -460484 -471440 
1960.887 -484248 -495071 -501293 -504106 -506588 -511156 -519992 -530913 
1964.745 -539650 -542330 -537168 -524294 -508111 -491761 -475411 -456479 
1968.602 -431191 -396698 -355316 -314957 -284925 -274163 -286316 -317506 
1972.459 -358991 -401200 -436056 -460252 -473657 -475114 -460947 -423544 
1976.317 -354952 -252474 -122843 16302 141836 233193 279210 281200 249073 
1980.656 198882 143991 91890 44203 563 -39858 -73054 -92931 -94156 -75936 
1985.478 -43436 -7720 18124 25513 12094 -16566 -51752 -84549 -110256 -129269 
1990.300 -145400 -162856 -180841 -196076 -202070 -193393 -169215 -134072 
1994.157 -95514 -61956 -39957 -30714 -33430 -45391 -63148 -83589 -105187 
1998.497 -124764 -138676 -143910 -138378 -123141 -103796 -87597 -82297 
2002.354 -92831 -119464 -158086 -202004 -243400 -275389 -294494 -297176 
2006.212 -281812 -247672 -196208 -132052 -63877 -3147 41021 61501 59181 
2010.552 40922 16269 -4870 -15274 -13551 -1590 18754 47119 83870 131462 
2015.373 189203 252024 311737 357895 382833 385221 370099 345858 321817 
2019.713 304641 295158 291843 291776 293898 300397 314721 339159 373382 
2024.052 412947 451221 483694 508142 525658 538729 549444 555482 552563 
2028.392 537800 509867 475335 445715 432282 444289 483495 543804 614142 
2032.732 684027 747285 803282 855833 909287 964807 1019670 1068428 1106262 
2037.071 1132605 1150511 1165694 1183568 1205896 1229254 1248760 1258795 
2040.929 1256270 1244174 1227161 1210847 1198586 1190944 1184266 1176060 
2044.786 1165162 1153302 1145461 1147853 1163568 1194366 1237561 1287872 
2048.644 1338920 1383526 1415005 1428069 1419460 1389243 1342144 1287341 
2052.501 1236099 1200314 1188220 1201178 1234305 1277571 1319511 1351982 
2056.358 1372889 1384723 1392999 1402772 1415171 1427770 1436680 1437976 
2060.216 1430895 1418296 1404966 1395226 1390872 1390373 1389709 1385686 
2064.073 1376246 1362087 1345800 1329415 1313097 1295416 1273317 1244772 
2067.931 1210448 1173535 1138120 1109418 1090184 1079788 1076798 1078791 
2071.788 1084139 1092908 1105930 1123436 1144299 1166624 1187057 1203470 
2075.646 1215731 1224071 1230351 1235966 1240918 1244706 1247098 1248992 
2079.503 1253079 1262517 1279731 1304290 1333736 1362220 1384091 1396656 
2083.360 1399282 1395027 1388645 1384025 1382329 1383127 1383426 1380468 
2087.218 1373754 1363782 1352681 1342277 1333403 1325061 1315822 1304987 
2091.075 1292326 1279531 1269063 1262517 1260789 1263049 1268797 1278069 
2094.933 1292425 1313429 1342477 1379172 1419892 1459652 1493697 1518234 
2098.790 1532998 1540446 1543738 1546398 1550422 1555709 1561927 1569908 
2102.647 1580815 1597543 1623051 1657807 1700317 1747255 1793965 1836987 
2106.505 1875221 1909098 1940283 1970205 1998864 2024962 2047399 2065643 
2110.362 2080524 2094541 2109990 2127837 2147482 2166230 2180948 2190006 
2114.220 2193270 2192537 2191139 2191671 2194802 2200629 2207390 2213551 
2118.077 2218846 2223475 2228005 2232534 2236598 2238696 2238229 2236198 
2121.935 2234899 2237797 2248754 2269171 2298316 2333426 2370905 2407919 
2125.792 2443838 2479760 2517817 2560111 2606609 2655011 2702720 2745631 
2129.649 2780377 2805822 2821396 2827799 2826599 2821730 2816994 2818895 
2133.507 2832668 2862185 2907581 2964424 3024345 3078801 3120782 3147848 
2137.364 3163301 3174115 3186899 3206159 3231494 3258134 3279767 3290517 
2141.222 3286978 3270352 3243846 3210431 3173381 3133831 3091248 3045899 
2145.079 2998554 2950179 2902044 2855548 2809057 2762037 2714389 2667080 
2148.937 2621942 2581609 2544846 2507319 2462965 2403621 2324299 2225141 
2152.794 2110722 1989111 1867833 1750681 1636754 1524053 1411880 1305918 
2156.651 1221014 1177189 1193237 1279199 1427504 1616067 1813462 1986615 
2160.509 2113286 2185044 2205991 2187242 2145185 2094474 2045235 2004556 
2164.366 1975564 1957457 1946840 1938086 1923742 1897917 1857884 1804146 
2168.224 1741466 1676567 1614737 1558469 1505566 1451507 1390639 1319976 
2172.081 1240153 1156325 1075536 1004459 947241 906033 878376 860780 849724 
2176.421 841060 830569 815199 792659 761457 725180 688507 658375 641219 
2180.760 640356 653065 672976 690399 695675 683927 655056 613114 565269 
2185.100 519189 479880 451321 435798 433476 444919 469663 504593 545496 
2189.439 585973 620115 643674 655587 657180 652634 646428 641020 638531 
2193.779 640256 646362 657877 676295 701649 732150 764710 794916 818452 
2198.119 833723 841889 845906 849857 855169 861178 865494 864266 855069 
2202.458 838503 817224 795447 776394 761491 750272 741277 732946 725213 
2206.798 719206 716119 715124 715057 713132 707590 698729 690332 687180 
2211.137 694182 713597 743102 777523 810585 836611 853874 863934 869711 
2215.477 874491 879472 883057 882692 876284 863668 847234 831366 819216 
2219.817 812377 810850 812244 814336 816394 818817 822303 827681 833424 
2224.156 835947 832627 820709 800659 775365 750139 729860 717911 715256 
2228.496 720069 729362 740779 751765 762486 773307 785224 799597 817788 
2232.835 840230 867851 900522 936847 974637 1011267 1043616 1070553 1092410 
2237.175 1110514 1127090 1143668 1159382 1172704 1181342 1184366 1182538 
2241.032 1180046 1180678 1188652 1206261 1232777 1265375 1301332 1337657 
2244.890 1373188 1407991 1442065 1475011 1506065 1534028 1558136 1579519 
2248.747 1599505 1619592 1640246 1659537 1674172 1681756 1681323 1675137 
2252.605 1668950 1669615 1681490 1705872 1738705 1772772 1800054 1814594 
2256.462 1814361 1801684 1782054 1760229 1740402 1724068 1710196 1697323 
2260.320 1683751 1668351 1650922 1631266 1609050 1585039 1560564 1538484 
2264.177 1523222 1519332 1529207 1552683 1586535 1624648 1660501 1689572 
2268.034 1709864 1722138 1729124 1733515 1736543 1738838 1738938 1736210 
2271.892 1730155 1722005 1713489 1705872 1700716 1698421 1699552 1705306 
2275.749 1716417 1734414 1759165 1789440 1822379 1854157 1881277 1902310 
2279.607 1917785 1929899 1941847 1956392 1974365 1995535 2018637 2041274 
2283.464 2062380 2080757 2095573 2105828 2110956 2110023 2103098 2091678 
2287.322 2077062 2061581 2046766 2032851 2018837 2003458 1985549 1965545 
2291.179 1945575 1928069 1915755 1910030 1910163 1913991 1919282 1923809 
2295.036 1926837 1928967 1931397 1935191 1940483 1946407 1951766 1955660 
2298.894 1958023 1958822 1959121 1958922 1957723 1954395 1947406 1936023 
2302.751 1920381 1901577 1880978 1860013 1839748 1819884 1800553 1781588 
2306.609 1763323 1746190 1730954 1717215 1704342 1690936 1675469 1657342 
2310.466 1636754 1615069 1593652 1574298 1557538 1543472 1531601 1520861 
2314.323 1510687 1500014 1488477 1474779 1457989 1436680 1410285 1378972 
2318.181 1344072 1307513 1271888 1239555 1212242 1190479 1174465 1162870 
2322.038 1153701 1143369 1127954 1102874 1064242 1009806 940334 859153 
2325.896 771216 682600 599012 523535 457888 401869 354513 315484 285477 
2330.235 265319 255836 256400 264722 277088 290085 300828 308289 313063 
2334.575 316247 318932 321088 322016 320458 316114 309515 302619 297479 
2338.915 295822 298607 306167 317838 333290 352722 376267 404058 435997 
2343.254 471853 512090 559032 616797 690465 783929 898131 1029168 1168451 
2347.594 1303824 1423382 1516206 1574697 1595548 1579585 1531302 1457191 
2351.451 1365677 1265042 1162006 1061652 967165 879671 799464 726175 659072 
2355.791 597552 541349 490893 446545 410028 382104 363931 355939 357729 
2360.130 368407 387111 412549 443559 479813 520383 565469 614773 668463 
2364.470 726175 787315 851152 916094 981378 1046605 1112142 1179548 1250587 
2368.810 1326723 1408955 1496489 1588065 1681623 1775367 1868466 1960919 
2372.667 2053658 2147715 2244125 2343320 2445204 2549412 2655678 2762937 
2376.524 2870623 2977636 3082972 3185397 3284274 3379199 3470271 3557921 
2380.382 3642515 3723683 3801256 3874497 3942769 4006168 4065163 4120619 
2384.239 4173573 4224527 4273813 4320964 4365776 4408116 4448485 4487552 
2388.097 4525987 4564124 4601360 4636824 4669511 4698817 4724777 4748292 
2391.954 4770971 4793952 4818108 4843236 4868735 4893665 4917323 4939341 
2395.812 4960522 4981703 5003959 5028394 5055580 5085751 5118706 5154012 
2399.669 5190862 5228286 5265612 5302372 5338598 5374860 5411763 5450514 
2403.526 5491685 5535545 5582060 5631333 5683498 5738860 5797821 5860921 
2407.384 5927457 5996690 6066841 6136097 6203313 6267985 6330649 6392145 
2411.241 6453718 6515433 6577191 6638050 6697133 6753836 6808324 6861371 
2415.099 6913887 6966408 7018869 7070797 7121115 7168744 7212874 7253168 
2418.956 7289287 7321534 7350212 7376094 7400528 7425200 7451794 7482132 
2422.813 7517259 7557783 7603403 7653884 7708789 7767849 7831203 7898682 
2426.671 7969917 8044135 8120155 8197369 8275780 8356332 8440684 8530829 
2430.528 8627855 8732001 8842226 8956674 9073586 9191377 9309335 9427122 
2434.386 9545042 9662758 9780234 9897538 10014875 10133090 10253544 10377593 
2438.243 10505990 10638703 10774547 10911725 11048980 11184952 11319131 
2441.618 11451616 11582610 11711841 11839202 11964080 12085928 12204402 
2444.994 12319705 12431832 12541295 12647954 12752182 12854149 12954501 
2448.369 13053920 13152952 13251939 13350162 13446459 13539666 13628655 
2451.744 13713524 13795228 13875237 13954987 14035608 14116585 14197373 
2455.119 14276977 14355328 14433454 14512861 14595538 14682926 14774995 
2458.495 14870614 14967626 15064043 15158044 15249287 15337802 15424310 
2461.870 15509462 15593737 15677445 15760859 15845252 15931828 16022269 
2465.245 16118715 16222471 16334752 16456490 16588522 16731853 16887150 
2468.620 17055184 17235592 17427594 17629998 17841126 18059958 18286018 
2471.996 18519110 18759216 19005820 19257484 19511998 19766902 20019876 
2475.371 20268830 20512714 20750240 20980000 21200490 21409358 21604258 
2478.746 21782978 21944064 22086630 22210480 22315460 22401346 22467778 
2482.121 22514816 22542630 22552506 22546468 22526926 22496600 22457520 
2485.497 22411254 22358820 22300846 22237612 22169926 22098344 22023184 
2488.872 21944414 21860988 21771690 21674260 21566756 21447684 21315976 
2492.247 21171648 21015124 20847426 20669824 20482982 20287438 20083098 
2495.622 19869454 19645584 19410570 19164148 18906448 18638628 18362608 
2498.998 18080890 17796422 17511654 17228870 16949334 16674073 16403085 
2502.373 16136218 15873296 15614310 15359324 15109051 14864511 14626756 
2505.748 14397694 14178886 13971343 13775459 13591047 13417274 13253203 
2509.123 13097867 12951224 12813366 12684763 12566022 12457099 12357611 
2512.499 12266770 12184126 12109198 12042389 11983766 11933631 11891743 
2515.874 11857793 11831097 11811384 11799092 11794769 11799501 11813222 
2519.249 11835082 11863105 11894944 11928285 11962002 11996948 12034350 
2522.624 12076559 12125007 12180037 12240117 12302900 12365554 12425218 
2526.000 12480116 12528642 12569569 12602040 12624621 12636662 12637652 
2529.375 12628407 12610431 12585497 12555244 12520765 12482025 12438686 
2532.750 12389964 12335930 12277711 12216398 12153935 12092163 12032408 
2536.125 11975183 11920860 11869575 11821700 11777235 11736349 11698871 
2539.500 11663711 11630152 11596665 11562874 11527962 11492577 11456856 
2542.876 11421612 11387154 11354025 11322396 11292265 11263836 11236497 
2546.251 11209942 11183762 11156972 11129063 11099999 11069815 11039327 
2549.626 11009318 10980261 10952533 10925962 10900479 10875745 10852269 
2553.001 10830357 10810383 10793059 10778283 10766055 10756002 10747884 
2556.377 10741499 10736574 10732397 10728389 10723532 10717046 10708080 
2559.752 10696737 10683934 10670011 10655953 10641861 10627294 10611437 
2563.127 10593306 10572528 10549510 10525475 10501475 10478801 10458197 
2566.502 10439564 10422560 10407458 10393815 10382684 10374676 10370807 
2569.878 10371315 10376135 10384788 10396496 10410953 10427651 10446488 
2573.253 10467362 10489934 10513593 10537628 10561630 10585124 10608347 
2576.628 10631640 10655138 10679689 10705159 10731854 10760077 10789968 
2580.003 10821253 10853933 10887568 10921544 10955353 10988554 11021417 
2583.379 11054656 11089121 11125527 11164282 11205352 11247956 11291313 
2586.754 11335081 11379059 11423891 11470634 11520239 11573388 11630323 
2590.129 11690260 11752179 11814516 11875841 11934755 11990272 12041912 
2593.504 12089811 12134581 12177447 12219636 12262373 12306547 12352498 
2596.880 12400022 12448335 12496551 12543614 12588533 12630727 12669684 
2600.255 12705575 12739216 12771768 12804903 12840497 12880088 12924495 
2603.630 12973789 13027151 13083388 13141204 13199641 13258565 13318420 
2607.005 13379821 13443656 13510543 13580997 13655221 13733495 13815853 
2610.381 13902297 13992318 14085267 14179913 14274853 14369335 14462776 
2613.756 14555482 14647832 14740853 14834441 14928496 15022160 15114369 
2617.131 15204160 15291465 15376214 15459056 15540677 15621420 15701389 
2620.506 15780548 15858518 15935058 16009860 16082507 16152758 16220134 
2623.882 16284388 16345453 16403805 16460206 16515721 16571000 16626459 
2627.257 16681718 16735813 16787882 16837204 16883566 16927628 16970074 
2630.632 17011800 17053392 17094850 17135866 17175816 17214424 17251484 
2634.007 17287204 17321410 17354204 17385792 17416004 17444804 17472744 
2637.383 17500272 17528112 17556918 17587280 17619300 17652980 17688180 
2640.758 17724660 17762524 17801770 17842576 17884870 17928826 17974442 
2644.133 18022102 18072046 18124554 18179692 18237258 18296524 18356766 
2647.508 18417294 18477620 18538128 18599270 18661906 18726486 18792982 
2650.884 18860596 18928216 18994534 19058578 19120174 19179662 19238052 
2654.259 19296452 19355862 19417082 19480184 19545096 19611508 19679004 
2657.634 19747102 19815452 19883466 19950868 20017446 20082890 20147302 
2661.009 20211030 20274488 20338024 20402024 20466554 20531474 20596508 
2664.385 20661586 20726224 20790594 20854554 20918282 20981566 21044336 
2667.760 21106040 21166394 21224984 21281838 21337206 21391502 21445526 
2671.135 21500008 21555614 21612444 21670848 21730586 21791932 21854856 
2674.510 21919530 21986376 22055638 22127108 22200786 22276254 22353098 
2677.885 22431106 22510350 22591074 22673416 22757802 22844228 22932490 
2681.261 23022656 23114448 23207972 23303578 23401128 23500836 23602454 
2684.636 23705706 23810242 23916132 24023628 24133670 24247068 24364632 
2688.011 24486680 24613214 24743294 24876150 25010870 25146756 25283670 
2691.386 25421750 25561138 25702294 25845430 25990936 26138882 26289380 
2694.762 26442638 26598244 26756334 26916316 27078156 27241678 27407062 
2698.137 27574698 27745048 27918468 28094892 28273862 28454958 28637366 
2701.512 28820420 29004366 29189204 29375290 29562770 29751750 29941698 
2704.887 30132264 30322876 30512932 30702114 30890166 31076700 31261530 
2708.263 31444378 31625126 31804058 31981320 32157614 32333378 32509356 
2711.638 32686080 32863524 33042110 33221558 33401616 33581608 33760844 
2715.013 33938296 34112596 34282592 34447452 34606524 34759732 34907068 
2718.388 35049032 35185944 35318544 35447308 35573192 35697424 35821328 
2721.764 35946640 36074976 36208028 36347072 36493220 36647560 36810400 
2725.139 36982288 37163188 37353048 37551196 37757308 37970860 38191176 
2728.514 38417612 38649416 38885296 39123624 39362444 39600056 39834672 
2731.889 40065052 40290580 40510728 40725496 40934140 41136036 41329756 
2735.265 41513904 41687440 41849332 41999716 42138908 42268064 42388600 
2738.640 42502040 42610036 42714324 42816260 42917416 43019292 43123240 
2742.015 43230764 43343296 43462664 43590380 43727992 43876316 44035692 
2745.390 44205800 44385368 44572832 44766296 44963772 45163176 45362452 
2748.766 45559028 45749688 45931408 46100564 46254120 46389300 46504456 
2752.141 46598732 46671776 46724092 46756268 46768776 46762136 46736564 
2755.516 46692028 46627908 46543404 46437344 46308492 46155796 45978476 
2758.891 45776048 45548796 45297248 45022572 44726224 44410512 44077904 
2762.267 43731732 43375804 43013804 42649948 42288296 41932748 41586572 
2765.642 41253456 40936400 40637944 40360244 40105064 39873460 39666120 
2769.017 39483340 39325264 39191900 39083160 38998480 38936540 38895840 
2772.392 38873952 38868192 38875984 38894860 38922516 38957088 38996380 
2775.768 39038244 39080224 39119420 39153136 39178956 39195020 39200024 
2779.143 39193496 39175004 39144908 39103716 39052708 38993660 38929328 
2782.518 38862756 38797212 38735332 38679188 38629500 38585784 38547076 
2785.893 38511556 38476908 38441324 38402768 38359588 38310224 38253192 
2789.269 38187160 38111440 38025396 37929204 37823312 37709240 37588768 
2792.644 37464500 37339472 37216972 37100280 36992532 36896212 36813036 
2796.019 36744372 36691296 36654448 36634588 36632748 36649688 36686428 
2799.394 36743760 36821980 36921208 37040628 37179396 37335932 37508276 
2802.770 37694564 37892468 38100012 38315396 38537080 38764136 38995324 
2806.145 39229800 39466248 39702572 39936516 40165572 40386860 40597488 
2809.520 40794788 40976048 41138696 41280236 41398384 41491300 41557908 
2812.895 41598132 41612608 41603012 41571692 41521084 41454372 41374912 
2816.271 41286320 41192500 41097756 41006600 40923508 40853172 40799592 
2819.646 40766620 40757448 40774188 40818376 40890232 40988356 41111160 
2823.021 41255096 41417376 41593752 41780744 41974792 42172500 42370516 
2826.396 42565448 42754104 42933656 43101908 43257556 43400304 43530860 
2829.771 43651160 43763428 43871004 43976876 44084284 44195968 44314472 
2833.147 44441600 44579480 44729896 44894436 45075096 45273892 45492464 
2836.522 45732716 45996124 46284568 46600500 46947972 47332220 47760748 
2839.897 48242424 48787392 49406588 50110216 50908672 51812300 52830880 
2843.272 53974932 55255044 56680536 58257972 59987976 61861964 63857132 
2846.648 65934084 68037216 70089448 72002192 73681496 75030928 75972016 
2850.023 76449568 76439088 75951096 75028848 73743608 72177400 70421552 
2853.398 68564896 66681608 64835684 63075564 61432964 59927952 58569168 
2856.773 57355972 56280796 55331440 54493376 53750364 53086796 52489328 
2860.149 51946008 51447456 50986508 50557464 50155772 49777528 49419284 
2863.524 49078292 48752916 48443008 48150384 47879044 47634648 47423272 
2866.899 47251124 47122584 47040416 47004344 47012208 47060172 47142936 
2870.274 47254340 47387500 47534196 47685232 47831436 47963148 48072612 
2873.650 48155344 48209432 48236756 48241868 48230908 48210172 48185592 
2877.025 48161860 48142240 48129468 48125360 48131284 48148312 48177148 
2880.400 48218096 48271972 48339072 48420300 48516432 48627524 48752768 
2883.775 48889948 49035744 49185740 49335648 49481960 49622940 49758276 
2887.151 49889908 50020720 50154468 50294960 50446180 50611632 50794916 
2890.526 50999696 51230268 51491468 51790012 52133964 52533116 52999860 
2893.901 53547056 54188016 54934600 55794424 56768624 57848264 59013144 
2897.276 60230028 61450676 62620452 63677236 64560712 65223740 65634100 
2900.652 65783860 65687372 65381548 64918972 64356664 63754588 63166188 
2904.027 62633424 62190244 61860056 61658220 61595292 61677852 61910072 
2907.402 62295672 62837972 63541016 64410076 65450616 66667504 68062256 
2910.777 69630744 71359872 73224784 75190616 77208808 79219960 81162256 
2914.153 82967336 84570800 85919904 86972176 87703872 88109512 88201448 
2917.528 88005616 87556008 86893248 86056216 85079792 83995544 82826776 
2920.903 81591496 80303304 78971424 77604600 76211928 74804144 73395064 
2924.278 72001216 70639200 69326168 68077024 66902256 65808496 64797676 
2927.654 63867308 63011436 62221484 61487284 60797464 60140972 59507696 
2931.029 58888400 58276236 57665956 57054072 56438716 55818880 55194652 
2934.404 54566672 53936404 53305664 52677068 52053088 51436524 50830072 
2937.779 50236376 49658524 49099996 48565196 48059400 47587876 47155936 
2941.155 46767672 46425400 46129044 45876308 45662296 45479584 45319900 
2944.530 45173288 45029448 44878780 44713220 44526396 44315720 44082192 
2947.905 43830720 43568916 43307488 43058220 42831764 42637812 42482640 
2951.280 42369164 42296040 42259116 42251228 42263532 42287200 42313792 
2954.656 42335960 42348268 42346664 42328328 42292240 42238264 42167640 
2958.031 42082684 41986760 41883960 41778268 41673364 41571876 41475296 
2961.406 41384168 41298344 41217456 41140920 41068440 40999828 40935120 
2964.781 40874252 40817464 40764980 40717232 40674548 40637324 40605892 
2968.156 40580752 40562564 40552596 40552704 40565912 40594904 40642856 
2971.532 40711740 40802216 40913460 41043164 41187220 41340728 41497352 
2974.907 41649988 41789716 41907424 41993912 42041072 42043628 42000012 
2978.282 41913116 41789356 41638568 41472452 41302064 41137640 40987812 
2981.657 40858052 40751480 40668724 40607748 40563836 40530188 40498728 
2985.033 40460208 40405512 40327552 40220348 40080824 39908580 39705840 
2988.408 39476772 39226860 38962668 38690236 38414824 38140560 37870020 
2991.783 37604520 37344596 37090860 36843544 36603404 36370812 36145620 
2995.158 35926628 35711488 35496740 35278796 35054640 34822120 34580580 
2998.534 34330856 34074856 33815212 33554256 33294852 33038784 32787870 
3001.909 32543246 32305822 32075878 31853758 31639128 31431980 31232014 
3005.284 31039150 30853382 30674554 30502840 30338156 30180636 30030526 
3008.659 29888028 29753062 29625340 29504074 29387948 29275184 29163868 
3012.035 29052826 28941496 28830052 28719520 28611106 28506152 28405432 
3015.410 28309226 28217568 28129922 28045970 27965182 27886916 27811066 
3018.785 27737454 27666220 27597930 27533674 27474616 27421920 27376570 
3022.160 27338600 27307796 27283590 27265598 27253744 27248768 27251766 
3025.536 27264010 27286060 27317994 27359244 27408508 27463852 27523154 
3028.911 27583948 27642880 27696062 27739078 27767652 27778284 27769348 
3032.286 27741092 27695956 27637618 27570214 27497526 27422062 27345798 
3035.661 27269338 27193136 27117900 27044090 26972442 26903660 26837920 
3039.037 26775504 26716162 26659824 26606346 26555690 26507718 26462394 
3042.412 26419362 26378870 26340988 26306452 26276144 26250730 26231018 
3045.787 26216974 26208210 26203846 26203072 26205078 26209548 26216270 
3049.162 26225034 26235558 26247138 26259142 26270792 26282092 26293320 
3052.538 26305148 26319020 26336058 26357288 26383624 26415348 26452570 
3055.913 26494688 26540898 26590034 26640906 26692132 26743120 26793620 
3059.288 26844158 26895376 26948186 27002798 27059148 27116738 27174970 
3062.663 27233950 27294212 27356914 27423474 27495232 27572616 27655522 
3066.039 27743070 27833674 27925888 28018050 28108676 28196494 28279696 
3069.414 28356830 28426656 28488248 28541536 28587324 28626572 28660834 
3072.789 28691734 28720938 28749576 28779174 28810896 28845490 28883732 
3076.164 28925416 28969724 29015702 29062002 29107492 29151428 29193598 
3079.540 29234000 29273058 29311304 29349340 29387842 29427658 29469394 
3082.915 29513508 29559436 29606398 29652904 29697890 29741104 29783472 
3086.290 29827230 29875214 29930020 29993246 30064792 30143202 30225960 
3089.665 30310228 30393872 30475718 30555448 30633414 30710258 30786474 
3093.041 30862772 30939620 31017940 31098590 31182134 31268940 31358394 
3096.416 31449292 31540886 31632214 31723100 31814612 31907532 32003004 
3099.791 32101314 32202146 32304682 32407950 32511354 32614424 32717376 
3103.166 32820426 32923534 33026486 33128750 33229892 33329520 33427704 
3106.542 33524618 33620340 33715116 33808840 33902008 33995268 34089768 
3109.917 34186688 34287144 34391604 34499640 34610040 34721684 34833504 
3113.292 34945420 35057836 35171428 35286452 35402332 35517708 35630736 
3116.667 35740016 35844868 35945776 36044484 36142740 36242284 36343648 
3120.042 36446372 36549408 36651312 36751368 36849424 36946100 37042724 
3123.418 37140632 37240980 37344488 37451208 37560800 37672380 37785068 
3126.793 37897640 38009628 38120448 38230396 38340116 38450264 38561380 
3130.168 38673464 38786308 38899284 39012108 39124784 39237596 39351268 
3133.543 39466316 39582556 39699300 39815388 39929504 40041364 40151468 
3136.919 40261060 40371952 40485848 40603488 40724912 40849060 40975064 
3140.294 41101872 41229156 41356584 41484520 41612532 41740580 41867832 
3143.669 41993548 42117772 42240380 42362188 42484140 42607072 42731760 
3147.044 42858752 42988232 43120276 43254556 43390560 43527564 43664276 
3150.420 43799344 43931416 44059712 44184524 44306220 44425996 44545336 
3153.795 44665332 44787156 44911260 45037792 45166340 45296068 45425908 
3157.170 45554536 45680960 45804616 45925660 46045520 46165932 46288956 
3160.545 46416072 46547572 46682952 46820256 46957460 47093112 47226192 
3163.921 47356904 47486140 47614716 47743476 47872680 48002296 48131728 
3167.296 48260676 48388816 48515692 48641276 48765408 48887944 49009000 
3170.671 49128936 49248312 49367680 49487604 49607896 49728260 49848020 
3174.046 49966408 50083480 50199512 50314792 50430212 50546000 50661860 
3177.422 50777372 50891688 51004352 51115228 51224748 51333328 51441748 
3180.797 51550308 51659116 51768400 51878380 51989440 52102060 52216800 
3184.172 52333772 52453096 52574252 52696636 52820176 52944124 53068260 
3187.547 53192020 53314616 53435260 53553388 53668512 53781152 53892060 
3190.923 54002096 54112348 54222964 54333644 54443608 54552392 54659324 
3194.298 54764932 54869852 54975096 55081272 55188748 55296892 55405436 
3197.673 55513560 55620696 55726500 55830860 55933584 56034940 56134664 
3201.048 56232860 56329492 56424940 56519052 56612244 56704888 56797360 
3204.424 56890264 56984556 57080600 57178672 57278052 57377228 57474228 
3207.799 57567168 57655244 57739596 57822372 57906980 57996604 58092836 
3211.174 58195004 58300452 58405356 58505848 58599768 58686880 58769152 
3214.549 58850040 58932648 59019560 59111464 59208056 59307180 59407276 
3217.925 59506444 59603924 59699560 59793512 59886532 59979304 60072516 
3221.300 60166736 60262272 60359424 60457976 60557648 60658072 60758816 
3224.675 60859632 60960312 61060408 61160032 61258568 61356100 61452660 
3228.050 61548784 61645200 61742584 61841868 61942968 62045664 62149220 
3231.426 62253032 62356868 62460844 62565268 62670208 62775560 62880516 
3234.801 62984272 63085832 63185228 63282736 63379460 63476584 63575344 
3238.176 63675812 63778460 63883080 63989916 64099664 64212972 64329988 
3241.551 64449928 64570904 64690216 64805484 64915164 65019564 65120676 
3244.927 65222196 65327556 65439872 65560460 65689184 65824384 65964280 
3248.302 66106900 66250904 66395240 66539072 66681332 66821284 66957876 
3251.677 67090996 67220672 67347680 67472904 67597312 67721456 67845704 
3255.052 67969720 68093728 68217648 68342120 68467328 68593808 68721760 
3258.427 68850680 68980104 69108840 69235928 69360224 69481056 69597792 
3261.803 69710440 69819656 69926336 70032024 70138080 70245656 70355080 
3265.178 70465936 70577064 70686888 70793688 70896240 70993768 71086408 
3268.553 71175008 71260616 71344800 71428296 71512088 71596200 71680016 
3271.928 71763272 71844928 71924768 72002936 72080576 72159088 72239688 
3275.304 72323480 72410528 72500144 72591064 72682280 72773288 72864152 
3278.679 72955664 73048840 73143880 73240704 73338568 73436464 73533704 
3282.054 73630688 73728296 73827568 73929496 74034272 74141280 74249768 
3285.429 74359112 74469184 74581216 74696776 74817408 74944448 75077640 
3288.805 75216264 75358840 75503784 75649712 75796496 75944032 76093200 
3292.180 76245184 76400968 76561712 76728488 76902008 77082608 77270128 
3295.555 77463984 77663352 77867728 78076888 78291384 78511976 78739280 
3298.930 78973568 79214040 79459128 79707704 79958056 80209792 80463224 
3302.306 80719320 80979080 81244224 81515536 81794208 82081072 82377056 
3305.681 82682656 82998264 83323008 83655624 83994416 84338016 84685552 
3309.056 85037600 85395080 85759288 86130952 86509888 86894944 87285120 
3312.431 87679544 88078048 88481360 88890528 89306024 89727792 90154936 
3315.807 90586048 91020216 91457304 91897664 92342360 92792112 93246432 
3319.182 93704352 94164072 94623496 95081472 95537328 95990688 96441464 
3322.557 96889264 97333632 97774144 98211104 98645184 99077576 99508944 
3325.932 99939480 100367944 100791936 101208944 101616848 102013912 
3328.825 102399288 102772712 103132512 103476960 103803256 104108656 
3331.719 104391296 104650480 104886528 105100032 105291696 105460880 
3334.612 105606976 105729112 105827216 105902400 105956776 105992224 
3337.505 106009776 106008496 105985744 105937832 105861768 105755312 
3340.398 105618048 105451336 105256688 105035680 104789176 104517016 
3343.291 104218872 103894288 103542520 103163224 102755672 102319272 
3346.184 101853392 101358520 100836240 100289384 99721944 99137272 98538872 
3349.559 97928416 97306520 96673584 96029952 95376296 94714312 94045600 
3352.934 93371304 92692136 92008424 91320640 90630464 89940368 89254144 
3356.310 88575408 87907024 87250408 86605576 85971840 85348136 84734800 
3359.685 84133304 83545848 82974920 82422200 81887784 81370688 80868256 
3363.060 80378008 79897360 79424992 78960136 78502888 78054088 77615096 
3366.435 77187432 76773168 76373632 75990288 75622904 75270720 74931896 
3369.811 74603952 74284208 73970704 73661552 73355520 73051232 72746808 
3373.186 72440088 72128808 71810720 71484232 71148824 70804768 70453160 
3376.561 70095056 69731648 69363680 68991336 68614176 68231456 67841984 
3379.936 67444688 67038408 66622384 66195948 65759340 65313108 64857684 
3383.312 64394512 63924572 63449056 62968760 62485328 61999912 61513472 
3386.687 61027232 60541536 60056956 59574048 59093204 58615276 58141360 
3390.062 57672348 57208984 56751212 56298600 55850564 55406572 54966560 
3393.437 54530940 54100228 53674284 53252620 52833608 52415112 51995756 
3396.813 51575004 51154364 50736928 50326512 49926744 49539484 49164408 
3400.188 48798884 48438672 48079240 47716592 47348848 46975476 46598328 
3403.563 46220324 45844128 45472152 45105936 44745468 44390068 44038372 
3406.938 43688752 43340072 42992036 42644976 42299800 41958076 41621068 
3410.313 41289600 40964216 40644568 40330064 40020216 39714584 39412944 
3413.689 39115320 38821308 38530564 38242408 37956432 37672232 37390172 
3417.064 37111000 36836404 36567536 36305212 36049376 35798808 35551184 
3420.439 35304348 35056288 34806000 34553884 34301416 34050880 33804896 
3423.814 33565316 33333134 33108044 32888756 32673542 32460616 32248684 
3427.190 32037210 31826236 31616430 31408720 31203674 31001286 30801126 
3430.565 30602980 30406132 30210118 30015188 29821730 29630022 29440706 
3433.940 29253954 29070114 28888974 28709962 28532972 28357112 28181998 
3437.315 28006776 27831626 27656580 27482418 27309382 27138182 26968950 
3440.691 26801336 26634844 26468382 26301664 26134590 25967578 25801440 
3444.066 25636350 25472306 25308324 25143246 24975740 24805384 24632818 
3447.441 24459582 24288168 24120640 23958742 23803242 23653814 23509510 
3450.816 23369274 23231670 23095614 22959772 22822648 22682634 22538512 
3454.192 22389832 22236704 22080948 21924722 21770262 21619338 21472784 
3457.567 21329862 21189702 21050668 20911848 20772554 20633130 20493750 
3460.942 20355144 20217522 20080878 19945178 19810390 19676854 19544680 
3464.317 19414206 19285228 19157570 19030780 18904338 18778346 18652912 
3467.693 18528550 18405712 18284498 18164734 18046280 17928860 17812542 
3471.068 17697324 17583830 17472192 17362548 17254622 17147758 17041780 
3474.443 16936792 16833656 16733540 16637441 16545493 16457213 16370913 
3477.818 16284663 16196024 16103618 16006697 15905395 15800545 15693076 
3481.194 15584052 15474747 15366499 15260955 15160240 15066719 14981722 
3484.569 14906069 14838727 14777532 14719395 14661506 14601603 14538899 
3487.944 14474388 14409579 14346150 14284886 14225035 14165672 14104537 
3491.319 14041152 13975860 13910851 13848965 13793415 13745841 13705966 
3494.695 13671805 13640041 13607423 13571732 13533001 13492804 13454217 
3498.070 13420383 13393284 13373773 13361061 13353442 13349171 13347018 
3501.445 13346335 13347291 13350537 13357234 13368100 13384331 13406646 
3504.820 13435830 13472296 13516149 13566399 13622159 13681721 13743276 
3508.196 13806242 13869968 13934903 14002173 14072467 14146776 14225617 
3511.571 14309268 14397728 14491312 14589507 14691975 14797141 14902949 
3514.946 15006931 15106616 15200043 15286420 15366019 15439691 15508363 
3518.321 15572615 15632411 15686583 15734198 15773779 15804498 15825253 
3521.697 15834633 15831197 15812848 15777661 15724063 15651992 15562003 
3525.072 15455451 15333958 15198705 15049910 14887930 14713294 14527011 
3528.447 14330910 14127402 13918960 13707128 13493146 13277731 13061740 
3531.822 12845617 12630830 12418126 12207537 11998345 11788572 11576621 
3535.198 11361032 11142422 10922258 10703257 10488135 10278344 10074352 
3538.573 9875980 9682341 9493529 9310113 9133206 8964250 8803273 8649216 
3542.430 8499945 8353022 8206080 8057265 7905598 7750444 7591838 7429817 
3546.288 7264522 7097471 6930989 6768205 6612380 6465892 6329708 6202607 
3550.145 6082667 5966355 5851215 5735032 5617370 5498262 5378584 5259240 
3554.002 5141472 5026048 4914441 4808157 4708363 4615525 4529837 4449757 
3557.860 4373708 4299881 4227036 4154538 4081752 4008777 3934945 3859922 
3561.717 3783240 3705637 3628649 3554581 3485635 3422245 3362670 3302603 
3565.575 3235667 3154891 3056744 2940839 2811725 2677081 2545879 2425245 
3569.432 2319202 2228971 2153443 2089780 2034782 1984451 1935124 1883474 
3573.290 1826871 1764122 1695560 1623517 1550854 1480697 1415072 1354110 
3577.147 1296214 1239622 1182140 1122606 1061552 1000507 941263 885813 
3581.004 834918 789174 748546 712800 682301 656317 634416 613943 592144 
3585.344 564307 525558 472682 404357 322149 231138 138091 49969 -27765 
3589.684 -91738 -141691 -179516 -208429 -233002 -257474 -285488 -319062 
3593.541 -358825 -403418 -450323 -496461 -539186 -576712 -608676 -635145 
3597.398 -657874 -678419 -698863 -721887 -749639 -783674 -824916 -872304 
3601.256 -923523 -975264 -1024025 -1066896 -1102162 -1129395 -1148859 
3604.631 -1161549 -1169083 -1173313 -1177146 -1184119 -1197997 -1223042 
3608.006 -1260840 -1310427 -1368001 -1427583 -1483921 -1533615 -1576799 
3611.382 -1615688 -1654474 -1695435 -1739296 -1783285 -1823046 -1854325 
3614.757 -1875473 -1887580 -1895102 -1903943 -1919811 -1946398 -1984792 
3618.132 -2033802 -2089764 -2148126 -2205359 -2258563 -2305696 -2346069 
3621.507 -2378957 -2404231 -2422321 -2433293 -2437774 -2435666 -2427066 
3624.883 -2412008 -2391051 -2366698 -2343894 -2329690 -2333249 -2361656 
3628.258 -2418137 -2497176 -2586018 -2667991 -2731412 -2771613 -2792222 
3631.633 -2801243 -2807695 -2818197 -2835808 -2858982 -2882945 -2902661 
3635.008 -2913258 -2913982 -2906709 -2896341 -2887783 -2885183 -2891075 
3638.384 -2905228 -2926094 -2951106 -2977729 -3003693 -3027351 -3047159 
3641.759 -3061998 -3070683 -3072328 -3066670 -3054068 -3035215 -3011557 
3645.134 -2985035 -2957523 -2931459 -2909408 -2894070 -2889034 -2897822 
3648.509 -2923494 -2967857 -3030082 -3105063 -3184965 -3259196 -3318716 
3651.885 -3356002 -3368858 -3358665 -3331671 -3295895 -3260741 -3235714 
3655.260 -3227393 -3238444 -3266201 -3304182 -3344034 -3378820 -3405055 
3658.635 -3422314 -3432867 -3439671 -3445654 -3452722 -3461827 -3472871 
3662.010 -3485658 -3499528 -3513530 -3526677 -3536996 -3542386 -3540349 
3665.385 -3528550 -3506003 -3472970 -3431420 -3385329 -3338806 -3296356 
3668.761 -3259886 -3227854 -3193583 -3146315 -3075059 -2970588 -2829323 
3672.136 -2652282 -2445649 -2219633 -1987727 -1771241 -1596541 -1491218 
3675.511 -1476359 -1556891 -1719363 -1938613 -2189337 -2450954 -2707704 
3678.886 -2948309 -3163223 -3344100 -3486677 -3591221 -3662556 -3708946 
3682.262 -3739136 -3759667 -3773923 -3782234 -3783219 -3775894 -3761211 
3685.637 -3742421 -3724157 -3711936 -3709735 -3719952 -3741436 -3770967 
3689.012 -3804273 -3837215 -3867298 -3893668 -3915833 -3933368 -3945780 
3692.387 -3952675 -3953824 -3951033 -3945944 -3940920 -3937899 -3938096 
3695.763 -3940821 -3944400 -3946042 -3943284 -3934254 -3919347 -3900170 
3699.138 -3880730 -3865393 -3858957 -3865164 -3885459 -3918329 -3959438 
3702.513 -4002973 -4042893 -4074274 -4094067 -4101189 -4096266 -4080839 
3705.888 -4056778 -4026479 -3992270 -3956615 -3922138 -3891435 -3867298 
3709.264 -3851896 -3847002 -3853636 -3871173 -3897510 -3928837 -3959931 
3712.639 -3985835 -4002316 -4006946 -4000576 -3985737 -3966727 -3947848 
3716.014 -3933532 -3926440 -3927457 -3935633 -3948505 -3963477 -3978317 
3719.389 -3991712 -4003761 -4015153 -4026643 -4038165 -4049359 -4059470 
3722.765 -4067808 -4074241 -4079559 -4085270 -4092524 -4102273 -4113990 
3726.140 -4126331 -4136538 -4141362 -4138146 -4125510 -4103159 -4072797 
3729.515 -4037148 -3999788 -3964002 -3932613 -3907000 -3886772 -3871042 
3732.890 -3858661 -3850385 -3848645 -3857282 -3879712 -3916490 -3964002 
3736.266 -4014825 -4059831 -4091343 -4106277 -4105062 -4090588 -4066265 
3739.641 -4034686 -3996276 -3950704 -3898495 -3841583 -3785748 -3739662 
3743.016 -3712954 -3713414 -3742159 -3789788 -3839055 -3872980 -3882634 
3746.391 -3869039 -3839777 -3804306 -3772642 -3751094 -3742586 -3746692 
3749.767 -3760193 -3779540 -3802565 -3828643 -3857643 -3888381 -3918066 
3753.142 -3942398 -3957895 -3962919 -3957698 -3944762 -3926998 -3907493 
3756.517 -3888939 -3872684 -3860599 -3853899 -3853932 -3861584 -3875837 
3759.892 -3894489 -3912780 -3926538 -3931890 -3927720 -3915866 -3899874 
3763.268 -3884375 -3872980 -3867167 -3865985 -3866707 -3865426 -3859646 
3766.643 -3849236 -3835967 -3823553 -3815703 -3815342 -3823815 -3840434 
3770.018 -3862569 -3886641 -3909397 -3928541 -3943054 -3953069 -3959537 
3773.393 -3963838 -3966596 -3967942 -3967450 -3964166 -3956877 -3945418 
3776.769 -3930642 -3914684 -3899973 -3889104 -3883751 -3883817 -3887560 
3780.144 -3892387 -3895803 -3896623 -3894226 -3889498 -3883094 -3875180 
3783.519 -3865689 -3854293 -3840894 -3827001 -3814389 -3805226 -3801646 
3786.894 -3803813 -3810481 -3819349 -3827888 -3834095 -3837675 -3839514 
3790.270 -3841156 -3844145 -3848710 -3854195 -3859022 -3861682 -3861420 
3793.645 -3859088 -3856362 -3855213 -3857117 -3861781 -3866970 -3868710 
3797.020 -3863390 -3847824 -3821812 -3787489 -3749386 -3714597 -3690253 
3800.395 -3683189 -3696232 -3726752 -3765580 -3800562 -3821517 -3822830 
3803.771 -3805456 -3775270 -3741863 -3715155 -3703854 -3712429 -3739761 
3807.146 -3778128 -3816787 -3846411 -3861781 -3863029 -3853636 -3838332 
3810.521 -3821352 -3804372 -3787587 -3769620 -3749648 -3727639 -3706548 
3813.896 -3689497 -3681448 -3685292 -3700569 -3722087 -3741403 -3749517 
3817.271 -3740352 -3713118 -3671789 -3624508 -3581165 -3552574 -3547020 
3820.647 -3567987 -3611561 -3666499 -3719525 -3759207 -3780361 -3783777 
3824.022 -3775270 -3761770 -3750108 -3744984 -3748170 -3758123 -3771525 
3827.397 -3783580 -3791529 -3793598 -3789952 -3781905 -3771263 -3759372 
3830.772 -3746922 -3733848 -3719130 -3701751 -3680725 -3655295 -3626052 
3834.148 -3593915 -3561184 -3530949 -3506562 -3490588 -3484836 -3489208 
3837.523 -3501533 -3518558 -3536865 -3553757 -3568283 -3581066 -3592995 
3840.898 -3605548 -3619480 -3635088 -3652634 -3672512 -3694228 -3717619 
3844.273 -3741502 -3763609 -3781478 -3792679 -3794978 -3787686 -3771000 
3847.649 -3745871 -3713316 -3674154 -3628812 -3578207 -3524014 -3470044 
3851.024 -3422840 -3391181 -3384935 -3411630 -3471852 -3556123 -3647409 
3854.399 -3727902 -3785682 -3818495 -3830483 -3828216 -3817444 -3801941 
3857.774 -3782825 -3759930 -3732566 -3701292 -3667386 -3633642 -3603708 
3861.150 -3580508 -3566377 -3562236 -3567987 -3582545 -3604069 -3630061 
3864.525 -3656642 -3679904 -3695181 -3699978 -3693768 -3679017 -3660651 
3867.900 -3644058 -3634760 -3635548 -3645504 -3659862 -3670902 -3673497 
3871.275 -3665021 -3648625 -3630291 -3617575 -3616030 -3627991 -3651090 
3874.651 -3679017 -3703985 -3719065 -3720510 -3709373 -3689202 -3665678 
3878.026 -3644584 -3629831 -3623588 -3625001 -3630981 -3636928 -3638472 
3881.401 -3632821 -3619152 -3599337 -3576696 -3555532 -3540809 -3536536 
3884.776 -3544654 -3563879 -3589446 -3614091 -3630291 -3633084 -3621682 
3888.152 -3599337 -3571372 -3544489 -3525296 -3517737 -3522831 -3537424 
3891.527 -3556485 -3573409 -3583465 -3585338 -3579588 -3568579 -3555203 
3894.902 -3541170 -3527202 -3513168 -3498378 -3482732 -3466659 -3451341 
3898.277 -3438389 -3428659 -3422117 -3417909 -3414556 -3410874 -3407027 
3901.653 -3404759 -3407060 -3416824 -3436811 -3466494 -3503472 -3542616 
3905.028 -3578207 -3605285 -3621057 -3625165 -3619480 -3607257 -3591944 
3908.403 -3576564 -3563353 -3553133 -3546100 -3541203 -3537686 -3533874 
3911.778 -3528648 -3520826 -3509750 -3495058 -3477473 -3458573 -3440723 
3915.154 -3426686 -3418829 -3418567 -3425766 -3438356 -3452984 -3466396 
3918.529 -3475731 -3478887 -3475534 -3466100 -3451670 -3433721 -3414260 
3921.904 -3395521 -3379839 -3369976 -3367510 -3373263 -3386020 -3402754 
3925.279 -3419651 -3432636 -3439080 -3438192 -3430894 -3419257 -3405647 
3928.655 -3391510 -3377932 -3364748 -3352090 -3340220 -3330586 -3324766 
3932.030 -3323944 -3328482 -3336998 -3347421 -3357383 -3365340 -3370995 
3935.405 -3375466 -3380299 -3386414 -3393614 -3400288 -3403839 -3401570 
3938.780 -3392365 -3376716 -3357252 -3337524 -3321675 -3312600 -3311515 
3942.156 -3317565 -3328120 -3340483 -3351268 -3358567 -3361592 -3360408 
3945.531 -3356101 -3349624 -3342324 -3335058 -3328712 -3323780 -3320491 
3948.906 -3319308 -3319998 -3322826 -3327397 -3333447 -3340121 -3346467 
3952.281 -3351169 -3353536 -3352714 -3348670 -3342127 -3334696 -3327660 
3955.656 -3322563 -3320163 -3320557 -3323122 -3326246 -3328975 -3329501 
3959.032 -3326772 -3320459 -3310758 -3298822 -3286096 -3274323 -3265115 
3962.407 -3259558 -3257683 -3258538 -3260380 -3261432 -3259656 -3254427 
3965.782 -3245910 -3234859 -3222888 -3211508 -3202068 -3194931 -3190294 
3969.157 -3187366 -3185787 -3184472 -3183090 -3181051 -3177893 -3173453 
3972.533 -3167696 -3160953 -3153585 -3146414 -3140131 -3135098 -3131381 
3975.908 -3128552 -3126249 -3123486 -3120229 -3116248 -3111972 -3107859 
3979.283 -3104504 -3102563 -3102727 -3104866 -3108879 -3114176 -3119472 
3982.658 -3123617 -3125755 -3124867 -3120953 -3114636 -3106576 -3097990 
3986.034 -3090160 -3083811 -3079270 -3077000 -3076803 -3078185 -3080915 
3989.409 -3084041 -3087100 -3088943 -3089568 -3089074 -3088219 -3088219 
3992.784 -3089963 -3093549 -3098352 -3102497 -3104405 -3102201 -3095917 
3996.159 -3086837 -3077527 -3070881 -3069104 -3073414 -3082495 -3094141 
3999.535 -3105524 -3114011 -3118091 
##END=
