
##TITLE=mdmaHCL00420_9
##JCAMP-DX=5.01  $$ Nicolet v. 1
##DATATYPE=INFRARED SPECTRUM
##ORIGIN=UniL
##OWNER=Nicolet
##LONGDATE=2011/08/23
##TIME=10:18:00
##SPECTROMETER/DATA SYSTEM=Nicolet iS5
##DATA PROCESSING=
Ratio against background
%Transmittance->Absorbance
Truncated
ElementMultiply or ElementDivide
##COMMENTS=
Number of sample scans: 32
Collection length: 51.22 sec
Sample gain: 2.0
Background collected on: Mar Aout 23 10:16:05 2011 (GMT+02:00);
Number of background scans: 32
Background gain: 2.0
Sample spacing:  1.000
Number of scan points: 12415
Resolution points: 8192
Number of FFT points: 65536
Apodization: N-B fort;
Phase correction: Mertz;
Laser frequency: 15798.0 cm-1
Number of rejected sample scans: 0
Number of rejected background scans: 0
Bench serial number: ASB1000141;
##RESOLUTION=4.000
##XUNITS=1/CM
##YUNITS=ABSORBANCE
##FIRSTX=649.893372
##LASTX=4000.122314
##FIRSTY=0.078345
##MAXX=4000.122314
##MINX=649.893372
##MAXY=0.228834
##MINY=0.000744
##XFACTOR=1.000000
##YFACTOR=1.000000E-009
##NPOINTS=6950
##DELTAX=0.482117
##ZPD=6100
##XYDATA=(X++(Y..Y))
649.893 78344840 78085688 77857192 77693272 77610072 77601712 77645408 
653.268 77715464 77797768 77896080 78027472 78210880 78456640 78760568 
656.643 79109872 79495176 79920216 80405360 80978912 81662152 82460528 
660.018 83357848 84329520 85354472 86430272 87571984 88803080 90136224 
663.393 91559168 93031200 94496336 95900232 97193408 98342312 99319528 
666.767 100096120 100643240 100942112 100999728 100843560 100504360 99991200 
670.142 99291416 98374768 97215488 95809496 94187120 92415688 90577272 
673.517 88757104 87015048 85376328 83842912 82404608 81055544 79798720 
676.892 78643608 77599008 76664880 75830264 75076688 74382192 73728256 
680.267 73101728 72493488 71896928 71305480 70713200 70116744 69518072 
683.642 68925040 68349024 67802240 67292856 66821828 66385508 65976508 
687.016 65588748 65219232 64867876 64536692 64226032 63933404 63652604 
690.391 63374280 63089436 62790112 62471096 62129492 61765160 61379036 
693.766 60974420 60556964 60135412 59720208 59322868 58952188 58613228 
697.141 58307500 58032616 57786412 57568152 57380212 57227544 57116272 
700.516 57050032 57028380 57045424 57091444 57154824 57224976 57296196 
703.890 57366864 57439620 57518444 57606476 57703836 57808292 57916860 
707.265 58027732 58142420 58266044 58406680 58573072 58776284 59029432 
710.640 59349228 59759104 60284424 60947616 61756796 62695628 63714876 
714.015 64729944 65640196 66341884 66751772 66831292 66591060 66091084 
717.390 65422536 64701520 64052312 63588156 63418836 63634648 64293800 
720.765 65412132 66939788 68755720 70654096 72382152 73682712 74327848 
724.139 74191352 73269768 71689984 69668088 67466832 65340496 63466996 
727.514 61945032 60790796 59963744 59395272 59016184 58775944 58639360 
730.889 58584104 58593168 58648232 58730232 58823328 58916976 59008972 
734.264 59101784 59199628 59303688 59411644 59518944 59621980 59720588 
737.639 59818040 59918404 60024196 60133552 60241604 60343396 60437560 
741.013 60528700 60626636 60742776 60884560 61052592 61239264 61432200 
744.388 61617360 61783764 61926308 62043980 62138360 62211348 62264276 
747.763 62298156 62316288 62325120 62333000 62348872 62378708 62423964 
751.138 62482344 62548848 62620372 62696740 62781952 62880976 62998720 
754.513 63136912 63294204 63466920 63651448 63845500 64048284 64259224 
757.888 64477412 64699756 64923204 65145852 65368800 65595992 65833128 
761.262 66084908 66352964 66635168 66928036 67229848 67545096 67887816 
764.637 68281168 68760184 69368856 70153432 71160960 72423760 73944384 
768.012 75676776 77515824 79304712 80838960 81924392 82422032 82290736 
771.387 81614760 80590816 79488936 78555488 77959792 77736064 77779744 
774.762 77873280 77754056 77211776 76130272 74530896 72546624 70387496 
778.136 68269224 66354164 64740248 63445756 62431652 61626908 60959056 
781.511 60372940 59832908 59325868 58852428 58420892 58041708 57726276 
784.886 57485804 57329924 57266520 57301112 57436220 57672956 58012736 
788.261 58458840 59017700 59698272 60510036 61462928 62566072 63828960 
791.636 65265164 66893212 68736232 70821736 73173056 75803400 78706664 
795.010 81854016 85190720 88635624 92096816 95475112 98679360 101650016 
798.385 104369520 106879840 109276328 111706696 114337992 117306848 
801.278 120687312 124436936 128381800 132192416 135435616 137656240 
804.171 138428592 137494640 134819536 130619240 125304688 119395416 
807.063 113421200 107767488 102643520 98058840 93869824 89849976 85779472 
810.438 81530088 77084824 72539848 68051168 63797988 59925668 56516716 
813.813 53597432 51143856 49105860 47421612 46034508 44897888 43971232 
817.188 43221868 42622460 42149168 41785196 41518788 41341784 41248392 
820.563 41232724 41287996 41408920 41593136 41843276 42165892 42571076 
823.938 43068352 43664056 44360600 45155640 46043016 47012136 48047116 
827.312 49126560 50221084 51298684 52330296 53297492 54202844 55075856 
830.687 55977272 56988788 58208868 59740240 61663716 64026280 66813944 
834.062 69938944 73217096 76370784 79075168 80964664 81721088 81148832 
837.437 79205568 76033272 71914752 67239856 62402388 57737968 53506760 
840.812 49850880 46816676 44379020 42470364 41006452 39901208 39083016 
844.186 38489616 38069012 37781704 37596100 37490792 37453664 37477500 
847.561 37556612 37683436 37846628 38033496 38233724 38441540 38658836 
850.936 38892652 39153392 39449956 39787896 40168952 40592760 41058640 
854.311 41567352 42121348 42723644 43377308 44085528 44852880 45687544 
857.686 46601092 47610872 48737904 50004920 51438840 53069908 54931404 
861.060 57060992 59490864 62236052 65275720 68537232 71887976 75123056 
864.435 78002728 80276072 81712376 82162576 81573624 80005816 77614384 
867.810 74633704 71338632 67982616 64794140 61942204 59524416 57586388 
871.185 56126292 55112192 54492588 54206932 54193496 54383820 54710660 
874.560 55109068 55514844 55877244 56161964 56355636 56468640 56530756 
877.935 56586088 56677888 56841544 57092692 57421548 57791560 58143636 
881.309 58412404 58532348 58456524 58168672 57685860 57056604 56347640 
884.684 55635608 54987504 54450328 54051664 53798588 53685272 53700456 
888.059 53833660 54077936 54428468 54880492 55426256 56053224 56746604 
891.434 57490004 58268924 59072932 59894940 60730392 61575892 62428324 
894.809 63283236 64135952 64978964 65801592 66588276 67316808 67960688 
898.183 68493008 68889392 69135488 69228976 69180552 69010480 68745624 
901.558 68416504 68052216 67681216 67331504 67027852 66794620 66653640 
904.933 66622576 66716796 66948868 67328760 67866000 68569120 69444896 
908.308 70498552 71732120 73144704 74733736 76496312 78430160 80533936 
911.683 82805768 85241680 87833200 90569888 93439872 96435336 99557440 
915.058 102819104 106244784 109864672 113710152 117803352 122147016 
917.950 126714272 131437080 136203216 140835024 145101648 148740208 
920.843 151460800 153019632 153267376 152195088 149965232 146907616 
923.736 143507664 140297072 137820224 136559504 136828944 138758304 
926.628 142241056 146959536 152377552 157813904 162586496 166041168 
929.521 167700896 167334400 164940256 160718512 154979024 148092144 
932.414 140409824 132241072 123873840 115554792 107505720 99935520 93010176 
935.789 86860264 81576936 77202912 73748912 71201632 69532656 68700992 
939.163 68648672 69294656 70514072 72132216 73943088 75698944 77155416 
942.538 78112144 78421632 78026880 76959328 75332624 73311272 71079072 
945.913 68820672 66680604 64759328 63113384 61756836 60676584 59843328 
949.288 59224500 58788156 58505240 58351836 58304392 58340656 58441480 
952.663 58590364 58776548 58995040 59244668 59526244 59839336 60181196 
956.037 60546868 60930576 61327864 61736284 62155568 62585964 63027108 
959.412 63477120 63933560 64394632 64860992 65335640 65822988 66326872 
962.787 66848836 67387264 67938408 68498480 69065904 69641744 70229408 
966.162 70832152 71451656 72086720 72734424 73391376 74056200 74730152 
969.537 75416544 76118464 76837584 77572472 78320432 79078464 79845984 
972.912 80624520 81417880 82229640 83061320 83912088 84779744 85662624 
976.286 86561616 87480424 88424336 89398336 90404616 91442544 92509688 
979.661 93604248 94727088 95882336 97076008 98312976 99595744 100922760 
983.036 102289872 103691504 105122192 106575408 108040080 109499480 
985.929 110926448 112285728 113540432 114655112 115604392 116377424 
988.821 116977368 117420424 117731080 117942568 118092400 118220056 
991.714 118368592 118576648 118874888 119284464 119813048 120457512 
994.607 121208448 122055160 122989840 124008096 125108600 126288552 
997.500 127542552 128862288 130238104 131661848 133129400 134638704 
1000.392 136186896 137766304 139361136 140948944 142506144 144010816 
1003.285 145450416 146822592 148134368 149397920 150628688 151844912 
1006.178 153066016 154316304 155624640 157018320 158521216 160147008 
1009.070 161896400 163758736 165715520 167747664 169836480 171964432 
1011.963 174113216 176257200 178364272 180399984 182331472 184138016 
1014.856 185813920 187366688 188809520 190151216 191390240 192512624 
1017.748 193496736 194321024 194974016 195458352 195793184 196009872 
1020.641 196153360 196279568 196449168 196732944 197201408 197914368 
1023.534 198918016 200233488 201856656 203761088 205906624 208249184 
1026.427 210740432 213332176 215970016 218583520 221090880 223398112 
1029.320 225404576 227021584 228171744 228791664 228834368 228261072 
1032.213 227044192 225173712 222663840 219559904 215933024 211879360 
1035.106 207503808 202904480 198176416 193403568 188660208 184022480 
1037.999 179561952 175344656 171433360 167877616 164714880 161971440 
1040.892 159656688 157759920 156238464 155013680 153956912 152889424 
1043.785 151614192 149919792 147626048 144626032 140893824 136499168 
1046.678 131583424 126346912 121005696 115755752 110771584 106176016 
1049.571 102040728 98396544 95236040 92527160 90221120 88266000 86610880 
1052.947 85208824 84022560 83020360 82173544 81456096 80839400 80292456 
1056.322 79785184 79287208 78771848 78219536 77616448 76956640 76242056 
1059.697 75483792 74701776 73923088 73183720 72521440 71972592 71570376 
1063.072 71339256 71295136 71445368 71788520 72314440 73001328 73816496 
1066.448 74712320 75626648 76493384 77243488 77817232 78176568 78304040 
1069.823 78206200 77907176 77443944 76857360 76184480 75458720 74704368 
1073.198 73937904 73169800 72405952 71650864 70910904 70195056 69517096 
1076.573 68894904 68346160 67887496 67530968 67281056 67135784 67087128 
1079.948 67122160 67224624 67374496 67550048 67724744 67871736 67967816 
1083.324 67996840 67956496 67860152 67738688 67634680 67596968 67678272 
1086.699 67923688 68370360 69045248 69960432 71113344 72482840 74031680 
1090.074 75703520 77427624 79133168 80750440 82223512 83517904 84616368 
1093.449 85517072 86226192 86752456 87103880 87287472 87314328 87203704 
1096.825 86986912 86711840 86436016 86219728 86117144 86156648 86332168 
1100.200 86591376 86843832 86962984 86805472 86248056 85198584 83622808 
1103.575 81549312 79066976 76308056 73417504 70548136 67830632 65361096 
1106.950 63206964 61400180 59945560 58828408 58022168 57493520 57205284 
1110.326 57121072 57204224 57416704 57721960 58080680 58450992 58793092 
1113.701 59068336 59244132 59299548 59225108 59024380 58710584 58304884 
1117.076 57831192 57312684 56772132 56228900 55698436 55193940 54724152 
1120.451 54294148 53905980 53559156 53251720 52981556 52745868 52540632 
1123.827 52358068 52186120 52007408 51800952 51547844 51234144 50856372 
1127.202 50422920 49954284 49479140 49026880 48625672 48295524 48045708 
1130.577 47875568 47775140 47727904 47712224 47706272 47689780 47646664 
1133.952 47568908 47456684 47319288 47172040 47033996 46924196 46857128 
1137.328 46841552 46879052 46964064 47084512 47223160 47360232 47472760 
1140.703 47538632 47539072 47459496 47291576 47033848 46689892 46267540 
1144.078 45776780 45229580 44638376 44016732 43379576 42741340 42115832 
1147.453 41515032 40946776 40415332 39921624 39464616 39043064 38656368 
1150.829 38305340 37991400 37715928 37478876 37279680 37116628 36988456 
1154.204 36894624 36835360 36811088 36821904 36866776 36943644 37049976 
1157.579 37183868 37344020 37530132 37742272 37980008 38242084 38527128 
1160.954 38833044 39158320 39501664 39861148 40232776 40610656 40985480 
1164.330 41345792 41680000 41976868 42227196 42424328 42563400 42641688 
1167.705 42658316 42615080 42516584 42370844 42188896 41982528 41763892 
1171.080 41544456 41333108 41138444 40968476 40831808 40737976 40696820 
1174.455 40716944 40805272 40966620 41203944 41520136 41919284 42406940 
1177.831 42991196 43680760 44484212 45409648 46464740 47656980 48995500 
1181.206 50490020 52151188 53989228 56012248 58225160 60628620 63217388 
1184.581 65976128 68874136 71864592 74873864 77804472 80546056 82971912 
1187.956 84961144 86414064 87253440 87440904 86977768 85904960 84295120 
1191.332 82243968 79865096 77267992 74556432 71823856 69142248 66569200 
1194.707 64147092 61901396 59846104 57984296 56310144 54811432 53471908 
1198.082 52274124 51199584 50230720 49352276 48549708 47810312 47122920 
1201.457 46477388 45865964 45283676 44729088 44204736 43716416 43272200 
1204.833 42879456 42544028 42268536 42051984 41891112 41781040 41717276 
1208.208 41695208 41710600 41759184 41835324 41933188 42047716 42175604 
1211.583 42316788 42474600 42655764 42868372 43120640 43420184 43773032 
1214.958 44183312 44653728 45184576 45773724 46415996 47104008 47828844 
1218.333 48581576 49355876 50147632 50955656 51780680 52624292 53488432 
1221.709 54376008 55291736 56243192 57239868 58293176 59413128 60605492 
1225.084 61870372 63200988 64584204 65999924 67424416 68830064 70185472 
1228.459 71460992 72628552 73666104 74561976 75315800 75939888 76456088 
1231.834 76897224 77304920 77725328 78215288 78836760 79652136 80727184 
1235.210 82120216 83878120 86036304 88613760 91615416 95031984 98842584 
1238.585 103013664 107493288 112216904 117101880 122049544 126961960 
1241.478 131740872 136295280 140551536 144443072 147911808 150907248 
1244.371 153381536 155292032 156603600 157285056 157310752 156661392 
1247.264 155325760 153307296 150628320 147332976 143479872 139134320 
1250.157 134360576 129210248 123725296 117944616 111910768 105681008 
1253.050 99333856 92959528 86663664 80556192 74733616 69283696 64271936 
1256.426 59734960 55686120 52113228 48985412 46257108 43876316 41790888 
1259.801 39947596 38300304 36810440 35445508 34183136 33008326 31911456 
1263.176 30887212 29931866 29042306 28215480 27448920 26741146 26091096 
1266.551 25497992 24959664 24472448 24030282 23627012 23257572 22919708 
1269.927 22614946 22347446 22123030 21947308 21824090 21756990 21748872 
1273.302 21803638 21926326 22122158 22394368 22742650 23160998 23636354 
1276.677 24148276 24671464 25173546 25618250 25970954 26199342 26280930 
1280.052 26208598 25991428 25654312 25230712 24759396 24273942 23797640 
1283.427 23344414 22918274 22519004 22146216 21801512 21489320 21215450 
1286.803 20984104 20797128 20653874 20552838 20493264 20475966 20502782 
1290.178 20575246 20692690 20852016 21048198 21275646 21529500 21805066 
1293.553 22097228 22399252 22701206 22991806 23261384 23503808 23720088 
1296.928 23918164 24112338 24318724 24554272 24834784 25172634 25578886 
1300.304 26060346 26618674 27244960 27916596 28598544 29240874 29788016 
1303.679 30189304 30402684 30404212 30191078 29779748 29202352 28500490 
1307.054 27723114 26917514 26126426 25387288 24725510 24155422 23680336 
1310.429 23295046 22989396 22752216 22575296 22453122 22382368 22360076 
1313.805 22381042 22438678 22525774 22636692 22768382 22920718 23093970 
1317.180 23286832 23495134 23711514 23928562 24141130 24348686 24554798 
1320.555 24765182 24984722 25214206 25449994 25684330 25909296 26117804 
1323.930 26306452 26475424 26628646 26773250 26919100 27079884 27271666 
1327.306 27510198 27809122 28174256 28601552 29076138 29576106 30078958 
1330.681 30565260 31024916 31456952 31867310 32263778 32652750 33037104 
1334.056 33416178 33788068 34151700 34507644 34858236 35205956 35552588 
1337.431 35899744 36249088 36604340 36971860 37359116 37772560 38215524 
1340.807 38686940 39182184 39695672 40222784 40761124 41309752 41867868 
1344.182 42433608 43003632 43574996 44146560 44719316 45295148 45872004 
1347.557 46437936 46967944 47420984 47743844 47884040 47793592 47443084 
1350.932 46827896 45969488 44913540 43720956 42466964 41226168 40066436 
1354.308 39047744 38210604 37576448 37145464 36899708 36807300 36829660 
1357.683 36931960 37084908 37267076 37466196 37674728 37889976 38114120 
1361.058 38356552 38635400 38974776 39402244 39937932 40586172 41331472 
1364.433 42138984 42961236 43739684 44416052 44933788 45239732 45295148 
1367.809 45078884 44594240 43869136 42952532 41907020 40791512 39659516 
1371.184 38551096 37491696 36499704 35592324 34789240 34116860 33602048 
1374.559 33263196 33103898 33109870 33255860 33513524 33863208 34299368 
1377.934 34831564 35481032 36277836 37259464 38465648 39940476 41725700 
1381.310 43845124 46286744 48977324 51783068 54497584 56869868 58654448 
1384.685 59616508 59584768 58484200 56365556 53422896 49960344 46355052 
1388.060 42942364 39951956 37496576 35576644 34127580 33055018 32267346 
1391.435 31684108 31239490 30886466 30590144 30327780 30090216 29877984 
1394.811 29698564 29560180 29466698 29415036 29397306 29403406 29425530 
1398.186 29461024 29513402 29591110 29704240 29861514 30066922 30319430 
1401.561 30613326 30940688 31293296 31662938 32045092 32437798 32841940 
1404.936 33258830 33689012 34130984 34581620 35038544 35502424 35977236 
1408.312 36470264 36989428 37540608 38126852 38748084 39402860 40089400 
1411.687 40805344 41544600 42292824 43026280 43713116 44318508 44818124 
1415.062 45204320 45492756 45717656 45928312 46180744 46524596 47000060 
1418.437 47627028 48397076 49274292 50201072 51116124 51962400 52699400 
1421.813 53308284 53792216 54182088 54533948 54925496 55431040 56101328 
1425.188 56950176 57953096 59063288 60228164 61409608 62584436 63744152 
1428.563 64889692 66026576 67164208 68317032 69511616 70784608 72172784 
1431.938 73708112 75403888 77255160 79242704 81347632 83565448 85907504 
1435.313 88401832 91075664 93937440 96955072 100064952 103196376 106290232 
1438.689 109304032 112196272 114917088 117384392 119484624 121096112 
1441.582 122089784 122356672 121827096 120470328 118305888 115401688 
1444.475 111881656 107909728 103665544 99346224 95131216 91175464 87611464 
1447.850 84524672 81944640 79835792 78113656 76668832 75400024 74250040 
1451.225 73214424 72340464 71696040 71343984 71307472 71561232 72032776 
1454.601 72621264 73225096 73750328 74144976 74419432 74656088 74975952 
1457.976 75486040 76260384 77327408 78689272 80335472 82242888 84371848 
1461.351 86655208 89007528 91309800 93410328 95152664 96385192 97011744 
1464.726 97031552 96551936 95755176 94827896 93931472 93169592 92592600 
1468.102 92219960 92046152 92047664 92177264 92362568 92505800 92483696 
1471.477 92183168 91535104 90552544 89331912 88018888 86753520 85626024 
1474.852 84684376 83951240 83441320 83174992 83169656 83425904 83918600 
1478.227 84594760 85388632 86228816 87059376 87850320 88599384 89331504 
1481.603 90087248 90916320 91865112 92977264 94301232 95889520 97799832 
1484.978 100083272 102764648 105817712 109139184 112555632 115807360 
1487.871 118570856 120514240 121311616 120721000 118654800 115212688 
1490.764 110678080 105429712 99862704 94280888 88862312 83695808 78796080 
1494.139 74155824 69793280 65762580 62160304 59104556 56691784 54965204 
1497.514 53904628 53448264 53515456 54029448 54928656 56158116 57664444 
1500.890 59393636 61282036 63260084 65258732 67191232 68955680 70426696 
1504.265 71424200 71722936 71072824 69272264 66299192 62399328 58037088 
1507.640 53677512 49616660 45944220 42619136 39563724 36721008 34068908 
1511.015 31622202 29411382 27458486 25769620 24329622 23110952 22082238 
1514.391 21215136 20486352 19873026 19353230 18908904 18528204 18210824 
1517.766 17964530 17797698 17710198 17689802 17711752 17749200 17784408 
1521.141 17821588 17886804 18016196 18232904 18535778 18904024 19308646 
1524.516 19728898 20156986 20602728 21086908 21632468 22251352 22940176 
1527.892 23684850 24469152 25282862 26124456 27000894 27922354 28897580 
1531.267 29932434 31028832 32185770 33400436 34667240 35975616 37307984 
1534.642 38643404 39959220 41235932 42452424 43587232 44622036 45534924 
1538.017 46307424 46924860 47379220 47666484 47785456 47743328 47555488 
1541.393 47247464 46847528 46375288 45834404 45210864 44484728 43642840 
1544.768 42696776 41683680 40657592 39666156 38728196 37832348 36943072 
1548.143 36022128 35047128 34029628 33012222 32055404 31207270 30484106 
1551.518 29869606 29328958 28828742 28352162 27906560 27515494 27203472 
1554.894 26978118 26821566 26692060 26536142 26291068 25892556 25290132 
1558.269 24468660 23480654 22443528 21489704 20699988 20085318 19610468 
1561.644 19224234 18878866 18533808 18161762 17751684 17311754 16866618 
1565.019 16449023 16087217 15791750 15553727 15349817 15153275 14944169 
1568.395 14715968 14478774 14254618 14067299 13931379 13848862 13812262 
1571.770 13811064 13835521 13877221 13927307 13973841 14002755 14001695 
1575.145 13966484 13908763 13854917 13837334 13876024 13971719 14108370 
1578.520 14264478 14421704 14569736 14707707 14840852 14976132 15117902 
1581.896 15266206 15417203 15566605 15711935 15852984 15990229 16121328 
1585.271 16239773 16336404 16401397 16430439 16427413 16405355 16382679 
1588.646 16379032 16411858 16492041 16626285 16818328 17069900 17379894 
1592.021 17740536 18134882 18533840 18899388 19194244 19385970 19457416 
1595.396 19409668 19261156 19041926 18784678 18521912 18279970 18079404 
1598.772 17938426 17871888 17891844 18006110 18216906 18521912 18915724 
1602.147 19393350 19949618 20577574 21265832 21993488 22728788 23434140 
1605.522 24065650 24580500 24945032 25134258 25137804 24959770 24617002 
1608.897 24135070 23543298 22875138 22163892 21443402 20747044 20100970 
1612.273 19521700 19013158 18567314 18167842 17794384 17429146 17059836 
1615.648 16684713 16315004 15973488 15687441 15477940 15354725 15313673 
1619.023 15341097 15417238 15520416 15631484 15735539 15827039 15911411 
1622.398 16004633 16126417 16292334 16507838 16767047 17057976 17369342 
1625.774 17695152 18033950 18385904 18749216 19117126 19478658 19823846 
1629.149 20147060 20450160 20740230 21025036 21308462 21587650 21851824 
1632.524 22085934 22274406 22403056 22463798 22456226 22391052 22287556 
1635.899 22169612 22059056 21967590 21895904 21835588 21774164 21696518 
1639.275 21588658 21442218 21255776 21037658 20801890 20565102 20338512 
1642.650 20124222 19914096 19692318 19440472 19142334 18790768 18392092 
1646.025 17968330 17553122 17182330 16884808 16673626 16546147 16488601 
1649.400 16481303 16499717 16514275 16491078 16390352 16176831 15841885 
1652.776 15429288 15031627 14738281 14586287 14552535 14588068 14645433 
1656.151 14693380 14717407 14714253 14688685 14647832 14597320 14538694 
1659.526 14469456 14384919 14280777 14155095 14009223 13847802 13678678 
1662.901 13511124 13354261 13215832 13100429 13007553 12932381 12865582 
1666.277 12794734 12705575 12585701 12427365 12230984 12005805 11768281 
1669.652 11537761 11329640 11152485 11007381 10889776 10790919 10699148 
1673.027 10601726 10484979 10338468 10160123 9960830 9763189 9592328 9465319 
1676.885 9384324 9338753 9311332 9286181 9255175 9218656 9184846 9164033 
1680.742 9161969 9175201 9190294 9186639 9144203 9053456 8925387 8792351 
1684.599 8695695 8663277 8696472 8777914 8884498 8998246 9107624 9207724 
1688.457 9298096 9379821 9455533 9528344 9603304 9686339 9782539 9893979 
1692.314 10017418 10143504 10257852 10345255 10394290 10404981 10392763 
1695.689 10386111 10414110 10488305 10599452 10720748 10820812 10867896 
1699.065 10840684 10738035 10587093 10436543 10330427 10288149 10298091 
1702.440 10334057 10366802 10373487 10340436 10262433 10144725 10000804 
1705.815 9849101 9705075 9578101 9469823 9375961 9289295 9202817 9111820 
1709.673 9014788 8913583 8811692 8713239 8620858 8535053 8454096 8375721 
1713.530 8297562 8218878 8139971 8061114 7981324 7898041 7808026 7711183 
1717.387 7613620 7527710 7469154 7448154 7466929 7518338 7589679 7666833 
1721.245 7737627 7796050 7841054 7877087 7911099 7950412 7999313 8058446 
1725.102 8125995 8198484 8273010 8346671 8416291 8478050 8527652 8561377 
1728.960 8578477 8581249 8574286 8561851 8544042 8514272 8458826 8359845 
1732.817 8203650 7990268 7743293 7503909 7315873 7202195 7157998 7160322 
1736.675 7180871 7196434 7191145 7159716 7106093 7041397 6979573 6931225 
1740.532 6901397 6889076 6889951 6899478 6914863 6934457 6957486 6982974 
1744.389 7009845 7036548 7062210 7086121 7107642 7125561 7137720 7141055 
1748.247 7132432 7109192 7070258 7016747 6951931 6881198 6811656 6750739 
1752.104 6704031 6674185 6659953 6656924 6657093 6651608 6632229 6594382 
1755.962 6539416 6474636 6412422 6364204 6335826 6325303 6324060 6320496 
1759.819 6303081 6265295 6207010 6135223 6061566 5997026 5949861 5921948 
1763.677 5910494 5909957 5914189 5917850 5915902 5905356 5884565 5854977 
1767.534 5821058 5789594 5766493 5754573 5751047 5748126 5736006 5705756 
1771.391 5654360 5587598 5519873 5467224 5440885 5443167 5467526 5504101 
1775.249 5543196 5579476 5611899 5642242 5673058 5704279 5733790 5757561 
1779.106 5772100 5776532 5773712 5768541 5766459 5769481 5776599 5783483 
1782.964 5785833 5781099 5770387 5757427 5747690 5745977 5753700 5769985 
1786.821 5792751 5819380 5848126 5877512 5905490 5928061 5939918 5935384 
1790.678 5910158 5864850 5805376 5742284 5686956 5647378 5625459 5618142 
1794.536 5619585 5623780 5627842 5630125 5630695 5629453 5625962 5618880 
1798.393 5607871 5593572 5578301 5565648 5558802 5559204 5566253 5577630 
1802.251 5590719 5604178 5618209 5633616 5651540 5671984 5693637 5714586 
1806.108 5733387 5749671 5764679 5779688 5795470 5811219 5824517 5832678 
1809.966 5834223 5829790 5822536 5817129 5817264 5824148 5836640 5851719 
1813.823 5865925 5877848 5888058 5899276 5914592 5936458 5965414 5999848 
1817.680 6037174 6075342 6112943 6150682 6189533 6230606 6274103 6319453 
1821.538 6364540 6407445 6445243 6475813 6497540 6510623 6516947 6521219 
1825.395 6529459 6546749 6575577 6614365 6657396 6696528 6723582 6734350 
1829.253 6729875 6718029 6709852 6716246 6743100 6789240 6848479 6913112 
1833.110 6976711 7036212 7092385 7148162 7206608 7269576 7336530 7405887 
1836.968 7476233 7548276 7624815 7709632 7806407 7916363 8038330 8168197 
1840.825 8300433 8430311 8553741 8668652 8775750 8878106 8981366 9091857 
1844.682 9214865 9352194 9500979 9653678 9800093 9929234 10030880 10098836 
1848.540 10131259 10130615 10101652 10050207 9980529 9894318 9791960 9673634 
1852.397 9541181 9398815 9251520 9103970 8959278 8817609 8677880 8538906 
1856.255 8401292 8267573 8141457 8025875 7921323 7825399 7734456 7644441 
1860.112 7553434 7461907 7372859 7289253 7212739 7143615 7080598 7022910 
1863.969 6970718 6925569 6889547 6863021 6843699 6826970 6807044 6779548 
1867.827 6744009 6704940 6669643 6645586 6637343 6644408 6662745 6686870 
1871.684 6712376 6736605 6758782 6778134 6793279 6801525 6799674 6785269 
1875.542 6758312 6720688 6676540 6629975 6583415 6537431 6491351 6444167 
1879.399 6396113 6348636 6304157 6264186 6228790 6196255 6163621 6129375 
1883.257 6093588 6058609 6027565 6003241 5985906 5973477 5962021 5947712 
1887.114 5929069 5906229 5881576 5858201 5838521 5823745 5814779 5812126 
1890.971 5817062 5831099 5854977 5887386 5924669 5961719 5993633 6017586 
1894.829 6034049 6045976 6057669 6071276 6086598 6100980 6110725 6113850 
1898.686 6110994 6105752 6102358 6104172 6111800 6123058 6134752 6144330 
1902.544 6151387 6157773 6165872 6176661 6188760 6199481 6204859 6203044 
1906.401 6194977 6183617 6173569 6167519 6165805 6166510 6166645 6164696 
1910.259 6161537 6159621 6162276 6170779 6183718 6197397 6207918 6212993 
1914.116 6212791 6209665 6205968 6202338 6197565 6188121 6171955 6150110 
1917.973 6127191 6109885 6102829 6106088 6113884 6116740 6105685 6076317 
1921.831 6030823 5978280 5930681 5898134 5885237 5889737 5904617 5922250 
1925.688 5937399 5949626 5960543 5972737 5986981 6001595 6014059 6022659 
1929.546 6028001 6033511 6042986 6058811 6080382 6103534 6122890 6135525 
1933.403 6140835 6141474 6141306 6142549 6144834 6145070 6140062 6128939 
1937.260 6114422 6101988 6096948 6101484 6112640 6123226 6125477 6114153 
1941.118 6089488 6057702 6028068 6008717 6003241 6009960 6024104 6041507 
1944.975 6060726 6083944 6114959 6156462 6206909 6262203 6315755 6363329 
1948.833 6403376 6437105 6467035 6493605 6515030 6526163 6523438 6505915 
1952.690 6477461 6446353 6420896 6406806 6403948 6407243 6409362 6404150 
1956.548 6389758 6368810 6346754 6328396 6315890 6308090 6303048 6299349 
1960.405 6299013 6305098 6320260 6343761 6370895 6393658 6405259 6403477 
1964.262 6391843 6377014 6366624 6365011 6370727 6377619 6380881 6378023 
1968.120 6372946 6374122 6388850 6419988 6464446 6513314 6556335 6586745 
1971.977 6604171 6612380 6617863 6624458 6633474 6644611 6658338 6679703 
1975.835 6718736 6785942 6886955 7017690 7161569 7294409 7394900 7447210 
1979.692 7448828 7407606 7337811 7253235 7165274 7080092 7000989 6930383 
1983.550 6871402 6827374 6799808 6786548 6781802 6778066 6770292 6756898 
1987.407 6742494 6733812 6735730 6748855 6766658 6780927 6783754 6772850 
1991.264 6753230 6735798 6731827 6746936 6780557 6824816 6869315 6906043 
1995.122 6932067 6948833 6961526 6973344 6983883 6990247 6987318 6972098 
1998.979 6946005 6912843 6879280 6849758 6824480 6800784 6773758 6739937 
2002.837 6698984 6654401 6611740 6577898 6557580 6554115 6569084 6603767 
2006.694 6657833 6728697 6809905 6891802 6961459 7008936 7029476 7026345 
2010.552 7008026 6987082 6974119 6973311 6982637 6996510 7009003 7017690 
2014.409 7025738 7038569 7061772 7098044 7145333 7198354 7251719 7303136 
2018.266 7352739 7402921 7454221 7504246 7548613 7581722 7600739 7607854 
2022.124 7609304 7612372 7622826 7640361 7659819 7674827 7679987 7674860 
2025.981 7664642 7656615 7657189 7668385 7686462 7705180 7719851 7729093 
2029.839 7736075 7747341 7769030 7803202 7849556 7905464 7968196 8039376 
2033.696 8121741 8218608 8329580 8448555 8565669 8670106 8753537 8813687 
2037.553 8853825 8880642 8899547 8915409 8928904 8939018 8945918 8951532 
2041.411 8959176 8972436 8992529 9016952 9040397 9057347 9064688 9063504 
2045.268 9059106 9059377 9071286 9098895 9142545 9199364 9263942 9329951 
2049.126 9389605 9435621 9460511 9459122 9430440 9380057 9318983 9261742 
2052.983 9223360 9213308 9233446 9275856 9327175 9372745 9401795 9411106 
2056.841 9404469 9390824 9377586 9370611 9371830 9379583 9391908 9408025 
2060.698 9427765 9451774 9479102 9506703 9530039 9544094 9546364 9537218 
2064.555 9519742 9497830 9474801 9452282 9430272 9408363 9387506 9370002 
2068.413 9358559 9354766 9356832 9359981 9358830 9348131 9326939 9298333 
2072.270 9268715 9244209 9229215 9223258 9222751 9223732 9223022 9220889 
2076.128 9220246 9224679 9235578 9251520 9268411 9281103 9286993 9286384 
2079.985 9282729 9280900 9284421 9293628 9306559 9319051 9327988 9332525 
2083.843 9333540 9333370 9333676 9334047 9332355 9325990 9313330 9294982 
2087.700 9273657 9253111 9235578 9221092 9208096 9192934 9173576 9149922 
2091.557 9124746 9102109 9086275 9079643 9083128 9095274 9114189 9137435 
2095.415 9163288 9190328 9216624 9240858 9261979 9280358 9297758 9317290 
2099.272 9341733 9372203 9407246 9443342 9476562 9504264 9526550 9546973 
2103.130 9570582 9601271 9640533 9686949 9736622 9785995 9833985 9881674 
2106.987 9932556 9989954 10054446 10123662 10192516 10255647 10308846 
2110.362 10351396 10385331 10414211 10441464 10468720 10495874 10522285 
2113.738 10547134 10570831 10594936 10620401 10647022 10673780 10697824 
2117.113 10717080 10730936 10740819 10749514 10760349 10775193 10794248 
2120.488 10816327 10840073 10865043 10892392 10924330 10962116 11005987 
2123.863 11053636 11101120 11145278 11184068 11218783 11252411 11288898 
2127.239 11330626 11378583 11430388 11482779 11532794 11578322 11618582 
2130.614 11654793 11688115 11720623 11754630 11793407 11840530 11899372 
2133.989 11972322 12057515 12149846 12241617 12323522 12389760 12438072 
2137.364 12471795 12496518 12518923 12543273 12571342 12602040 12632637 
2140.740 12660951 12685855 12706053 12720246 12725330 12717107 12691996 
2144.115 12647681 12585668 12509817 12425797 12338385 12250410 12162079 
2147.490 12073118 11983358 11894774 11810805 11733728 11662995 11594623 
2150.865 11520375 11432191 11325661 11200320 11061896 10918995 10778385 
2154.240 10644170 10516309 10395274 10284553 10196111 10147234 10159682 
2157.616 10248726 10415263 10641250 10895246 11139737 11341952 11484174 
2160.991 11561717 11582406 11560594 11509317 11441649 11367189 11293659 
2164.366 11227079 11171863 11128348 11092895 11059143 11019072 10966499 
2167.741 10899290 10820166 10733755 10645392 10558574 10472249 10384686 
2171.117 10293103 10197706 10102059 10011620 9933133 9871506 9827816 9800602 
2174.974 9786435 9780302 9777150 9771084 9754716 9720730 9663063 9579829 
2178.832 9475444 9362046 9257274 9177807 9136894 9137841 9173915 9230839 
2182.689 9292037 9344542 9379651 9395259 9392890 9375487 9344745 9302395 
2186.546 9250437 9192866 9136217 9087864 9053930 9037014 9036236 9046994 
2190.404 9064214 9083196 9102042 9119603 9134694 9145286 9148263 9140548 
2194.261 9121667 9094496 9065703 9042393 9032007 9036777 9055351 9082587 
2198.119 9112936 9141056 9165217 9185116 9201800 9215677 9226135 9231449 
2201.976 9231043 9225120 9215812 9205692 9196657 9188230 9179025 9166706 
2205.833 9150227 9131141 9112497 9098218 9090910 9089963 9092195 9093616 
2209.691 9091417 9085326 9078898 9076835 9083432 9100248 9125592 9154761 
2213.548 9183425 9208401 9229080 9247662 9267259 9289633 9315733 9343764 
2217.406 9371932 9398240 9420993 9439583 9453738 9462576 9465387 9462136 
2221.263 9453230 9440158 9425395 9409785 9393533 9374606 9350569 9319356 
2225.121 9281544 9240790 9201733 9169888 9148940 9138755 9136826 9138653 
2228.978 9140718 9141225 9140785 9141428 9145658 9154896 9169346 9188196 
2232.835 9210566 9236797 9267293 9302226 9340412 9379312 9415406 9445848 
2236.693 9469484 9487907 9504231 9521436 9540978 9561944 9580709 9593886 
2240.550 9599510 9597816 9592328 9587958 9588568 9596325 9610959 9629929 
2244.408 9650256 9670415 9689524 9708362 9727168 9745567 9761799 9773897 
2248.265 9780234 9780709 9776913 9771219 9766306 9764103 9765730 9771897 
2252.123 9783860 9802635 9829138 9864015 9904861 9947100 9985072 10012670 
2255.980 10025319 10021996 10004126 9975647 9941031 9903945 9866489 9829308 
2259.837 9792705 9756784 9722593 9691489 9664994 9644735 9631387 9625763 
2263.695 9628845 9640940 9662081 9691658 9726523 9762918 9796230 9822359 
2267.552 9838832 9845882 9845305 9839950 9832155 9823444 9813989 9803720 
2271.410 9793180 9783420 9776371 9774032 9777117 9785012 9795586 9806396 
2275.267 9815480 9822190 9827443 9833375 9842187 9855440 9873268 9894386 
2279.125 9917098 9939201 9958695 9974223 9984530 9989377 9988869 9984190 
2282.982 9977172 9969747 9963746 9960119 9958389 9957101 9954321 9948558 
2286.839 9939506 9927438 9914589 9902013 9890962 9881607 9873336 9865066 
2290.697 9856693 9848220 9840594 9834629 9830934 9829104 9828189 9827206 
2294.554 9825342 9822292 9818259 9813514 9808125 9801652 9793485 9783250 
2298.412 9770813 9756580 9741772 9726862 9712326 9698028 9683459 9667941 
2302.269 9651612 9634741 9617971 9601982 9587009 9572648 9558591 9544297 
2306.126 9529733 9515611 9502571 9490921 9480558 9470500 9459867 9448320 
2309.984 9435791 9423668 9413714 9407246 9404842 9405926 9408702 9411174 
2313.841 9411512 9408465 9401828 9391502 9377620 9360116 9338550 9312687 
2317.699 9282694 9249625 9215170 9181190 9150227 9124035 9104241 9091146 
2321.556 9083602 9078830 9072233 9057482 9028319 8979303 8908206 8816459 
2325.414 8709926 8596728 8486666 8388186 8306985 8244846 8200138 8169479 
2329.271 8148547 8134333 8125050 8120357 8120323 8124475 8131902 8141052 
2333.128 8150606 8160161 8169750 8179642 8190346 8201488 8212226 8221985 
2336.986 8230089 8237045 8243697 8251363 8260819 8272605 8286755 8303034 
2340.843 8322082 8344544 8371127 8402069 8436630 8473793 8512751 8554416 
2344.701 8601763 8660506 8736025 8832623 8950924 9086478 9230501 9371966 
2348.558 9499049 9600797 9669567 9700806 9694437 9654017 9587145 9503384 
2352.416 9412223 9322131 9238590 9164135 9099165 9042460 8993645 8952377 
2356.273 8919265 8895794 8882435 8879053 8884363 8896030 8911114 8927619 
2360.130 8944023 8959955 8975683 8991818 9008901 9027745 9049667 9075548 
2363.988 9107692 9147689 9196792 9255751 9323994 9400000 9481879 9567567 
2367.845 9655236 9743840 9832155 9919370 10004567 10087069 10167076 10245334 
2371.703 10323301 10403046 10486404 10574667 10668347 10767414 10871294 
2375.078 10979480 11091772 11207732 11327021 11449065 11573219 11698939 
2378.453 11826059 11954441 12084531 12216295 12349396 12482435 12613603 
2381.828 12740547 12861589 12975701 13082637 13182769 13276535 13363966 
2385.204 13444750 13518098 13583696 13641784 13693143 13739035 13780760 
2388.579 13818863 13853241 13883550 13909174 13930113 13947391 13962138 
2391.954 13975791 13989376 14002892 14015622 14027155 14037010 14045806 
2395.329 14054977 14066238 14081502 14101764 14127504 14158141 14193333 
2398.705 14232568 14275230 14321663 14371527 14424616 14480760 14539516 
2402.080 14600781 14665173 14733345 14805951 14883746 14966906 15055089 
2405.455 15148128 15245512 15347345 15453665 15564236 15678853 15796835 
2408.830 15917426 16039873 16164038 16290132 16418431 16549211 16681958 
2412.206 16815504 16947954 17076930 17200014 17315616 17422040 17518590 
2415.581 17604532 17679518 17743644 17797490 17842370 17879796 17912182 
2418.956 17940878 17967364 17992330 18015954 18038196 18059094 18078852 
2422.331 18098058 18117506 18138338 18161692 18189022 18221986 18262450 
2425.707 18312008 18371802 18442252 18522742 18612342 18709814 18814400 
2429.082 18926244 19045976 19175128 19314846 19465594 19627212 19799188 
2432.457 19980252 20169828 20367054 20571946 20783780 21002570 21227558 
2435.832 21457918 21692478 21930472 22171076 22413662 22658058 22904232 
2439.208 23152610 23404416 23660742 23922926 24192274 24468450 24750520 
2442.583 25036248 25323252 25609006 25891922 26171400 26447674 26721412 
2445.958 26993208 27263762 27533108 27801210 28067920 28333204 28596526 
2449.333 28856892 29113020 29363308 29606540 29842242 30070864 30293600 
2452.708 30512008 30726794 30937770 31143688 31342688 31532548 31711732 
2456.084 31878896 32033178 32174028 32300256 32410878 32504606 32580744 
2459.459 32638680 32678724 32701406 32707196 32696332 32668720 32624710 
2462.834 32565210 32491860 32407418 32315460 32219742 32124542 32034426 
2466.209 31953820 31887420 31840388 31816610 31819354 31850372 31910028 
2469.585 31997584 32111626 32251180 32415840 32605354 32819462 33056662 
2472.960 33314064 33586904 33870124 34158228 34446768 34732092 35011824 
2476.335 35283756 35545140 35793300 36025332 36237960 36429688 36598968 
2479.710 36745272 36867928 36965976 37038392 37084040 37101976 37093244 
2483.086 37059464 37004076 36930872 36844052 36747112 36643092 36533512 
2486.461 36419524 36301104 36177780 36048588 35912592 35769088 35617968 
2489.836 35459388 35294396 35122820 34944592 34757756 34559484 34346884 
2493.211 34116788 33867652 33599324 33313024 33010900 32695048 32366756 
2496.587 32026510 31674414 31309888 30933822 30547344 30152542 29751820 
2499.962 29347604 28942096 28536652 28132678 27731308 27333802 26941840 
2503.337 26557346 26181886 25817122 25464120 25123550 24795876 24481244 
2506.712 24179418 23890332 23613614 23348888 23096348 22856350 22629852 
2510.088 22417742 22220872 22039288 21872068 21718044 21575636 21443332 
2513.463 21320710 21207830 21105866 21015194 20936640 20869816 20814196 
2516.838 20769112 20733906 20708570 20693280 20688274 20693176 20707458 
2520.213 20729874 20759520 20795564 20838076 20886816 20941856 21002430 
2523.589 21067396 21134842 21203168 21270912 21337136 21401318 21462724 
2526.964 21520376 21572188 21615752 21648802 21669002 21675410 21668270 
2530.339 21648106 21616412 21574764 21524346 21466448 21402396 21333308 
2533.714 21260786 21185876 21109798 21033382 20956806 20880870 20805818 
2537.090 20732688 20662248 20595466 20532968 20475064 20421438 20371986 
2540.465 20326186 20283654 20244354 20208218 20174652 20143588 20114540 
2543.840 20086950 20060958 20036010 20011616 19987052 19961276 19933002 
2547.215 19901434 19866368 19827938 19787986 19748246 19710452 19676230 
2550.591 19646000 19619862 19597502 19578474 19562392 19549186 19538370 
2553.966 19529464 19521736 19514214 19506002 19496506 19485278 19472594 
2557.341 19458178 19442238 19424152 19403536 19379976 19352916 19321982 
2560.716 19287272 19248236 19205014 19157362 19105630 19050614 18993740 
2564.092 18937078 18882916 18833050 18789350 18752606 18723028 18700198 
2567.467 18683490 18672108 18665226 18661800 18661074 18662596 18666126 
2570.842 18671902 18680790 18693314 18710228 18731816 18757622 18786686 
2574.217 18818172 18851286 18885546 18920674 18956598 18992840 19028910 
2577.593 19063980 19097668 19130076 19162210 19195420 19231438 19271304 
2580.968 19315712 19364490 19416736 19471312 19527870 19585406 19644370 
2584.343 19704938 19767492 19832204 19899422 19969186 20041318 20115822 
2587.718 20192110 20269524 20347228 20424460 20500836 20576462 20651754 
2591.094 20727058 20802654 20878402 20953224 21026322 21096890 21164550 
2594.469 21230028 21293878 21356766 21419208 21481000 21541372 21600220 
2597.844 21657474 21713724 21770156 21827678 21887018 21948248 22010670 
2601.219 22073870 22137534 22202112 22268582 22338306 22412614 22492064 
2604.594 22577042 22667204 22762342 22862076 22966584 23075730 23189622 
2607.970 23308194 23430852 23557256 23686950 23819446 23954226 24090062 
2611.345 24225872 24359514 24489518 24614618 24734770 24850326 24962542 
2614.720 25072262 25180288 25285916 25388552 25486608 25579694 25667352 
2618.095 25750562 25830484 25908276 25984288 26058482 26130084 26198216 
2621.471 26262064 26321626 26376934 26428518 26476832 26522440 26565554 
2624.846 26606626 26645870 26683676 26720566 26757144 26793514 26830060 
2628.221 26867000 26904824 26943850 26984642 27027270 27071524 27116456 
2631.596 27161144 27204566 27245664 27284368 27320604 27354904 27387404 
2634.972 27418320 27447650 27475040 27500526 27524106 27546454 27568272 
2638.347 27590302 27613430 27638040 27664242 27692566 27722796 27755680 
2641.722 27791108 27829612 27871406 27916736 27965640 28018440 28075096 
2645.097 28135120 28198120 28263500 28330304 28398038 28466492 28536226 
2648.473 28607568 28681468 28758392 28838194 28920176 29003338 29086342 
2651.848 29168970 29250870 29332820 29415674 29500636 29588414 29679510 
2655.223 29773856 29871344 29971980 30075620 30181916 30291078 30402756 
2658.598 30516418 30631638 30747706 30863734 30979082 31093036 31205206 
2661.974 31315372 31423752 31530804 31637456 31744738 31853546 31964626 
2665.349 32077984 32193478 32310176 32427802 32545496 32663290 32781046 
2668.724 32899584 33018906 33139728 33262194 33386730 33513274 33641856 
2672.099 33772412 33904908 34039272 34175536 34314000 34455020 34598880 
2675.475 34745660 34895256 35046484 35198300 35349600 35499224 35647100 
2678.850 35793804 35940524 36088692 36239688 36394268 36553012 36716136 
2682.225 36883764 37056468 37234696 37419460 37611312 37810516 38017004 
2685.600 38230544 38450664 38677304 38910048 39149076 39393972 39644192 
2688.976 39899028 40157104 40417952 40681316 40947212 41216292 41489368 
2692.351 41767320 42050744 42340016 42635400 42936984 43244964 43559208 
2695.726 43879616 44205508 44536120 44870844 45209248 45551112 45896968 
2699.101 46247048 46601904 46961296 47324608 47690480 48057548 48424004 
2702.477 48788616 49150268 49508028 49861552 50210336 50553928 50891908 
2705.852 51223368 51547020 51861728 52165720 52457736 52736400 53001320 
2709.227 53252468 53490536 53716576 53931788 54137044 54333120 54520272 
2712.602 54698748 54868576 55029780 55181976 55324628 55456824 55576744 
2715.978 55683108 55773816 55847700 55903508 55941464 55962004 55966676 
2719.353 55957668 55938108 55911576 55881992 55853276 55829348 55813300 
2722.728 55807760 55814844 55835868 55872008 55924088 55992836 56078296 
2726.103 56180852 56299920 56435132 56585860 56751928 56932536 57127536 
2729.479 57336388 57557900 57790952 58033416 58283248 58538340 58796772 
2732.854 59056760 59317092 59575912 59831920 60083664 60329384 60567856 
2736.229 60798112 61019072 61230340 61431592 61622552 61803628 61975604 
2739.604 62140044 62299000 62454952 62610656 62768056 62929004 63094644 
2742.979 63265756 63443148 63627704 63820944 64024092 64238400 64464344 
2746.355 64701676 64949332 65204984 65465756 65727844 65987044 66238524 
2749.730 66477516 66699220 66899508 67075104 67223848 67344936 67438776 
2753.105 67506928 67551480 67574672 67578424 67563600 67530152 67476464 
2756.480 67400184 67297736 67166024 67002140 66804320 66572288 66306332 
2759.856 66007988 65678700 65320008 64933636 64521276 64085380 63628972 
2763.231 63156224 62671588 62180912 61689612 61203060 60726848 60266000 
2766.606 59824692 59407012 59015916 58653732 58321708 58020688 57750948 
2769.981 57512316 57304744 57127688 56980664 56862732 56772432 56707868 
2773.357 56666528 56645424 56640744 56648936 56666036 56687556 56709528 
2776.732 56727276 56736676 56733920 56715040 56676872 56617036 56533624 
2780.107 56426000 56294940 56142352 55971800 55787680 55594824 55397532 
2783.482 55199920 55005108 54814780 54629940 54450816 54276988 54106908 
2786.858 53938352 53768664 53594544 53412252 53218908 53012176 52791180 
2790.233 52556076 52308360 52050060 51784264 51513892 51242048 50971972 
2793.608 50707060 50450236 50204424 49972500 49757164 49561024 49386836 
2796.983 49237140 49114132 49019572 48954552 48919096 48912568 48933412 
2800.359 48979772 49049396 49140252 49250316 49377744 49520544 49677064 
2803.734 49845716 50024584 50211936 50406360 50605600 50807652 51010020 
2807.109 51209800 51404036 51589892 51764408 51924984 52069188 52194452 
2810.484 52298304 52378292 52432200 52458108 52454968 52422440 52360948 
2813.860 52271208 52154808 52013868 51851164 51670720 51477296 51276648 
2817.235 51075608 50880696 50698644 50536064 50398436 50291464 50219336 
2820.610 50185712 50192668 50240612 50328036 50451760 50606752 50787836 
2823.985 50988368 51202716 51424960 51649260 51869796 52081100 52277300 
2827.361 52453472 52605404 52730080 52826012 52893188 52932636 52946784 
2830.736 52938324 52911188 52868524 52814116 52751440 52682980 52611576 
2834.111 52538876 52466784 52397432 52332804 52275020 52226292 52187952 
2837.486 52161796 52148908 52151036 52170616 52211492 52278236 52376832 
2840.862 52513744 52696076 52930688 53225576 53588924 54031212 54564640 
2844.237 55202856 55960836 56852872 57889264 59073384 60398072 61842556 
2847.612 63367768 64918860 66427356 67811144 68989544 69888968 70449568 
2850.987 70637720 70445872 69894496 69024768 67896064 66578120 65138496 
2854.363 63644892 62156716 60720180 59372172 58136360 57023960 56036336 
2857.738 55166700 54402592 53728316 53127608 52585768 52088948 51626276 
2861.113 51188660 50768208 50358620 49954656 49551960 49147860 48740944 
2864.488 48331928 47923148 47519444 47127460 46754756 46410428 46103104 
2867.864 45839964 45626704 45466084 45358408 45300592 45287388 45311664 
2871.239 45364000 45434408 45512992 45589720 45656812 45708308 45740888 
2874.614 45753812 45748728 45728848 45697632 45658652 45615184 45569476 
2877.989 45523184 45477672 45433232 45390224 45348624 45308096 45268632 
2881.365 45230576 45195016 45163324 45136928 45117484 45105936 45103144 
2884.740 45108880 45123804 45147812 45181708 45226160 45281872 45348956 
2888.115 45427564 45516856 45616400 45725572 45844752 45974352 46115672 
2891.490 46270156 46439372 46625364 46830260 47056776 47307908 47586692 
2894.865 47896472 48238944 48614816 49022504 49457788 49913324 50378528 
2898.241 50840804 51285184 51696212 52060932 52369208 52616176 52803040 
2901.616 52936716 53028764 53092860 53143672 53195540 53260224 53348556 
2904.991 53469584 53630720 53838760 54099364 54416752 54794968 55237736 
2908.366 55748800 56333192 56996532 57744968 58583840 59516436 60542032 
2911.742 61654744 62843412 64090520 65371728 66659316 67919696 69116720 
2915.117 70216792 71187808 72005520 72656080 73136424 73453960 73623824 
2918.492 73666296 73600304 73440856 73196504 72867912 72449016 71929344 
2921.867 71298376 70548336 69678192 68695248 67616672 66468328 65279528 
2925.243 64083384 62910892 61786856 60730848 59754692 58863012 58055304 
2928.618 57326252 56668300 56072000 55527832 55027560 54564380 54134264 
2931.993 53735888 53370360 53040372 52748560 52497444 52287580 52117900 
2935.368 51985180 51885216 51811888 51758580 51718084 51682552 51644784 
2938.744 51599108 51541648 51471288 51389264 51299356 51206628 51115976 
2942.119 51032380 50959084 50897572 50847432 50806460 50769772 50730784 
2945.494 50681332 50613156 50518344 50392740 50235852 50052172 49850548 
2948.869 49643072 49443644 49264564 49116508 49006364 48936676 48906116 
2952.245 48910344 48942760 48994684 49057964 49124932 49189048 49245896 
2955.620 49292480 49327296 49349528 49358772 49354948 49338244 49310068 
2958.995 49272844 49229868 49185036 49141808 49102892 49069276 49040972 
2962.370 49017568 48998432 48983852 48974688 48972316 48977732 48991420 
2965.746 49012708 49040232 49072508 49108384 49147116 49188972 49234616 
2969.121 49284832 49340436 49402432 49471564 49548656 49634676 49729852 
2972.496 49833896 49945584 50062696 50182552 50301848 50417820 50527612 
2975.871 50628424 50717676 50792008 50847620 50880956 50888332 50867768 
2979.247 50818528 50741844 50640524 50519016 50382356 50236000 50084784 
2982.622 49933172 49783396 49636684 49491948 49346784 49197356 49039340 
2985.997 48868592 48681972 48477572 48254976 48014840 47758644 47487544 
2989.372 47202512 46903268 46588404 46255596 45902384 45526904 45128916 
2992.748 44710720 44277156 43835264 43392540 42956300 42531460 42119740 
2996.123 41719720 41327172 40936904 40543612 40143912 39736228 39321272 
2999.498 38901204 38478716 38056608 37637328 37222424 36813432 36411452 
3002.873 36017444 35632608 35257808 34893856 34541364 34200956 33872848 
3006.249 33557264 33254716 32964818 32687404 32421626 32166180 31919762 
3009.624 31680972 31448402 31221190 30998332 30779074 30562666 30348174 
3012.999 30135140 29923134 29712116 29502904 29296416 29094170 28897828 
3016.374 28708724 28527948 28355840 28191934 28035474 27885148 27739502 
3019.750 27597648 27458874 27323498 27192078 27065636 26944976 26830730 
3023.125 26723104 26622128 26527900 26441126 26363062 26296102 26242458 
3026.500 26204376 26183152 26178366 26187552 26206030 26227780 26245520 
3029.875 26251926 26241050 26208072 26150600 26068016 25961634 25834036 
3033.250 25688340 25528034 25356340 25176460 24991708 24805244 24619982 
3036.626 24438620 24262798 24093636 23930978 23774088 23621906 23473274 
3040.001 23327422 23183926 23043026 22905106 22770756 22640882 22516142 
3043.376 22396950 22283964 22177038 22076102 21980730 21890258 21804334 
3046.751 21722780 21645632 21573302 21506100 21443960 21386140 21331602 
3050.127 21279020 21227072 21174916 21122320 21068856 21014776 20960006 
3053.502 20904096 20847010 20788960 20730848 20674272 20621212 20573510 
3056.877 20532028 20496494 20465754 20438142 20412200 20387440 20364382 
3060.252 20344344 20328616 20318442 20314102 20315214 20321116 20331290 
3063.628 20345630 20364658 20389038 20418798 20453702 20492292 20532828 
3067.003 20573058 20611102 20645222 20674236 20696684 20711558 20717710 
3070.378 20714512 20701618 20679760 20650120 20614436 20574378 20531752 
3073.753 20487568 20443006 20399106 20357090 20318026 20282994 20252062 
3077.129 20224428 20198638 20172084 20142234 20107632 20067656 20022894 
3080.504 19975118 19926584 19879304 19834596 19793152 19754696 19718428 
3083.879 19683650 19649986 19617852 19587972 19561974 19541144 19526624 
3087.254 19518514 19516052 19517576 19521252 19524890 19527420 19528460 
3090.630 19528840 19529914 19532548 19537886 19545858 19555770 19566930 
3094.005 19578752 19591264 19604922 19620728 19639656 19662190 19688298 
3097.380 19717628 19749216 19782438 19816596 19850898 19885028 19918188 
3100.755 19949792 19979558 20007140 20032956 20057420 20081292 20105168 
3104.131 20129496 20154694 20181040 20209086 20239322 20272612 20309172 
3107.506 20348998 20391156 20434322 20476764 20517128 20554854 20590046 
3110.881 20623470 20656410 20689700 20724314 20760076 20797058 20834842 
3114.256 20873154 20911640 20950200 20988798 21027086 21064892 21101970 
3117.632 21138078 21172864 21205810 21236500 21264266 21288486 21308982 
3121.007 21326104 21340756 21354434 21368914 21385654 21405216 21427738 
3124.382 21452314 21477728 21503072 21527582 21551122 21574206 21597364 
3127.757 21621080 21645528 21670778 21696344 21721666 21746398 21770576 
3131.133 21794336 21818200 21842696 21868584 21896566 21927198 21961038 
3134.508 21998228 22038628 22082168 22128398 22176586 22226138 22275976 
3137.883 22325156 22372808 22418266 22461460 22502568 22542526 22582346 
3141.258 22622906 22664900 22708400 22752496 22796248 22838364 22877966 
3144.634 22914608 22948594 22981048 23013292 23047078 23084150 23126084 
3148.009 23173788 23227686 23286798 23349694 23413998 23477086 23536338 
3151.384 23590594 23639400 23683730 23725408 23766562 23809086 23854276 
3154.759 23902480 23953596 24006994 24062150 24118468 24175634 24233474 
3158.135 24291708 24350192 24409002 24468240 24528432 24590318 24654560 
3161.510 24721478 24791210 24863098 24936258 25009466 25081810 25152338 
3164.885 25220878 25287288 25351914 25415426 25478350 25541248 25604542 
3168.260 25667986 25731578 25794268 25855558 25914888 25972010 26027276 
3171.635 26081456 26135222 26189346 26243970 26298742 26352886 26405454 
3175.011 26455634 26503140 26548188 26591302 26633330 26675220 26717536 
3178.386 26760810 26805248 26850928 26897914 26946070 26995358 27045642 
3181.761 27096740 27148762 27201850 27256036 27311712 27368878 27427602 
3185.136 27487854 27549348 27611806 27675156 27738938 27803366 27868262 
3188.512 27933908 28000662 28068416 28137912 28209010 28281818 28355946 
3191.887 28430654 28504950 28577878 28648622 28716866 28782642 28846730 
3195.262 28910152 28973584 29038232 29104730 29173472 29244526 29317932 
3198.637 29393018 29469288 29545638 29621366 29695654 29768284 29839722 
3202.013 29910816 29982880 30057014 30133898 30213992 30296408 30380298 
3205.388 30464240 30546810 30626872 30703784 30777260 30847726 30916174 
3208.763 30984170 31052996 31124038 31197620 31273566 31350452 31426672 
3212.138 31500768 31571958 31640592 31707988 31775824 31845846 31918514 
3215.514 31994052 32071314 32149374 32227450 32305182 32383390 32462508 
3218.889 32543066 32624998 32707338 32789372 32870098 32948912 33026238 
3222.264 33102896 33179640 33257112 33335530 33414428 33493228 33571476 
3225.639 33649232 33726540 33803932 33881552 33959368 34037012 34113564 
3229.015 34188336 34260396 34329168 34394364 34456348 34515680 34572972 
3232.390 34629168 34684788 34740528 34796416 34852424 34908576 34964600 
3235.765 35020840 35077484 35134820 35193056 35251700 35309992 35367144 
3239.140 35422824 35477040 35530904 35585920 35643720 35705016 35769696 
3242.516 35836660 35903992 35969964 36033392 36094492 36154264 36214296 
3245.891 36276284 36340944 36408392 36478084 36548972 36620776 36693100 
3249.266 36766116 36840300 36915832 36992460 37069748 37146912 37222964 
3252.641 37297552 37370240 37441024 37510336 37578432 37646036 37713324 
3256.017 37780980 37849304 37918428 37988364 38058852 38129564 38200328 
3259.392 38270924 38341744 38413192 38485812 38560184 38636596 38715264 
3262.767 38796196 38879388 38964372 39050572 39137328 39223816 39309628 
3266.142 39394952 39480580 39568116 39658860 39754272 39854140 39957184 
3269.518 40061164 40163500 40261748 40355440 40445444 40534116 40624156 
3272.893 40718760 40819756 40927516 41041452 41160044 41281548 41404616 
3276.268 41528264 41652136 41776440 41901256 42027164 42154720 42284532 
3279.643 42417096 42552948 42692428 42835532 42982308 43132572 43286620 
3283.019 43444536 43606608 43772812 43942892 44116704 44293888 44474228 
3286.394 44658024 44845640 45037680 45234360 45435472 45640100 45847256 
3289.769 46055728 46265032 46475620 46688228 46904484 47125872 47353172 
3293.144 47586804 47826184 48070432 48318556 48569380 48822652 49078332 
3296.520 49336648 49598240 49863888 50133832 50408632 50688404 50972904 
3299.895 51262332 51556832 51857024 52163552 52477548 52799748 53130492 
3303.270 53469848 53816816 54170484 54529624 54893612 55261896 55634628 
3306.645 56011420 56392832 56778856 57169792 57566488 57969948 58381284 
3310.021 58801624 59231220 59669608 60115436 60567132 61023304 61483656 
3313.396 61948548 62419412 62897480 63383600 63877552 64378144 64883536 
3316.771 65391988 65902076 66413424 66925600 67439200 67954328 68471360 
3320.146 68990248 69511000 70033424 70557336 71082152 71607064 72130496 
3323.521 72651424 73168624 73681104 74189160 74692528 75191640 75686240 
3326.897 76175840 76659936 77137376 77607288 78068600 78519640 78957992 
3330.272 79380880 79785304 80168704 80529552 80867856 81184184 81479000 
3333.647 81752128 82002056 82226592 82423432 82591320 82730960 82844744 
3337.022 82935648 83006360 83057992 83089400 83098032 83080096 83032720 
3340.398 82953496 82841248 82695560 82516424 82303400 82056656 81776128 
3343.773 81462128 81115568 80736720 80325664 79881672 79403672 78890960 
3347.148 78344120 77765552 77159648 76530888 75884368 75223440 74549776 
3350.523 73863936 73165688 72454848 71732152 70998800 70256680 69507960 
3353.899 68754752 67998968 67243224 66489988 65742188 65002552 64272708 
3357.274 63553676 62845096 62146428 61456936 60776884 60107296 59450056 
3360.649 58806936 58179432 57568380 56973784 56395436 55832928 55286244 
3364.024 54755348 54240384 53740612 53255544 52783768 52324356 51876216 
3367.400 51438988 51012740 50597672 50193596 49800528 49417652 49044352 
3370.775 48680228 48324816 47977948 47639304 47307688 46982008 46660116 
3374.150 46340080 46020320 45699768 45378384 45056608 44735664 44416676 
3377.525 44100568 43787836 43478264 43170740 42863840 42556016 42245932 
3380.901 41932860 41616796 41298748 40980348 40663412 40349008 40037728 
3384.276 39728964 39421144 39112748 38802064 38488204 38171096 37851872 
3387.651 37532008 37213472 36897976 36587252 36281940 35982492 35688252 
3391.026 35398416 35111648 34826788 34543016 34260040 33977888 33696996 
3394.402 33417684 33140048 32864024 32589354 32316282 32045272 31777286 
3397.777 31513594 31254910 31001748 30753538 30509592 30268236 30028822 
3401.152 29790536 29553478 29317862 29084038 28851792 28620980 28391068 
3404.527 28161810 27933520 27707150 27483582 27264256 27049308 26838872 
3407.903 26631532 26426510 26222746 26019500 25817018 25616280 25417744 
3411.278 25222740 25031824 24845484 24663888 24486748 24313678 24144388 
3414.653 23978104 23814266 23652238 23491568 23331898 23173266 23015390 
3418.028 22858584 22702428 22547132 22392554 22239042 22087398 21938350 
3421.404 21793046 21652390 21517068 21386802 21261484 21140200 21022114 
3424.779 20906042 20790976 20676182 20561038 20445124 20328442 20211516 
3428.154 20095312 19980704 19868656 19759620 19653282 19549082 19445912 
3431.529 19343114 19240410 19138004 19036732 18937354 18840352 18745930 
3434.905 18653500 18561746 18470082 18377748 18284878 18191856 18099542 
3438.280 18008908 17920020 17832530 17745438 17657706 17568408 17476780 
3441.655 17383240 17288516 17193672 17099676 17006734 16914502 16822082 
3445.030 16727962 16631451 16532173 16431438 16330933 16233169 16140241 
3448.406 16053453 15972869 15897112 15824392 15752373 15679609 15605140 
3451.781 15528898 15451673 15374188 15297094 15220632 15144697 15068845 
3455.156 14992595 14915294 14837116 14758094 14678403 14598554 14518617 
3458.531 14438660 14358444 14277867 14196654 14114360 14031296 13947665 
3461.906 13863948 13781375 13700768 13622774 13548247 13476842 13408115 
3465.282 13341243 13274861 13208454 13140691 13070822 12998404 12923540 
3468.657 12846231 12766991 12686810 12606883 12528199 12451473 12377384 
3472.032 12305388 12234903 12164976 12094888 12024301 11953624 11883468 
3475.407 11814822 11748536 11685085 11624673 11566685 11510270 11454100 
3478.783 11397019 11337667 11275364 11209670 11140791 11070087 10999055 
3482.158 10929801 10864363 10803929 10748767 10698367 10651198 10605258 
3485.533 10558676 10509826 10457926 10402741 10344678 10284859 10224674 
3488.908 10165143 10107518 10052513 10000600 9951982 9906589 9864354 9824970 
3492.766 9788333 9753666 9720560 9688270 9655846 9623087 9589483 9555305 
3496.623 9521063 9487636 9455769 9425768 9397969 9371932 9347184 9323181 
3500.481 9299654 9276162 9252366 9228674 9204880 9181563 9159532 9139736 
3504.338 9123223 9111177 9103868 9101162 9101906 9104613 9107997 9110873 
3508.196 9113410 9116421 9121193 9129077 9140582 9155776 9173373 9191953 
3512.053 9210431 9228098 9244886 9261268 9277922 9294881 9312009 9328191 
3515.910 9342443 9353988 9362588 9368919 9374200 9379279 9385001 9390791 
3519.768 9395497 9396886 9393127 9382293 9363739 9338347 9307371 9273081 
3523.625 9237135 9200514 9162544 9122242 9077612 9027102 8969831 8905838 
3527.483 8836613 8763274 8687750 8611260 8534073 8456731 8379504 8303067 
3531.340 8228367 8156379 8087308 8020508 7954158 7886096 7814166 7737458 
3535.198 7656514 7572888 7489279 7407977 7329858 7255257 7182892 7111920 
3539.055 7041532 6972469 6905537 6842151 6782946 6727721 6675060 6623314 
3542.912 6570901 6516476 6459771 6401090 6341004 6280154 6219312 6159218 
3546.770 6100678 6044464 5991449 5941329 5893533 5846447 5798224 5747556 
3550.627 5693838 5637610 5580852 5525679 5474203 5427330 5385058 5346648 
3554.485 5311193 5277451 5245121 5213296 5181540 5148647 5113510 5075056 
3558.342 5032450 4986295 4937900 4889007 4841561 4797168 4756666 4720020 
3562.199 4687162 4656784 4627949 4598815 4566903 4528833 4481459 4421907 
3566.057 4349577 4266351 4177655 4090482 4012087 3947651 3899471 3866039 
3569.914 3843608 3827061 3812120 3794204 3771074 3741730 3706639 3667542 
3573.772 3626577 3586017 3547832 3512691 3480425 3450131 3420408 3390019 
3577.629 3358496 3326008 3293288 3261305 3231094 3203088 3177587 3154490 
3581.487 3134098 3116577 3102461 3091548 3083005 3074763 3063217 3044398 
3585.344 3014202 2969996 2910883 2840106 2763171 2687950 2622409 2572176 
3589.201 2539680 2524216 2521883 2527482 2534981 2539013 2535614 2522283 
3593.059 2498122 2465031 2425712 2384298 2345053 2311241 2284793 2266273 
3596.916 2254949 2248588 2245057 2241793 2237164 2230137 2221311 2211686 
3600.774 2203094 2197099 2194935 2196833 2202295 2210587 2220611 2231335 
3604.631 2240994 2248021 2249653 2242859 2224908 2194502 2152577 2103764 
3608.489 2054157 2011580 1981023 1964147 1958189 1957723 1955826 1946773 
3612.346 1928468 1901977 1871893 1844108 1823344 1812231 1809603 1811765 
3616.203 1813562 1810035 1797126 1772738 1737574 1694961 1649792 1607853 
3620.061 1574530 1552916 1543738 1545933 1556839 1573766 1594616 1618196 
3623.918 1644636 1673374 1703543 1731586 1751147 1754308 1731619 1676001 
3627.776 1586103 1470523 1347163 1239356 1167156 1139050 1150877 1190379 
3631.633 1242945 1295981 1340283 1371826 1390938 1401243 1407659 1414440 
3635.490 1423881 1435948 1448780 1460017 1468362 1473382 1475976 1477039 
3639.348 1477904 1478868 1479533 1479334 1478103 1476840 1477372 1481860 
3643.205 1492001 1507794 1527744 1548194 1564687 1572801 1569077 1551020 
3647.063 1518367 1471554 1412678 1344404 1270957 1198985 1136359 1092011 
3650.920 1072945 1081681 1115729 1167289 1226430 1281758 1323566 1345169 
3654.778 1344305 1323632 1291262 1258662 1236332 1231879 1246866 1278268 
3658.635 1319644 1363749 1404368 1437045 1459884 1473449 1480564 1484985 
3662.492 1490272 1498684 1511551 1528542 1548992 1573001 1601301 1634625 
3666.350 1674072 1718745 1766517 1815259 1864739 1920281 1994803 2108125 
3670.207 2282461 2533048 2864887 3270519 3737084 4248249 4786649 5333902 
3674.065 5858570 6313973 6642154 6784158 6706891 6416020 5951373 5367245 
3677.922 4717407 4051952 3412059 2833836 2347318 1967742 1695660 1516539 
3681.780 1407094 1342942 1303791 1278435 1262184 1254342 1254043 1258629 
3685.637 1262251 1257898 1238891 1201742 1147422 1081681 1012562 948502 
3689.494 895442 855800 829673 815962 813805 822336 839864 863934 891092 
3693.834 917688 940599 958199 970220 978190 984367 991241 1000540 1012230 
3698.174 1025349 1037140 1044546 1044413 1034682 1015253 988551 959494 
3702.031 934523 919415 918319 932132 958863 994463 1033519 1071782 1105166 
3706.371 1131741 1150544 1161475 1164797 1160478 1147953 1127024 1097592 
3710.228 1060821 1019205 976762 939039 911379 897600 899160 914766 940633 
3714.568 971515 1001902 1027143 1043683 1050259 1047735 1038667 1026379 
3718.425 1014455 1004824 998083 993599 989813 985297 979917 974039 968892 
3722.765 965405 963612 962848 961486 957535 950262 939736 928247 919780 
3727.104 918485 927384 948004 978057 1013891 1049628 1079223 1097824 1103206 
3731.444 1096064 1080020 1060456 1041125 1022692 1003164 978788 947108 
3735.301 909752 872865 844977 834287 844379 873296 915164 963711 1013360 
3739.641 1061784 1108488 1153568 1194898 1227294 1240951 1224536 1169116 
3743.498 1074573 956240 842188 765009 743733 776892 846902 929608 1003496 
3747.838 1051322 1064508 1042919 994828 933527 873197 824826 793522 780643 
3752.177 785755 807763 845574 896239 955542 1017445 1075536 1125097 1162471 
3756.517 1186691 1198619 1199815 1192007 1176159 1153701 1126891 1100083 
3760.375 1079322 1070852 1077828 1099685 1131409 1165262 1192971 1209019 
3764.232 1211777 1204367 1193469 1186459 1188220 1199284 1215897 1232045 
3768.089 1242313 1243210 1234737 1220183 1204268 1191443 1184000 1182173 
3771.947 1184565 1188785 1193469 1197789 1201942 1206527 1211810 1217425 
3775.804 1222542 1225068 1223140 1215033 1199948 1179216 1156059 1134997 
3779.662 1121244 1118254 1126758 1144232 1165727 1185495 1198187 1201410 
3783.519 1194865 1181342 1165694 1152039 1144299 1143435 1148750 1158817 
3787.376 1171408 1185130 1199084 1212342 1224303 1233973 1240785 1244473 
3791.234 1245769 1245935 1246500 1247929 1249690 1249325 1243676 1230152 
3795.091 1208089 1179814 1150544 1127655 1116859 1120978 1137289 1159514 
3798.949 1177654 1181276 1163202 1120978 1060921 997385 948702 930173 947174 
3803.288 994795 1060223 1127722 1181375 1209650 1207092 1176890 1130080 
3807.146 1083275 1052219 1045642 1063412 1098256 1140811 1182771 1218887 
3811.003 1248494 1273217 1295516 1316553 1334533 1344970 1342444 1322868 
3814.861 1286377 1239622 1194566 1164631 1159149 1179017 1217060 1261287 
3818.718 1296978 1312000 1298407 1255173 1190280 1119716 1063180 1034815 
3822.575 1040428 1075569 1129781 1190246 1245337 1287573 1313462 1324330 
3826.433 1325094 1322569 1323100 1329348 1341247 1355705 1368502 1375449 
3830.290 1374817 1366873 1354276 1341081 1331609 1328950 1334201 1345834 
3834.148 1360724 1374585 1381764 1377510 1359195 1326656 1283785 1237595 
3838.005 1197357 1171375 1163800 1174199 1197722 1227626 1256436 1278800 
3841.863 1292060 1295881 1292791 1285978 1279531 1276740 1279598 1289268 
3845.720 1305885 1328783 1357134 1389576 1425211 1462777 1501144 1538551 
3849.577 1572369 1598275 1609815 1599139 1557671 1479400 1365477 1228457 
3853.435 1092609 985197 926089 919647 957103 1022725 1100382 1178419 1249059 
3857.774 1307879 1354542 1389709 1414905 1431593 1441167 1444326 1441267 
3861.632 1432258 1416534 1393731 1363749 1327919 1290332 1257732 1237827 
3865.489 1236830 1256901 1293854 1338854 1378872 1401775 1398684 1368336 
3869.347 1317683 1262517 1221147 1205630 1218256 1251617 1293256 1329947 
3873.204 1352880 1359494 1353877 1344770 1341513 1350553 1372823 1404468 
3877.062 1437910 1465403 1479899 1477139 1457092 1423382 1383725 1347296 
3880.919 1322801 1315689 1326291 1350454 1380102 1405664 1418263 1412013 
3884.776 1386983 1349390 1311568 1286377 1283951 1306217 1348360 1399581 
3888.634 1448780 1485418 1502341 1497853 1475377 1443328 1411614 1389276 
3892.491 1381831 1390274 1412180 1443594 1479965 1517270 1551951 1581215 
3896.349 1602798 1614670 1615934 1606755 1588697 1564188 1536788 1509623 
3900.206 1484919 1463209 1443794 1424679 1404102 1381432 1357400 1334234 
3904.063 1315356 1303725 1301398 1308776 1324263 1345535 1369698 1394894 
3907.921 1419493 1443195 1466002 1488277 1509822 1530570 1549723 1567081 
3911.778 1581913 1594217 1603895 1610679 1613606 1611777 1603995 1589794 
3915.636 1569875 1546398 1522258 1501011 1485451 1476940 1475477 1479799 
3919.493 1488543 1500778 1515707 1532964 1551552 1570241 1586569 1598175 
3923.351 1603163 1601035 1593453 1582977 1573300 1567447 1566982 1571637 
3927.208 1579751 1589029 1597443 1603629 1606955 1607221 1604460 1598541 
3931.065 1589628 1577989 1565053 1552683 1543538 1539748 1542641 1551851 
3934.923 1565718 1581747 1597310 1610513 1620224 1627208 1632297 1636953 
3938.780 1641976 1647563 1652752 1656045 1655878 1651022 1640944 1626743 
3942.638 1610380 1594716 1582578 1576060 1576060 1581880 1591457 1601966 
3946.495 1610879 1615635 1615734 1611478 1604660 1597476 1592222 1590160 
3950.353 1591889 1596978 1604427 1613140 1621854 1629836 1636587 1641743 
3954.210 1645335 1647796 1649426 1650856 1652353 1654282 1656477 1658506 
3958.067 1659903 1660335 1659903 1658506 1656843 1655446 1654648 1654681 
3961.925 1655446 1656843 1658506 1659936 1661000 1661067 1660036 1657508 
3965.782 1653750 1649825 1646499 1645202 1646964 1652087 1660302 1670413 
3969.640 1681423 1692234 1702878 1713323 1724534 1736543 1749351 1761726 
3973.497 1772206 1779526 1782852 1782354 1779459 1775899 1773371 1772605 
3977.354 1773570 1775234 1776598 1776564 1774968 1772140 1769012 1766584 
3981.212 1765319 1765419 1766451 1767482 1768014 1767748 1766417 1764787 
3985.069 1763623 1763523 1765053 1768280 1772838 1777729 1782054 1784782 
3988.927 1785448 1784150 1781488 1778760 1776631 1775533 1775333 1775333 
3992.784 1774335 1772373 1769545 1766584 1764987 1765386 1768147 1772439 
3996.642 1776964 1779792 1780158 1777862 1773903 1769744 1766850 1766051 
4000.499 1767415 
##END=
