
##TITLE=mdmaHCL00420_5
##JCAMP-DX=5.01  $$ Nicolet v. 1
##DATATYPE=INFRARED SPECTRUM
##ORIGIN=UniL
##OWNER=Nicolet
##LONGDATE=2011/08/23
##TIME=09:58:51
##SPECTROMETER/DATA SYSTEM=Nicolet iS5
##DATA PROCESSING=
Ratio against background
%Transmittance->Absorbance
Truncated
ElementMultiply or ElementDivide
##COMMENTS=
Number of sample scans: 32
Collection length: 51.18 sec
Sample gain: 2.0
Background collected on: Mar Aout 23 09:56:45 2011 (GMT+02:00);
Number of background scans: 32
Background gain: 2.0
Sample spacing:  1.000
Number of scan points: 12415
Resolution points: 8192
Number of FFT points: 65536
Apodization: N-B fort;
Phase correction: Mertz;
Laser frequency: 15798.0 cm-1
Number of rejected sample scans: 0
Number of rejected background scans: 0
Bench serial number: ASB1000141;
##RESOLUTION=4.000
##XUNITS=1/CM
##YUNITS=ABSORBANCE
##FIRSTX=649.893372
##LASTX=4000.122314
##FIRSTY=0.087375
##MAXX=4000.122314
##MINX=649.893372
##MAXY=0.245410
##MINY=0.001463
##XFACTOR=1.000000
##YFACTOR=1.000000E-009
##NPOINTS=6950
##DELTAX=0.482117
##ZPD=6100
##XYDATA=(X++(Y..Y))
649.893 87374824 87040592 86749224 86524048 86371576 86280064 86228096 
653.268 86199240 86191000 86218512 86305048 86470104 86719808 87042008 
656.643 87416392 87825816 88268192 88758080 89319496 89971264 90719960 
660.018 91558464 92475048 93466416 94546376 95739888 97071816 98545440 
663.393 100134800 101784320 103429536 105015848 106499480 107852048 
666.285 109043808 110024592 110723696 111071608 111037808 110652208 
669.178 109983912 109095480 108017680 106749704 105281136 103610944 
672.071 101767272 99809288 97809296 95841184 93955504 92171656 90488624 
675.446 88898008 87396128 85989728 84691192 83510192 82447112 81492112 
678.820 80627192 79833560 79097312 78408096 77758616 77141448 76545232 
682.195 75956776 75366240 74769672 74171744 73584376 73021912 72494040 
685.570 72003568 71544784 71107488 70682440 70264704 69855032 69457808 
688.945 69076944 68711512 68354608 67993968 67616440 67211736 66775300 
692.320 66309036 65820096 65317652 64809868 64303904 63805936 63321376 
695.694 62857924 62424920 62031408 61686632 61396632 61163044 60982732 
699.069 60848880 60752188 60682532 60632240 60595816 60570448 60555360 
702.444 60550336 60555360 60570064 60593572 60625040 60663596 60708404 
705.819 60759200 60816444 60881436 60957148 61048204 61160756 61301148 
709.194 61476824 61697596 61977132 62335408 62800676 63402884 64167948 
712.569 65105088 66194332 67379368 68563888 69633344 70469136 70974224 
715.943 71101944 70859880 70312616 69560968 68736936 67982576 67428248 
719.318 67199128 67396480 68083608 69275456 70915152 72868736 74911928 
722.693 76770680 78166688 78854120 78697568 77693784 75981408 73794616 
726.068 71418184 69126664 67112112 65480432 64248620 63372560 62778084 
729.443 62390528 62155300 62033544 61999528 62032628 62109040 62204776 
732.817 62301220 62387356 62464096 62539584 62624848 62726288 62844256 
736.192 62973088 63105872 63237392 63366308 63493424 63620032 63745344 
739.567 63866580 63981852 64093440 64208284 64338252 64494520 64681484 
742.942 64894384 65117748 65331712 65516308 65659352 65758912 65822452 
746.317 65862200 65889312 65911716 65932080 65950280 65966368 65981872 
749.692 66000388 66025956 66060796 66104816 66156596 66215328 66281980 
753.066 66360064 66454076 66567808 66702120 66854596 67021088 67197776 
756.441 67382616 67576528 67781088 67997384 68224512 68458248 68694200 
759.816 68927952 69157400 69383896 69610392 69841256 70080960 70334784 
763.191 70609568 70915352 71268272 71689712 72210776 72872304 73719264 
766.566 74800800 76153680 77784656 79649152 81637672 83582560 85261680 
769.940 86461448 87025656 86902880 86178232 85059720 83838376 82783560 
773.315 82085752 81793728 81807048 81902264 81802208 81280104 80203256 
776.690 78582568 76548904 74316488 72110976 70105336 68407472 67041768 
780.065 65971732 65125064 64426488 63816524 63256516 62731268 62240796 
783.440 61794076 61402548 61079556 60837180 60686264 60634868 60687868 
786.815 60845944 61108004 61472552 61940600 62517472 63212940 64039180 
790.189 65011248 66144520 67454248 68958744 70678424 72635672 74854616 
793.564 77353856 80142080 83210144 86528696 90044928 93681576 97350624 
796.939 100955200 104404656 107637096 110631608 113426880 116117688 
799.832 118854504 121809944 125126008 128880528 133027808 137382192 
802.724 141590416 145186592 147678928 148605696 147685120 144876768 
805.617 140411328 134731552 128397344 121979808 115894792 110368792 
808.510 105414584 100880168 96524752 92114016 87512040 82701416 77787464 
811.885 72938888 68350456 64180164 60517312 57390196 54771324 52603388 
815.259 50816780 49347636 48145088 47166164 46377872 45752852 45266720 
818.634 44900716 44639444 44470704 44385224 44374580 44432236 44554624 
822.009 44742716 45002616 45343476 45776304 46309780 46948376 47691776 
825.384 48535552 49472680 50491916 51577916 52710028 53859276 54993748 
828.759 56084292 57112344 58081056 59021532 59997604 61094580 62416464 
832.133 64071940 66147296 68694200 71699320 75070984 78613064 82027080 
835.508 84961672 87019624 87853600 87248904 85158064 81734888 77287104 
838.883 72238872 67017452 61987032 57428768 53495180 50235292 47620336 
842.258 45575736 44008596 42824708 41946360 41306728 40850624 40536844 
845.633 40332644 40215404 40171824 40193084 40271640 40398640 40561436 
849.008 40746492 40943640 41147624 41360516 41589884 41845832 42136460 
852.382 42466744 42838640 43252984 43711432 44218272 44778820 45398208 
855.757 46079748 46825388 47636568 48518176 49479400 50536584 51711740 
859.132 53030260 54522792 56223620 58168900 60398532 62945664 65824724 
862.507 69013240 72435736 75954336 79356256 82391504 84795776 86323960 
865.882 86813880 86202472 84546000 82002904 78817848 75281832 71666960 
869.256 68220328 65127216 62495892 60378272 58773476 57647416 56943676 
872.631 56596312 56538528 56697676 57003520 57389136 57789212 58152196 
876.006 58443868 58651264 58785656 58878192 58974544 59119096 59347976 
879.381 59676260 60091920 60554296 60998096 61350832 61540272 61513396 
882.756 61250748 60768764 60119052 59372592 58612316 57910728 57319600 
886.131 56870132 56571856 56420872 56407324 56522564 56760164 57115180 
889.505 57581204 58147192 58796508 59510320 60269084 61056864 61863376 
892.880 62683760 63516356 64361000 65216996 66081664 66950804 67816376 
896.255 68666328 69483384 70243080 70916952 71476776 71897824 72166560 
899.630 72282504 72258904 72118288 71889024 71602064 71285528 70966456 
903.005 70671136 70422568 70243664 70156000 70176992 70322472 70605864 
906.379 71038056 71630160 72392488 73333512 74459744 75774248 77276616 
909.754 78964352 80834848 82886408 85118608 87531576 90122720 92885376 
913.129 95809904 98885440 102104856 105471024 108999256 112716976 116657760 
916.504 120855248 125332056 130089256 135093824 140267456 145483936 
919.397 150545264 155196336 159147664 162082640 163737040 163952880 
922.289 162728544 160250448 156887200 153173216 149689328 147024400 
925.182 145696000 146037072 148180784 152004560 157158944 163058320 
928.075 168959712 174119744 177826576 179564416 179089280 176411568 
930.967 171762096 165489344 158002560 149684992 140867696 131854864 
933.860 122905096 114250520 106111376 98664728 92050936 86369552 81667384 
937.235 77955864 75219104 73423672 72522856 72451320 73121488 74400048 
940.610 76102792 78013000 79869560 81414968 82436616 82776896 82372408 
943.985 81253776 79538112 77397328 75025336 72618992 70333336 68277864 
947.359 66515088 65061784 63904040 63009636 62342220 61865900 61548864 
950.734 61365832 61293292 61309816 61397316 61540004 61727004 61952984 
954.109 62215940 62515140 62848852 63212596 63599744 64003624 64419032 
957.484 64844220 65280028 65728268 66190824 66666500 67153296 67649240 
960.859 68153456 68667808 69195520 69740048 70302448 70881488 71473416 
964.233 72074472 72682800 73299544 73928200 74572640 75235256 75915576 
967.608 76611352 77319296 78038024 78768112 79511968 80271968 81048792 
970.983 81840176 82642696 83453328 84271232 85098608 85939888 86799600 
974.358 87679624 88579592 89497112 90430192 91379360 92348872 93344144 
977.733 94371304 95433552 96531416 97663176 98828104 100027496 101266512 
981.108 102551792 103889064 105280976 106726152 108219600 109754976 
984.000 111325608 112923976 114538120 116149848 117730912 119243344 
986.893 120648240 121907240 122992568 123891768 124607080 125154600 
989.786 125559720 125857040 126085352 126286464 126505704 126783712 
992.678 127153040 127636168 128240584 128962336 129789920 130711064 
995.571 131716504 132802056 133967312 135212272 136533968 137926320 
998.464 139380656 140889184 142446992 144051072 145698080 147380032 
1001.356 149081664 150781424 152455712 154082800 155649312 157151856 
1004.249 158595632 159992144 161356144 162706624 164064928 165458112 
1007.142 166917664 168473600 170150960 171963152 173909088 175974592 
1010.035 178137504 180375184 182666096 184991264 187331648 189661952 
1012.927 191950272 194162432 196265616 198238848 200075760 201782960 
1015.820 203371376 204847328 206204896 207425616 208483504 209353648 
1018.713 210023104 210495680 210794288 210956032 211033168 211090528 
1021.605 211197104 211432080 211872976 212584224 213614576 214985424 
1024.498 216691616 218704192 220980896 223475312 226136720 228913728 
1027.391 231747392 234559728 237259472 239741184 241891040 243608512 
1030.284 244805360 245409504 245367648 244637776 243191632 241022640 
1033.177 238151424 234633120 230550368 226011760 221133984 216025392 
1036.070 210790768 205522768 200303920 195218832 190346352 185758064 
1038.963 181520720 177685120 174288432 171354848 168890432 166879216 
1041.856 165271584 163979376 162861296 161722784 160350384 158517600 
1044.750 156032208 152782208 148743792 143995680 138691952 133048864 
1047.643 127298400 121649440 116287632 111343160 106891664 102965328 
1050.536 99555520 96627016 94127568 92001584 90194776 88658304 87353912 
1053.911 86249152 85314904 84524064 83845928 83246344 82692272 82150080 
1057.286 81591128 80994888 80347392 79643656 78886464 78087280 77266488 
1060.661 76451776 75679416 74988240 74416328 73999152 73763440 73726960 
1064.037 73897872 74274968 74846896 75590136 76470104 77436416 78424256 
1067.412 79364688 80185560 80824592 81241224 81416608 81357064 81087008 
1070.787 80645392 80074504 79413496 78697176 77950744 77190360 76425736 
1074.162 75662096 74903032 74154560 73426256 72732736 72093248 71527208 
1077.538 71052184 70680448 70416608 70257728 70194360 70213248 70297192 
1080.913 70426232 70578936 70729416 70851296 70921664 70924472 70857264 
1084.288 70733832 70586024 70458024 70401368 70471592 70717056 71177312 
1087.663 71880976 72840248 74051328 75490256 77116352 78868824 80673152 
1091.039 82455248 84142952 85679576 87030752 88180048 89126704 89877448 
1094.414 90441296 90825480 91036064 91083016 90985040 90774352 90501160 
1097.789 90226624 90015864 89927904 89995152 90212760 90526096 90838752 
1101.164 91013840 90895208 90347456 89267648 87615968 85421184 82778424 
1104.540 79830576 76735360 73658768 70742760 68091016 65775724 63830420 
1107.915 62259608 61047136 60164948 59578572 59248996 59138568 59208704 
1111.290 59418560 59728760 60096984 60478272 60830660 61113496 61293060 
1114.665 61347936 61268108 61057128 60728256 60303308 59807240 59264376 
1118.041 58699244 58132532 57580976 57058304 56573292 56131004 55733016 
1121.416 55378336 55065656 54793352 54559680 54361736 54191920 54037780 
1124.791 53880320 53695804 53462352 53162772 52791288 52355156 51875172 
1128.166 51381548 50906736 50482464 50132084 49867792 49690772 49591852 
1131.542 49554268 49555268 49570940 49579260 49561952 49509516 49421404 
1134.917 49307064 49182440 49068092 48984632 48947768 48967084 49044164 
1138.292 49172644 49339096 49524184 49706224 49860096 49962316 49993172 
1141.667 49937444 49787224 49541600 49205112 48786540 48296744 47748508 
1145.042 47154900 46529832 45888796 45246604 44617484 44013692 43443620 
1148.418 42911492 42418448 41963148 41543544 41158404 40807564 40491632 
1151.793 40210968 39965140 39753000 39572796 39423432 39304696 39217284 
1155.168 39162640 39141392 39153248 39196872 39270236 39371660 39500032 
1158.543 39655340 39837720 40046992 40282292 40542232 40825256 41129992 
1161.919 41455392 41799788 42159500 42528644 42897812 43255324 43588804 
1165.294 43885888 44136144 44331648 44466484 44537408 44543720 44488032 
1168.669 44376196 44217724 44025280 43812244 43591884 43375988 43173704 
1172.044 42992952 42841056 42725292 42654444 42637884 42684272 42801632 
1175.420 42996172 43272676 43635732 44090736 44643996 45303496 46077428 
1178.795 46973552 47999520 49162476 50470592 51933832 53563172 55370436 
1182.170 57367356 59562156 61960320 64561868 67360600 70339072 73463384 
1185.545 76682032 79914488 83055064 85984120 88564928 90667952 92186856 
1188.921 93040552 93190912 92642472 91442832 89672832 87436984 84857568 
1192.296 82050536 79124896 76177816 73284360 70504952 67885136 65453200 
1195.671 63226128 61208552 59395536 57774340 56327156 55034968 53877320 
1199.046 52835220 51892312 51032976 50243552 49512076 48827580 48181556 
1202.422 47569092 46989208 46445380 45944220 45494228 45102812 44775000 
1205.797 44512004 44311684 44169372 44079440 44036608 44036096 44073060 
1209.172 44142304 44237568 44352052 44480212 44619060 44769268 44935440 
1212.547 45125276 45348000 45612168 45925552 46293860 46721436 47210932 
1215.923 47763152 48376700 49046948 49767048 50527800 51320012 52136728 
1219.298 52973020 53827320 54700364 55594332 56512488 57459364 58441780 
1222.673 59468824 60551132 61700192 62924868 64229100 65610328 67058980 
1226.048 68559232 70088904 71622464 73130776 74581336 75943128 77187672 
1229.424 78292976 79248432 80056016 80730968 81298320 81794288 82263312 
1232.799 82753960 83324816 84040288 84964616 86166304 87706624 89635000 
1236.174 91989096 94789776 98042856 101739040 105856824 110360328 115194328 
1239.549 120289464 125556440 130888792 136181376 141327504 146229536 
1242.442 150807680 154990016 158712560 161919664 164557440 166577392 
1245.335 167939360 168607424 168552432 167753520 166199216 163895424 
1248.229 160869168 157172128 152872144 148043600 142760048 137080432 
1251.122 131052744 124721696 118134936 111356736 104472544 97580464 90794280 
1254.497 84231400 77993656 72172976 66836284 62019708 57733956 53963264 
1257.872 50672840 47813012 45327992 43162180 41259140 39569348 38050388 
1261.247 36666492 35391872 34209416 33107758 32080874 31124820 30236014 
1264.623 29411136 28646852 27940412 27289942 26693928 26150354 25655894 
1267.998 25205744 24794614 24418010 24073812 23763552 23490448 23260300 
1271.373 23078386 22949188 22876814 22865464 22919952 23046416 23250510 
1274.748 23536162 23902866 24344236 24846782 25388798 25943378 26476480 
1278.124 26949738 27326780 27573992 27668550 27603332 27388428 27050014 
1281.499 26622902 26146940 25656456 25174810 24716004 24283718 23877414 
1284.874 23496218 23141636 22818142 22531672 22286928 22086316 21929812 
1288.249 21816598 21746016 21718532 21735426 21797192 21902420 22047900 
1291.625 22228824 22440492 22679526 22942410 23224924 23520668 23819132 
1295.000 24108556 24378160 24621454 24839344 25040566 25240124 25455616 
1298.375 25705212 26005428 26369610 26808456 27328296 27928750 28598578 
1301.750 29311906 30030206 30700584 31265378 31672988 31881358 31868060 
1305.125 31631290 31188970 30574040 29828614 29002310 28143674 27297458 
1308.501 26503880 25791138 25176392 24664764 24251378 23925202 23672954 
1311.876 23484396 23352140 23271766 23239674 23251560 23301550 23383854 
1315.251 23493910 23629498 23790640 23977370 24187126 24414470 24649790 
1318.626 24883832 25109894 25326272 25536540 25747188 25963990 26189312 
1322.002 26420666 26651684 26874932 27084290 27276818 27453262 27617490 
1325.377 27776872 27940552 28121296 28334124 28593800 28912880 29296842 
1328.752 29741424 30231894 30746674 31263310 31762346 32233872 32676794 
1332.127 33097066 33502712 33900644 34294100 34682888 35065556 35441264 
1335.503 35811328 36178104 36544976 36914212 37287548 37667028 38055848 
1338.878 38459348 38884136 39335528 39816368 40325772 40860128 41414824 
1342.253 41986760 42574364 43176928 43793812 44422108 45057896 45697340 
1345.628 46338904 46983744 47633348 48285116 48925292 49526672 50044180 
1349.004 50420464 50598304 50525712 50170464 49526376 48616112 47487880 
1352.379 46207500 44856260 43515292 42258348 41150172 40234924 39535416 
1355.754 39052348 38766960 38646844 38651988 38746996 38901604 39093932 
1359.129 39310900 39544416 39790876 40052084 40336644 40661960 41051100 
1362.505 41530380 42118280 42817684 43611848 44465160 45329576 46146068 
1365.880 46854800 47397444 47717736 47773472 47540812 47021700 46244392 
1369.255 45261096 44139040 42942616 41730624 40547940 39422488 38374428 
1372.630 37420800 36580008 35876892 35336448 34975980 34798536 34790352 
1376.006 34927072 35181344 35534892 35982780 36535384 37215020 38052884 
1379.381 39088528 40364496 41928076 43823680 46076468 48672484 51532844 
1382.756 54514448 57397644 59916424 61811304 62834568 62805736 61645920 
1386.131 59408796 56299504 52638768 48824804 45212116 42043848 39440268 
1389.507 37402776 35863972 34724880 33889324 33273746 32810024 32449652 
1392.882 32156438 31905606 31684856 31491150 31328548 31203424 31120264 
1396.257 31078088 31071858 31093820 31136924 31197478 31275916 31377554 
1399.632 31509924 31681042 31896512 32157864 32462616 32805168 33178244 
1403.008 33573656 33985628 34410252 34846320 35293424 35750920 36216600 
1406.383 36687620 37162284 37642568 38134016 38645288 39185664 39762044 
1409.758 40377732 41032600 41725004 42453048 43213488 43999388 44794360 
1413.133 45571760 46296472 46930400 47447296 47840236 48128248 48350888 
1416.509 48564008 48829696 49200992 49718152 50396276 51219864 52144572 
1419.884 53107840 54047424 54909440 55658700 56281212 56784444 57201840 
1423.259 57590776 58029024 58590400 59325112 60246436 61329656 62527268 
1426.634 63785636 65064436 66337252 67591512 68825056 70041560 71251288 
1430.010 72472032 73734968 75081616 76552344 78180768 79981368 81950200 
1433.385 84070688 86328400 88724592 91275872 94011328 96952632 100093952 
1436.760 103384464 106744672 110096792 113384248 116572728 119628488 
1439.653 122504912 125117080 127342416 129047472 130090552 130352424 
1442.546 129758280 128276736 125932216 122801464 119021592 114771968 
1445.439 110247784 105660984 101201792 97031592 93284256 90042888 87331952 
1448.814 85109856 83287760 81753128 80404088 79183616 78088984 77169352 
1452.190 76494768 76130192 76101288 76385248 76912216 77584000 78299440 
1455.565 78960896 79506400 79930416 80298912 80723224 81313152 82155328 
1458.940 83292416 84738744 86491168 88529544 90813024 93270744 95810648 
1462.315 98304216 100586016 102483320 103826312 104504584 104511832 
1465.208 103962888 103057560 102003480 100981752 100109888 99445984 99013896 
1468.584 98810304 98812840 98974608 99221368 99449440 99522648 99309112 
1471.959 98717712 97742312 96472696 95061304 93666160 92397120 91318720 
1475.334 90464144 89853568 89507696 89442712 89657072 90123376 90786680 
1478.709 91580072 92430240 93279208 94094688 94871472 95631968 96415768 
1482.085 97273272 98253768 99406112 100785208 102450424 104465472 106885392 
1485.460 109735872 112986896 116525976 120166104 123627944 126564056 
1488.353 128617304 129435256 128755536 126481640 122720672 117780488 
1491.246 112074144 106034304 99994832 94153040 88608608 83379696 78457872 
1494.621 73859776 69636688 65882296 62710708 60213816 58429916 57333024 
1497.997 56857856 56920824 57443252 58362676 59622964 61169644 62948004 
1501.372 64893352 66935880 69006832 71020032 72873552 74441176 75538400 
1504.747 75930176 75350912 73576800 70564624 66550268 62005684 57418256 
1508.122 53110160 49192532 45636056 42368692 39335640 36514916 33921244 
1511.498 31585212 29527694 27754054 26247596 24979248 23916308 23029294 
1514.873 22293066 21681784 21170012 20735364 20363028 20051798 19811742 
1518.248 19655118 19586514 19596498 19659936 19746754 19831580 19910176 
1521.623 20003116 20146328 20368998 20678024 21059676 21489424 21946748 
1524.999 22421582 22919952 23458760 24058192 24730000 25472306 26273538 
1528.374 27119664 28001898 28919714 29881178 30898136 31982030 33141446 
1531.749 34380128 35695916 37080396 38517748 39985448 41457364 42910724 
1535.124 44328048 45698040 47008224 48244388 49392852 50433300 51345668 
1538.500 52109532 52705016 53111844 53311616 53299632 53089716 52715300 
1541.875 52219340 51635344 50977080 50234808 49386984 48416560 47331040 
1545.250 46168104 44986556 43841900 42760572 41735660 40732228 39708236 
1548.625 38635836 37521100 36404068 35346368 34399928 33585648 32891150 
1552.000 32282374 31724848 31199046 30709048 30277080 29927926 29671174 
1555.376 29492230 29353276 29203238 28979430 28613054 28041800 27230212 
1558.751 26207154 25077702 23980870 23020804 22232626 21598966 21077240 
1562.126 20620968 20188154 19747172 19281730 18794780 18306650 17847478 
1565.501 17445392 17112566 16842370 16612964 16398644 16177727 15940763 
1568.877 15694208 15455657 15246164 15080028 14961590 14887381 14851687 
1572.252 14848876 14874145 14920952 14978018 15029432 15058520 15053237 
1575.627 15016295 14967043 14935424 14945231 15004531 15105037 15230618 
1579.002 15365400 15499366 15630763 15763024 15901718 16049808 16206650 
1582.378 16367918 16528731 16685884 16837926 16984200 17121216 17242004 
1585.753 17336960 17397070 17419110 17408142 17378826 17351170 17346168 
1589.128 17382654 17472538 17622786 17837018 18116124 18457740 18851874 
1592.503 19279824 19710348 20104058 20422342 20632226 20716250 20675522 
1595.879 20529008 20307228 20043886 19772624 19521390 19312040 19164668 
1599.254 19095692 19118476 19241760 19468228 19794854 20215714 20724140 
1602.629 21313472 21975502 22697472 23457676 24224014 24958016 25615156 
1606.004 26151586 26531810 26729130 26731562 26542128 26178226 25666614 
1609.380 25038704 24330568 23578384 22817794 22084574 21406852 20802064 
1612.755 20275494 19820100 19419958 19054770 18705800 18358252 18005802 
1616.130 17654050 17319960 17027650 16798938 16647667 16575990 16576026 
1619.505 16632620 16727515 16843540 16965974 17088062 17212770 17351340 
1622.881 17518314 17724970 17973924 18259028 18570600 18900184 19245084 
1626.256 19606342 19985700 20381188 20784406 21182570 21562996 21918346 
1629.631 22249574 22564164 22871752 23178332 23483802 23780176 24055004 
1633.006 24294510 24484646 24615388 24680546 24681352 24627204 24534672 
1636.382 24424878 24315254 24215432 24125614 24038196 23939976 23816192 
1639.757 23655842 23454844 23219646 22964384 22707700 22464254 22239042 
1643.132 22027228 21814334 21581660 21310550 20988902 20616242 20206654 
1646.507 19786564 19389608 19046980 18779178 18593598 18485918 18443670 
1649.883 18448164 18472434 18483602 18438000 18290096 18012776 17626340 
1653.258 17208254 16851188 16611414 16486913 16442003 16434776 16434088 
1656.633 16422629 16394138 16351094 16298801 16242111 16182782 16118232 
1660.008 16043069 15951728 15839033 15702283 15542051 15362346 15171975 
1663.384 14981894 14804374 14649409 14521358 14418417 14332451 14250611 
1666.759 14156805 14035847 13877187 13677550 13443144 13187960 12930059 
1670.134 12685617 12465658 12274950 12112639 11973582 11848429 11725116 
1673.509 11588974 11426885 11233471 11016387 10797169 10602066 10451681 
1676.885 10351974 10294358 10262094 10238311 10212665 10183697 10158868 
1680.260 10149303 10163854 10202421 10254934 10301755 10320485 10293612 
1683.635 10219756 10118439 10025284 9972324 9972188 10019723 10100024 
1687.010 10198859 10305148 10411903 10515766 10614697 10708148 10797848 
1690.385 10888281 10986174 11098299 11229017 11377732 11537456 11694923 
1693.761 11834265 11940749 12007065 12038914 12056936 12087598 12147665 
1697.136 12237630 12340907 12432515 12482775 12466680 12373771 12219192 
1700.511 12042901 11888746 11784044 11728588 11704045 11685834 11652275 
1703.886 11587681 11483868 11342020 11171761 10988758 10807971 10639993 
1707.262 10488644 10352075 10225081 10101991 9978562 9853372 9727981 9605675 
1711.119 9490752 9386525 9293628 9211277 9136826 9068004 9003185 8941690 
1714.977 8882503 8822816 8757357 8679401 8584526 8474841 8361770 8262541 
1718.834 8192608 8160195 8163909 8194938 8241131 8290977 8337383 8377679 
1722.691 8414366 8452170 8496229 8549415 8611395 8679874 8752015 8825387 
1726.549 8898060 8967666 9031026 9083364 9120753 9141089 9146233 9141394 
1730.406 9132427 9122344 9107557 9076091 9009003 8887609 8702219 8464502 
1734.264 8208208 7977679 7805428 7699379 7647949 7629536 7623332 7612305 
1738.121 7587151 7545781 7493223 7438210 7389440 7352975 7330801 7321939 
1741.979 7324163 7335283 7353413 7376566 7403359 7432447 7463558 7496425 
1745.836 7531216 7567595 7603538 7635573 7659212 7670004 7664034 7639383 
1749.693 7595445 7533947 7459142 7376936 7295824 7224194 7168407 7131826 
1753.551 7112796 7105958 7102321 7093126 7070831 7033214 6984220 6933211 
1757.408 6890894 6863727 6852249 6850229 6848512 6836597 6807516 6759523 
1761.266 6696561 6626880 6559463 6502282 6459065 6430379 6414776 6409664 
1765.123 6411480 6415684 6417600 6412489 6398265 6376308 6351898 6332632 
1768.980 6323387 6325001 6332263 6335826 6325169 6293534 6241866 6180223 
1772.838 6123125 6082902 6065061 6066707 6080752 6099300 6117681 6135257 
1776.695 6153941 6175888 6201633 6228152 6250975 6265362 6269498 6264926 
1780.553 6256757 6250740 6250404 6255480 6262405 6266674 6265060 6256589 
1784.410 6243883 6231480 6223547 6222875 6229934 6244555 6266203 6294744 
1788.268 6330111 6370962 6413195 6450388 6474602 6477999 6457081 6413565 
1792.125 6355596 6293937 6239076 6197330 6169737 6153774 6146279 6144364 
1795.982 6146246 6150682 6156563 6161470 6162948 6158916 6148699 6133979 
1799.840 6117849 6104240 6095974 6093991 6097553 6105349 6115900 6128905 
1803.697 6144800 6164124 6186743 6211951 6238303 6264253 6289264 6313099 
1807.555 6335927 6357075 6375030 6387572 6392549 6389152 6378830 6364136 
1811.412 6349073 6336768 6328766 6324664 6323555 6324194 6327051 6332902 
1815.270 6344568 6363935 6391573 6427184 6468818 6514794 6563097 6612985 
1819.127 6663587 6714362 6763999 6811353 6855952 6897929 6937958 6976779 
1822.984 7014121 7048705 7078577 7102388 7121351 7139034 7160491 7189932 
1826.842 7228674 7273451 7317322 7351526 7369792 7370432 7358771 7344921 
1830.699 7340675 7354087 7386845 7435311 7492650 7552861 7612035 7669531 
1834.557 7727204 7787448 7851648 7919433 7989829 8061889 8136393 8216143 
1838.414 8304587 8405448 8520320 8648506 8787313 8932760 9081267 9229418 
1842.271 9374538 9515102 9650392 9781454 9910115 10039357 10171078 10304877 
1846.129 10437324 10562173 10671607 10757598 10815071 10841296 10836981 
1849.504 10805186 10749446 10672456 10575855 10460608 10328899 10184816 
1852.879 10034575 9884759 9740653 9604116 9473718 9345897 9217200 9085936 
1856.737 8953697 8823730 8699277 8582397 8472577 8367749 8266121 8167217 
1860.594 8072287 7983821 7903642 7831743 7766534 7705281 7646735 7591433 
1864.452 7542207 7502190 7472963 7452974 7437267 7419874 7395911 7364703 
1868.309 7330161 7299463 7279347 7273181 7280055 7295218 7313144 7330161 
1872.167 7344786 7357255 7367803 7375251 7376633 7368343 7347651 7314525 
1876.024 7272137 7225306 7178984 7135565 7094642 7054195 7011360 6965870 
1879.881 6919340 6875105 6836361 6803915 6775812 6748249 6717020 6680545 
1883.739 6639866 6598553 6560809 6529796 6506049 6487652 6472147 6457619 
1887.596 6443393 6430244 6419047 6410471 6404520 6400922 6400417 6405192 
1891.454 6417600 6439257 6469390 6503998 6536893 6562087 6576182 6580151 
1895.311 6578739 6578806 6585904 6601783 6624121 6648211 6669273 6684986 
1899.168 6696023 6705074 6715270 6727889 6742494 6756898 6769922 6781668 
1903.026 6794053 6809401 6828754 6850296 6870392 6884665 6889917 6886281 
1906.883 6876822 6865882 6857163 6851744 6847840 6842622 6833837 6822258 
1910.741 6810680 6803645 6804352 6813137 6828182 6846055 6863391 6878976 
1914.598 6893216 6906918 6919879 6929743 6933178 6927622 6913079 6893553 
1918.456 6875678 6865343 6864805 6870763 6876990 6875644 6861842 6836025 
1922.313 6803679 6772749 6750403 6739836 6739432 6744446 6750167 6754610 
1926.170 6758850 6765783 6777595 6794255 6812665 6828586 6839020 6843531 
1930.028 6844305 6845248 6849118 6855581 6862011 6865747 6865141 6862617 
1933.885 6863458 6872109 6890994 6917758 6945938 6968058 6979876 6981560 
1937.743 6978429 6977991 6985028 7000046 7018599 7032911 7036447 7028163 
1941.600 7011797 6995904 6989675 6997789 7020182 7052511 7088748 7124449 
1945.458 7158470 7191549 7224699 7258659 7291781 7322781 7351897 7381857 
1949.315 7417246 7462176 7517394 7579564 7640732 7692532 7727811 7744845 
1953.172 7746497 7737120 7722583 7704741 7683156 7656076 7623298 7587657 
1957.030 7555356 7534149 7529497 7542376 7569786 7605258 7642991 7679649 
1960.887 7715130 7749803 7783940 7815279 7838524 7850433 7849623 7839266 
1964.745 7824927 7814098 7810523 7815347 7825164 7836230 7846519 7857214 
1968.602 7871014 7890584 7914845 7938904 7956384 7961919 7955406 7942920 
1972.459 7934822 7941536 7969512 8019327 8086025 8163943 8248999 8340591 
1976.317 8440819 8549753 8662331 8766621 8847603 8891093 8889977 8845236 
1980.174 8765168 8662399 8549381 8435582 8328635 8233533 8154827 8097334 
1984.032 8064792 8056320 8066548 8086228 8103916 8110465 8103579 8085586 
1987.889 8064151 8047376 8039038 8038532 8042210 8045418 8046430 8048320 
1991.747 8055611 8072826 8100101 8132376 8161377 8179744 8183931 8176164 
1995.604 8163605 8153747 8152295 8159755 8172282 8183863 8190717 8191460 
1999.461 8188320 8183896 8179744 8173160 8159418 8133759 8094397 8044203 
2003.319 7991280 7945316 7915654 7908906 7926216 7965496 8022499 8091831 
2007.176 8166981 8240794 8306039 8355758 8386058 8398117 8398388 8396495 
2011.034 8401597 8419028 8448386 8483625 8515995 8540290 8555362 8565906 
2014.891 8578815 8600343 8632080 8670815 8709994 8743767 8770678 8793298 
2018.749 8816865 8845338 8880000 8917066 8951938 8980723 9003150 9023820 
2022.606 9048855 9081943 9123460 9168602 9209483 9240384 9259846 9270407 
2026.463 9278531 9290141 9307371 9328767 9349790 9366278 9377654 9387067 
2030.321 9399323 9419943 9451875 9494510 9545652 9603778 9667840 9739095 
2034.178 9818056 9901538 9983207 10055328 10109893 10144114 10161038 
2037.553 10167958 10173894 10185901 10205678 10229492 10251950 10266470 
2040.929 10270032 10263484 10249608 10231968 10212529 10192075 10169722 
2044.304 10147030 10126986 10114945 10117625 10139569 10182441 10243773 
2047.679 10317770 10396903 10472657 10535795 10577756 10591031 10571340 
2051.054 10519466 10442313 10352957 10267386 10201675 10167551 10168060 
2054.430 10197740 10244961 10296293 10341013 10374438 10397582 10414008 
2057.805 10427481 10439394 10448117 10451918 10449475 10442075 10433251 
2061.180 10426294 10422831 10421101 10416859 10405150 10383634 10353195 
2064.555 10317770 10283196 10254087 10232002 10215820 10202997 10191566 
2067.931 10181356 10174131 10171146 10172367 10174979 10174063 10164905 
2071.306 10145233 10115759 10081270 10047800 10019961 10000193 9988327 
2074.681 9982393 9980969 9984190 9993107 10009009 10031456 10056582 10079065 
2078.539 10093444 10096394 10088697 10074792 10060719 10052615 10053530 
2081.914 10063297 10079133 10097548 10115624 10131497 10144894 10155238 
2085.289 10161038 10160971 10153000 10136449 10112708 10084356 10054718 
2088.664 10025895 9998668 9971646 9943236 9912284 9879302 9847474 9820868 
2092.522 9803381 9798534 9807617 9830358 9865066 9909030 9958424 10008466 
2096.379 10053836 10089714 10112708 10122814 10123052 10119050 10117523 
2099.754 10122746 10136211 10156324 10179253 10202150 10224301 10248286 
2103.130 10278039 10318075 10369517 10430468 10496418 10561766 10621590 
2106.505 10674867 10722174 10766429 10810281 10855394 10902279 10950767 
2109.880 11000856 11053025 11107816 11165165 11222931 11278016 11326035 
2113.255 11363992 11391134 11409740 11423211 11435933 11450936 11468422 
2116.631 11487236 11505302 11521191 11535584 11550794 11568896 11592003 
2120.006 11620249 11651764 11683962 11715278 11744792 11773388 11803008 
2123.381 11835047 11870017 11908260 11948447 11989898 12032511 12076252 
2126.756 12121463 12168314 12216364 12265577 12316228 12368827 12424195 
2130.132 12482946 12544297 12606679 12668661 12729458 12790775 12856402 
2133.507 12930503 13015816 13111288 13211460 13307077 13390004 13453909 
2136.882 13498136 13527224 13547837 13566433 13586261 13607150 13626262 
2140.257 13640553 13648964 13652794 13654846 13657820 13662060 13665034 
2143.633 13663257 13653854 13635972 13611731 13584073 13555357 13524866 
2147.008 13489523 13444682 13386415 13314764 13232331 13144414 13054842 
2150.383 12966005 12876914 12784530 12686299 12582052 12473636 12363680 
2153.758 12254125 12144224 12032034 11918409 11809750 11721201 11675215 
2157.134 11695978 11799501 11985844 12234120 12507260 12764228 12969829 
2160.509 13105619 13170541 13177645 13144379 13089023 13025137 12959553 
2163.884 12896062 12834832 12775283 12716834 12657676 12595219 12527449 
2167.259 12453109 12371827 12285585 12197109 12107698 12016944 11923380 
2170.635 11823641 11716810 11605207 11493769 11389944 11301311 11232723 
2174.010 11184476 11154321 11135725 11121890 11107239 11085995 11054418 
2177.385 11009794 10951581 10882268 10808174 10738000 10682711 10650622 
2180.760 10645494 10663559 10695990 10730019 10754507 10763440 10756239 
2184.135 10736574 10711171 10685292 10661216 10639008 10617617 10595649 
2187.511 10573377 10552566 10534675 10520315 10508977 10500016 10492208 
2190.886 10485963 10481991 10481380 10483994 10487456 10488950 10485623 
2194.261 10476730 10463764 10451138 10442483 10440378 10444893 10453004 
2197.636 10460404 10464443 10464341 10461863 10460166 10461490 10466377 
2201.012 10473539 10481346 10488101 10494483 10502324 10512881 10526018 
2204.387 10538206 10543977 10538273 10518380 10485318 10444011 10402333 
2207.762 10365716 10337688 10317736 10302671 10288727 10274476 10260194 
2211.137 10249779 10246522 10252390 10267081 10287912 10310814 10332768 
2214.513 10353161 10371451 10389131 10407560 10426361 10445165 10463628 
2217.888 10480973 10497334 10513424 10528089 10540310 10548152 10549544 
2221.263 10543162 10529582 10510301 10487389 10462949 10437697 10411903 
2224.638 10386417 10362154 10341250 10325777 10317464 10315021 10315971 
2228.014 10315632 10310068 10298023 10280482 10261347 10245368 10236514 
2231.389 10236344 10243773 10255817 10269353 10282517 10294697 10306234 
2234.764 10317363 10328255 10337620 10344644 10349564 10354111 10361068 
2238.139 10373895 10394596 10423409 10458299 10496010 10532537 10565127 
2241.515 10592016 10612523 10626682 10634764 10637582 10636462 10633745 
2244.890 10632285 10635171 10644136 10658771 10676803 10694462 10707265 
2248.265 10713038 10711340 10703800 10693613 10683934 10676667 10673000 
2251.640 10672796 10675512 10680878 10689232 10700031 10712834 10726250 
2255.016 10737695 10745099 10746627 10741057 10728491 10709302 10683900 
2258.391 10652829 10617175 10578197 10538138 10500355 10467328 10441159 
2261.766 10422764 10411191 10405456 10404471 10408239 10417606 10433692 
2265.141 10456297 10483722 10512847 10539155 10558541 10568963 10570084 
2268.517 10563667 10552532 10539291 10525849 10513899 10503817 10496418 
2271.892 10492854 10493804 10499201 10508807 10520723 10533215 10544961 
2275.267 10555451 10564686 10573207 10580609 10585769 10587331 10583426 
2278.642 10573954 10560747 10546930 10536678 10533181 10538409 10551412 
2282.018 10569846 10590455 10609943 10626309 10638057 10644000 10643219 
2285.393 10634730 10618228 10594325 10565365 10534607 10505786 10481924 
2288.768 10463968 10450697 10439835 10428534 10414653 10397853 10379290 
2292.143 10360525 10343286 10328356 10315530 10304639 10295444 10288014 
2295.519 10283298 10281737 10282891 10286080 10288862 10289167 10285503 
2298.894 10277768 10266164 10252390 10237972 10223486 10209274 10195196 
2302.269 10180542 10165108 10149032 10132039 10114302 10095987 10076522 
2305.644 10056074 10035457 10015112 9996226 9979613 9965069 9952219 9940117 
2309.502 9927878 9915335 9902691 9890623 9879641 9869675 9859880 9849237 
2313.359 9837103 9823207 9808294 9793451 9779387 9766136 9752886 9737638 
2317.217 9718968 9695554 9667670 9636400 9604049 9572953 9545381 9522554 
2321.074 9504603 9490108 9476156 9458038 9430542 9388285 9327582 9247526 
2324.931 9150869 9043983 8935094 8833231 8745322 8675074 8622312 8583648 
2328.789 8554349 8529646 8506939 8485653 8467373 8453589 8445616 8443453 
2332.646 8446326 8452879 8462070 8473320 8486294 8500384 8514812 8528329 
2336.504 8540088 8549956 8559045 8568981 8581756 8598519 8619135 8642693 
2340.361 8667571 8692517 8717093 8741670 8766891 8793467 8822140 8853859 
2344.219 8890721 8936616 8996317 9074398 9173813 9293222 9427562 9567533 
2348.076 9702331 9821275 9914725 9976561 10003651 9997040 9959915 9898861 
2351.933 9821817 9735910 9648055 9563367 9484791 9414289 9352803 9300602 
2355.791 9257578 9223834 9199060 9182917 9175370 9175844 9184101 9199432 
2359.648 9221058 9247695 9277888 9310148 9343290 9377281 9412257 9449878 
2363.506 9492546 9542130 9600288 9667467 9741975 9821716 9904149 9986868 
2367.363 10068315 10148319 10227422 10306675 10387028 10468991 10552871 
2370.738 10638736 10726793 10817109 10909482 11003745 11099217 11195458 
2374.114 11292162 11390012 11490536 11596018 11708062 11828169 11956247 
2377.489 12091106 12230610 12372714 12515683 12658666 12801627 12944533 
2380.864 13086701 13227241 13364478 13496222 13620654 13736573 13843320 
2384.239 13940856 14029413 14109363 14181111 14245236 14302350 14353478 
2387.615 14399372 14440305 14476376 14507208 14532287 14551611 14566173 
2390.990 14577411 14587726 14599376 14613768 14631211 14651225 14671993 
2394.365 14692489 14711580 14729164 14746062 14763717 14783394 14806569 
2397.740 14834647 14868179 14907544 14952639 15002472 15056256 15112653 
2401.115 15170740 15230103 15291260 15354897 15422422 15495143 15573543 
2404.491 15657762 15747357 15841782 15940249 16042897 16149595 16260307 
2407.866 16375178 16493693 16615614 16740358 16867998 16998706 17132660 
2411.241 17269586 17408968 17549778 17690284 17828526 17962872 18091184 
2414.616 18211964 18323550 18424448 18513684 18590658 18655852 18710332 
2417.992 18755512 18793120 18824400 18850108 18870838 18887172 18900358 
2421.367 18912090 18924134 18938324 18955734 18976640 19000628 19027526 
2424.742 19057020 19090742 19130664 19179594 19240200 19314742 19404020 
2428.117 19507976 19625512 19755668 19896856 20048154 20208564 20377298 
2431.493 20553672 20737138 20927426 21124580 21328644 21539352 21756746 
2434.868 21980104 22208632 22441886 22679598 22921696 23168266 23419314 
2438.243 23674458 23933218 24195428 24460528 24729264 25002342 25280264 
2441.618 25563316 25850564 26140044 26429856 26718594 27005302 27290648 
2444.994 27576250 27863350 28153078 28445512 28739770 29034192 29327326 
2448.369 29617608 29903824 30185042 30460116 30728252 30988654 31240844 
2451.744 31484916 31721390 31950574 32172494 32386784 32592282 32787800 
2455.119 32972396 33145666 33307698 33459016 33599360 33728472 33845084 
2458.495 33947576 34033788 34102456 34152312 34182312 34192456 34182852 
2461.870 34154068 34108008 34047120 33974880 33895128 33811416 33727076 
2465.245 33644868 33567504 33497810 33439796 33398182 33377748 33383116 
2468.620 33417358 33481814 33576344 33699684 33849884 34025904 34226660 
2471.996 34451000 34697244 34962872 35244152 35536620 35835868 36138348 
2475.371 36440424 36739252 37031788 37314124 37582696 37833432 38063192 
2478.746 38269804 38452688 38610992 38744932 38853444 38935380 38989492 
2482.121 39014864 39011532 38981048 38926356 38850800 38758268 38652932 
2485.497 38537988 38416888 38292344 38165740 38038020 37908524 37775200 
2488.872 37635268 37486316 37326184 37154164 36970740 36776108 36570816 
2492.247 36354204 36124700 35880168 35618364 35337776 35037900 34719388 
2495.622 34383392 34031924 33666632 33288698 32899942 32501784 32095678 
2498.998 31683538 31267050 30847406 30426032 30003898 29582208 29162662 
2502.373 28747382 28338474 27937902 27547196 27166788 26796438 26435982 
2505.748 26085046 25744446 25415848 25101364 24803876 24525242 24266478 
2509.123 24027270 23805972 23600074 23406864 23223632 23048546 22880796 
2512.499 22720548 22569294 22428488 22300146 22185792 22085690 21999866 
2515.874 21927232 21866946 21818306 21781096 21755910 21743160 21743124 
2519.249 21754968 21777056 21807122 21843218 21883604 21927860 21976130 
2522.624 22029006 22087258 22150782 22218710 22290102 22362970 22435676 
2526.000 22506372 22573378 22634808 22688604 22733048 22766392 22787902 
2529.375 22797086 22794152 22779556 22753962 22717684 22671568 22616308 
2532.750 22552890 22483096 22408358 22330040 22249366 22166858 22082622 
2536.125 21997112 21911166 21825900 21743228 21664788 21592280 21526120 
2539.500 21466762 21413430 21365676 21322730 21284136 21249304 21217920 
2542.876 21188556 21160202 21131502 21101308 21068960 21034806 20999092 
2546.251 20963170 20927738 20893526 20860812 20829664 20799388 20769392 
2549.626 20738736 20706868 20673506 20639140 20604638 20571772 20542068 
2553.001 20517092 20497500 20483122 20472216 20463184 20454154 20443526 
2556.377 20430710 20415950 20399420 20381674 20362818 20342436 20319692 
2559.752 20293862 20263864 20229358 20189960 20145704 20096700 20043608 
2563.127 19987366 19929568 19872090 19817014 19766312 19720854 19681016 
2566.502 19646070 19614974 19586514 19560622 19537540 19518652 19505586 
2569.878 19499938 19502848 19514008 19532446 19556672 19584400 19613762 
2573.253 19643226 19672210 19700638 19728968 19757990 19788264 19820100 
2576.628 19853638 19887768 19922248 19956488 19989898 20023276 20057176 
2580.003 20092606 20130712 20172466 20217868 20267302 20320214 20375910 
2583.379 20433906 20493994 20556070 20620342 20687650 20758166 20832514 
2586.754 20910596 20991928 21075708 21160828 21246312 21331326 21415694 
2590.129 21499034 21581520 21663046 21743020 21820848 21895624 21966928 
2593.504 22034932 22100402 22164346 22228160 22292474 22357598 22422732 
2596.880 22486900 22549052 22608244 22664410 22717790 22769290 22820062 
2600.255 22871540 22925084 22981886 23042990 23108856 23179766 23255264 
2603.630 23334694 23417740 23504228 23594408 23689294 23789976 23897228 
2607.005 24011230 24131638 24257194 24386536 24518300 24651578 24785774 
2610.381 24920292 25054746 25188574 25321074 25451718 25580502 25707674 
2613.756 25833896 25959278 26083604 26205782 26323842 26436266 26541708 
2617.131 26639954 26731844 26818746 26902180 26982772 27060664 27134900 
2620.506 27204250 27267680 27324944 27376712 27424566 27470276 27515848 
2623.882 27562834 27611840 27662902 27715344 27767830 27818978 27867624 
2627.257 27912532 27953698 27991296 28026214 28059686 28092770 28126280 
2630.632 28160504 28195468 28230614 28265764 28300702 28335502 28369952 
2634.007 28404016 28437232 28469108 28499322 28527416 28553390 28578018 
2637.383 28601446 28624342 28647066 28669646 28692228 28714990 28738176 
2640.758 28762638 28789086 28818402 28850872 28887240 28927434 28971778 
2644.133 29020376 29073304 29130666 29192216 29257534 29325802 29396422 
2647.508 29468648 29542412 29617820 29695192 29774992 29857432 29942302 
2650.884 30029178 30117524 30206352 30295378 30384384 30473550 30563234 
2654.259 30653860 30746318 30841108 30938696 31039364 31143012 31249390 
2657.634 31358216 31469132 31581756 31696156 31812258 31929750 32048412 
2661.009 32167676 32286980 32405808 32523852 32641214 32758214 32875248 
2664.385 32992810 33110906 33229176 33347518 33465564 33583396 33701116 
2667.760 33819548 33939048 34060484 34184104 34310488 34439664 34571968 
2671.135 34707184 34844952 34984672 35125368 35266292 35407008 35547876 
2674.510 35689512 35833168 35980224 36130964 36285396 36442408 36601276 
2677.885 36760344 36919332 37078196 37237620 37398804 37562428 37729296 
2681.261 37899844 38074404 38253300 38437196 38626564 38821992 39023784 
2684.636 39231976 39446436 39667356 39895000 40129880 40372348 40622556 
2688.011 40879968 41144016 41413148 41686528 41963696 42244472 42529448 
2691.386 42818892 43113252 43412240 43715828 44023888 44336564 44654756 
2694.762 44979244 45310964 45650332 45996968 46350332 46709628 47073876 
2698.137 47442900 47816380 48194256 48575904 48960672 49347264 49734352 
2701.512 50121000 50506808 50891388 51274896 51657064 52037364 52414628 
2704.887 52787172 53153484 53511636 53859916 54197024 54521364 54832108 
2708.263 55128404 55410104 55677684 55931888 56173840 56404456 56624508 
2711.638 56834256 57033860 57223424 57403056 57572840 57733200 57883508 
2715.013 58023152 58150604 58263844 58361120 58440528 58501108 58542360 
2718.388 58565148 58570756 58561468 58540348 58510812 58476848 58442728 
2721.764 58412212 58388868 58375792 58375336 58389700 58420820 58470060 
2725.139 58538756 58627712 58737020 58865824 59013184 59177260 59357128 
2728.514 59551552 59759900 59981664 60216216 60462696 60719760 60985744 
2731.889 61258648 61536228 61816160 62095968 62373160 62645480 62910540 
2735.265 63166760 63413316 63649996 63876980 64095056 64304368 64505316 
2738.640 64697788 64881920 65058320 65227860 65392488 65554568 65716780 
2742.015 65881944 66052312 66230612 66418672 66618136 66830212 67055380 
2745.390 67293632 67544320 67806152 68077528 68355888 68638352 68921312 
2748.766 69199752 69468456 69722000 69955336 70164256 70346432 70501168 
2752.141 70628904 70730672 70807648 70861128 70891392 70899048 70884256 
2755.516 70846896 70786400 70701656 70591176 70451904 70281456 70077416 
2758.891 69837760 69561392 69248944 68901040 68519464 68106632 67665456 
2762.267 67199592 66713592 66212624 65701708 65186740 64672372 64163492 
2765.642 63664532 63179636 62712932 62268672 61850844 61462548 61106788 
2769.017 60785116 60498496 60247044 60030396 59847664 59697360 59577700 
2772.392 59486192 59419928 59375896 59350824 59341480 59344556 59356828 
2775.768 59374416 59393484 59409060 59416776 59411908 59389988 59347632 
2779.143 59282420 59192488 59077372 58937580 58775072 58593092 58395840 
2782.518 58188296 57975628 57762380 57552336 57347844 57150212 56959204 
2785.893 56774096 56592804 56412984 56231880 56046140 55852788 55649168 
2789.269 55433296 55204060 54961292 54705436 54437936 54160352 53875292 
2792.644 53585624 53295284 53008848 52731088 52466860 52220536 51995416 
2796.019 51794008 51618140 51468716 51346528 51252080 51185416 51146388 
2799.394 51134832 51149708 51189816 51254424 51341864 51451220 51581012 
2802.770 51729428 51894288 52073108 52263396 52462220 52667420 52877280 
2806.145 53089604 53302440 53513584 53720216 53919444 54108068 54282696 
2809.520 54440188 54577264 54690628 54777340 54834400 54859700 54852184 
2812.895 54811804 54739488 54637568 54508552 54355504 54181748 53991328 
2816.271 53788428 53578728 53368224 53163372 52971412 52798960 52652196 
2819.646 52536780 52457512 52418368 52421656 52468352 52557572 52686460 
2823.021 52850412 53043324 53258388 53488624 53726888 53966228 54200588 
2826.396 54423964 54630768 54816396 54976788 55109256 55212412 55285940 
2829.771 55330612 55348528 55342056 55314356 55269008 55210004 55141308 
2833.147 55066336 54988524 54910496 54834628 54762600 54696228 54636968 
2836.522 54586656 54546796 54518992 54505396 54508516 54531504 54578692 
2839.897 54655492 54767716 54922376 55126632 55387900 55714520 56115508 
2843.272 56601936 57187060 57885060 58712104 59683140 60808708 62092260 
2846.648 63525216 65084568 66726996 68392536 70006360 71479232 72724048 
2850.023 73661624 74228224 74389072 74137944 73498576 72517336 71259640 
2853.398 69801608 68216488 66577272 64948216 63378544 61908348 60563212 
2856.773 59355760 58287716 57351628 56534076 55817368 55183068 54614388 
2860.149 54096020 53614900 53161276 52726000 52301668 51882080 51462004 
2863.524 51037892 50608356 50174444 49739588 49309996 48894180 48500948 
2866.899 48140056 47820488 47548944 47330116 47166164 47056444 46997476 
2870.274 46983964 47008628 47062168 47134364 47214848 47292760 47359824 
2873.650 47409820 47439756 47449920 47442824 47422832 47393596 47358384 
2877.025 47318772 47275436 47228332 47177760 47124800 47071032 47018744 
2880.400 46970196 46926856 46889792 46859268 46835096 46817340 46806012 
2883.775 46801400 46804240 46814872 46833840 46861740 46898948 46945828 
2887.151 47003164 47071548 47151760 47244624 47350624 47469988 47602996 
2890.526 47749248 47908460 48080460 48265564 48465048 48680968 48917060 
2893.901 49177692 49467440 49790940 50151312 50549648 50984232 51450180 
2897.276 51938804 52437772 52932484 53406628 53842960 54228144 54552168 
2900.652 54811092 55007512 55150332 55252636 55329220 55395768 55465900 
2904.027 55550876 55660656 55803616 55987296 56219248 56506752 56856084 
2907.402 57273176 57762492 58328492 58975608 59708456 60532432 61452660 
2910.777 62472472 63591912 64806020 66103504 67465280 68864584 70269336 
2914.153 71640624 72937280 74120728 75155352 76015032 76686024 77166544 
2917.528 77467624 77607576 77610504 77498400 77288096 76988360 76599144 
2920.903 76112424 75516080 74798160 73950704 72973736 71876640 70678856 
2924.278 69409208 68099656 66785536 65499968 64269864 63116528 62053572 
2927.654 61086684 60215144 59433224 58731636 58098972 57523856 56996720 
2931.029 56510148 56059784 55644724 55265960 54925912 54627124 54371460 
2934.404 54159376 53990052 53860812 53767724 53705256 53665964 53641892 
2937.779 53623860 53603016 53572464 53527264 53466024 53390032 53303604 
2941.155 53211944 53120756 53035052 52958236 52892512 52837688 52792000 
2944.530 52751516 52709840 52659640 52592276 52499984 52377692 52224456 
2947.905 52044196 51845300 51640344 51443388 51267104 51122680 51016724 
2951.280 50951408 50925180 50933076 50968284 51022988 51089288 51160364 
2954.656 51229932 51293052 51345896 51385424 51409708 51417540 51409260 
2958.031 51385612 51349252 51303532 51252228 51199360 51148324 51101248 
2961.406 51059692 51024440 50995860 50974548 50961504 50957668 50964000 
2964.781 50980696 51007188 51041884 51082728 51127488 51174124 51221580 
2968.156 51269380 51318076 51368868 51423168 51482928 51549932 51625900 
2971.532 51711628 51807524 51912960 52026120 52144800 52266160 52387116 
2974.907 52505108 52617524 52721772 52815536 52895432 52958048 52999488 
2978.282 53015920 53004092 52961756 52888508 52785936 52657768 52509596 
2981.657 52347792 52179208 52010356 51845340 51686544 51533480 51383412 
2985.033 51231796 51073000 50901672 50713128 50504424 50274504 50024028 
2988.408 49755124 49470116 49170864 48857728 48529108 48181740 47812164 
2991.783 47417136 46996076 46551224 46088552 45616692 45144504 44680388 
2995.158 44229684 43794216 43372036 42958752 42548928 42137192 41719244 
2998.534 41293172 40858564 40416896 39970408 39522748 39077000 38636272 
3001.909 38203404 37779896 37366732 36963812 36570708 36186892 35812444 
3005.284 35447988 35094904 34754780 34429084 34118728 33823772 33543374 
3008.659 33275750 33018834 32770258 32527924 32290012 32055296 31822990 
3012.035 31592804 31364660 31138846 30915532 30695074 30477958 30264646 
3015.410 30055772 29852498 29655636 29466200 29284400 29110292 28943018 
3018.785 28781368 28624342 28471020 28321356 28175704 28034980 27900272 
3022.160 27772174 27651106 27537098 27429930 27329708 27237338 27153806 
3025.536 27081576 27022686 26979774 26954178 26946318 26954390 26974592 
3028.911 27001036 27025964 27040810 27037954 27010908 26955658 26871018 
3032.286 26758378 26620998 26462886 26288640 26102884 25909612 25712804 
3035.661 25515948 25322164 25133416 24950856 24774302 24602730 24435080 
3039.037 24270718 24109606 23952406 23800056 23653324 23512412 23376826 
3042.412 23245932 23119340 22996942 22879120 22766776 22660222 22559102 
3045.787 22462998 22370540 22281314 22195240 22113406 22036884 21966788 
3049.162 21903188 21844750 21789632 21735462 21680182 21623134 21564598 
3052.538 21505300 21446432 21388508 21331708 21275576 21220112 21165560 
3055.913 21112648 21062526 21016168 20973984 20935910 20901522 20870372 
3059.288 20842630 20818678 20799248 20784858 20775472 20770504 20769496 
3062.663 20771998 20778114 20789134 20805748 20829176 20859352 20894882 
3066.039 20933510 20972768 21010152 21043814 21072926 21096996 21115466 
3069.414 21127676 21132650 21129414 21117136 21095916 21066526 21030356 
3072.789 20989250 20944880 20898812 20852782 20808008 20765844 20727476 
3076.164 20693314 20663256 20635908 20609468 20581986 20551588 20517682 
3079.540 20480482 20441304 20401678 20362888 20325838 20290632 20256678 
3082.915 20223178 20189578 20155736 20121792 20088720 20057558 20029312 
3086.290 20005162 19985318 19970330 19959678 19952602 19948612 19946808 
3089.665 19946602 19947780 19950242 19954198 19959888 19967486 19977166 
3093.041 19989272 20004296 20022408 20044060 20069286 20097326 20127484 
3096.416 20158686 20189994 20221026 20251922 20282612 20313790 20345144 
3099.791 20376258 20406018 20433872 20459364 20483364 20507228 20532622 
3103.166 20561176 20593624 20629620 20668122 20707632 20746868 20785136 
3106.542 20822434 20858934 20895160 20931424 20967690 21003926 21040128 
3109.917 21076614 21113936 21152618 21193286 21235804 21279994 21325234 
3113.292 21371036 21416736 21461992 21506380 21549588 21590958 21630030 
3116.667 21666528 21700454 21732186 21762110 21790538 21817330 21842276 
3120.042 21864856 21884648 21901968 21917892 21933680 21950966 21970518 
3123.418 21992650 22016458 22040476 22063342 22084190 22103050 22120554 
3126.793 22138090 22157058 22178608 22203124 22230532 22260490 22292124 
3130.168 22324424 22356830 22388472 22419244 22449284 22478872 22509024 
3133.543 22540884 22575540 22613620 22655438 22700754 22748794 22798866 
3136.919 22849888 22901054 22951844 23001660 23049978 23096766 23141706 
3140.294 23185322 23228314 23271416 23315604 23361408 23409310 23459180 
3143.669 23510418 23562154 23613998 23665080 23715328 23764322 23812482 
3147.044 23860122 23907976 23957238 24008886 24063900 24123092 24186072 
3150.420 24251834 24318864 24385062 24448716 24508380 24563632 24614756 
3153.795 24663082 24709902 24757008 24805804 24857238 24912116 24970404 
3157.170 25031930 25096098 25162276 25229692 25297682 25365824 25433870 
3160.545 25501822 25569924 25638460 25707674 25777776 25848912 25920726 
3163.921 25993152 26065518 26137262 26207612 26276178 26342536 26406686 
3167.296 26469050 26530084 26590774 26651754 26713450 26776280 26840002 
3170.671 26904542 26969268 27034006 27098080 27161072 27222734 27282816 
3174.046 27341282 27398274 27454178 27509176 27563366 27617102 27670246 
3177.422 27723044 27775742 27828516 27882004 27936772 27992782 28050248 
3180.797 28108818 28167644 28226302 28283974 28340348 28395490 28450040 
3184.172 28504702 28560536 28618644 28679486 28743664 28810790 28880122 
3187.547 28950776 29021476 29091444 29160360 29228188 29295672 29363946 
3190.923 29433722 29505812 29580468 29657514 29736670 29817398 29899138 
3194.298 29981104 30062766 30143274 30222054 30298824 30373794 30447712 
3197.673 30522176 30598856 30678466 30761576 30847618 30935280 31022674 
3201.048 31108554 31191748 31272498 31351414 31429700 31508502 31588600 
3204.424 31670384 31753686 31838000 31922546 32006498 32089006 32169606 
3207.799 32248254 32324992 32400634 32475788 32551066 32626356 32701478 
3211.174 32775722 32848298 32919172 32989234 33059988 33133506 33211328 
3214.549 33294458 33382222 33473008 33564352 33653852 33740004 33822376 
3217.925 33901648 33979216 34056832 34135716 34216404 34298940 34382636 
3221.300 34466388 34548936 34629524 34707436 34782704 34855904 34928040 
3224.675 35000440 35074324 35150664 35229924 35311788 35395504 35480492 
3228.050 35565856 35651276 35736272 35820396 35902984 35983176 36060144 
3231.426 36132876 36201656 36266956 36329272 36389944 36449684 36508860 
3234.801 36567932 36626836 36685528 36744660 36804452 36864968 36925788 
3238.176 36986324 37046112 37104720 37162900 37221916 37283252 37348212 
3241.551 37416860 37488160 37559972 37630284 37697424 37761176 37822444 
3244.927 37883432 37946272 38012268 38082000 38154492 38228440 38302192 
3248.302 38374864 38446028 38515756 38584808 38654052 38724104 38795652 
3251.677 38869244 38945020 39023272 39103356 39184356 39265412 39345464 
3255.052 39423868 39500612 39575772 39650036 39723448 39796248 39868340 
3258.427 39939532 40009972 40080460 40152196 40226092 40302864 40382312 
3261.803 40463956 40546812 40630196 40713960 40798392 40884120 40971860 
3265.178 41061772 41153596 41246968 41341312 41436620 41532896 41630768 
3268.553 41730440 41831820 41934648 42038004 42141684 42245712 42350648 
3271.928 42457648 42567460 42680656 42797320 42916868 43038756 43162652 
3275.304 43288016 43415128 43543936 43674424 43806312 43939552 44074344 
3278.679 44210936 44349956 44492216 44638012 44787488 44940068 45094760 
3282.054 45251276 45409724 45570652 45735104 45904228 46078528 46258216 
3285.429 46442764 46631340 46823432 47018488 47216436 47417692 47622924 
3288.805 47832360 48046372 48265380 48489092 48717404 48950140 49186932 
3292.180 49427156 49670748 49917636 50168268 50423364 50683564 50949284 
3295.555 51220760 51497292 51778700 52064664 52355380 52651260 52952924 
3298.930 53260524 53573480 53890560 54210428 54531996 54855376 55182124 
3302.306 55514468 55855316 56207328 56571740 56948364 57336084 57733236 
3305.681 58137532 58547400 58961376 59378784 59798948 60221656 60647060 
3309.056 61075892 61508852 61947480 62393092 62846592 63308688 63779764 
3312.431 64260064 64749444 65247804 65754832 66269936 66792228 67320600 
3315.807 67853800 68391336 68933232 69479616 70030856 70586808 71146512 
3319.182 71708784 72272096 72835352 73398080 73960336 74522288 75083864 
3322.557 75644280 76202248 76757040 77308128 77855680 78400632 78943136 
3325.932 79482800 80017728 80544736 81060776 81563704 82052808 82528560 
3329.308 82992288 83444336 83883952 84308360 84714064 85097600 85456800 
3332.683 85790784 86099928 86384512 86644328 86878312 87084968 87263416 
3336.058 87413312 87536360 87634376 87708576 87759144 87784408 87781736 
3339.433 87748192 87682096 87583136 87451936 87289616 87096384 86871432 
3342.809 86612896 86318744 85987352 85618472 85212376 84769800 84291216 
3346.184 83776768 83226920 82642616 82026592 81383000 80716568 80032352 
3349.559 79333504 78621760 77897072 77158464 76405200 75637488 74856928 
3352.934 74066464 73269408 72469560 71669896 70873336 70081968 69297568 
3356.310 68520896 67753088 66994100 66244692 65505632 64778440 64065368 
3359.685 63368492 62689692 62029684 61387660 60761636 60149188 59548588 
3363.060 58958948 58381020 57816088 57265952 56732296 56215472 55715540 
3366.435 55231904 54764068 54311680 53874428 53451860 53042500 52645316 
3369.811 52257940 51878268 51504416 51135392 50769996 50408072 50049164 
3373.186 49692592 49338320 48986188 48636416 48289708 47946532 47607100 
3376.561 47271440 46938816 46608208 46279184 45951332 45624532 45299416 
3379.936 44975752 44653324 44331060 44007384 43680728 43349700 43014060 
3383.312 42673600 42329712 41983952 41637804 41293392 40952528 40616372 
3386.687 40285928 39961144 39641872 39326820 39014900 38704796 38395096 
3390.062 38085112 37774332 37462836 37150772 36839184 36528972 36221320 
3393.437 35917272 35617680 35322392 35031220 34743112 34457240 34173280 
3396.813 33891472 33612820 33338606 33069354 32805308 32545350 32288012 
3400.188 32032002 31776748 31522822 31271574 31024916 30783948 30548730 
3403.563 30317974 30089398 29860626 29629774 29396208 29160536 28924460 
3406.938 28689928 28458424 28231568 28010028 27793792 27582924 27376428 
3410.313 27173348 26972794 26773708 26575452 26378308 26182730 25990126 
3413.689 25801510 25617792 25438928 25264810 25094306 24926678 24761850 
3417.064 24599468 24439112 24280670 24122812 23964170 23803836 23641988 
3420.439 23480024 23320708 23167358 23022412 22887154 22760560 22639940 
3423.814 22521864 22403020 22281174 22155770 22027542 21897716 21767824 
3427.190 21638944 21511324 21385272 21261136 21138808 21019088 20902460 
3430.565 20789030 20678336 20569688 20462246 20355354 20248902 20142826 
3433.940 20037502 19933418 19830714 19729488 19630018 19532548 19437770 
3437.315 19346370 19258974 19175334 19094758 19015720 18936142 18854158 
3440.691 18768348 18678336 18584710 18488858 18392576 18297354 18204052 
3444.066 18112048 18020306 17926720 17829942 17729078 17624924 17519382 
3447.441 17415280 17315512 17221560 17133900 17051152 16971278 16892282 
3450.816 16812266 16731612 16650902 16571756 16495207 16421217 16348720 
3454.192 16276097 16201010 16122360 16039254 15952347 15862642 15771443 
3457.567 15679471 15587349 15494972 15402407 15309382 15216582 15124181 
3460.942 15032862 14943037 14855082 14769030 14685600 14604688 14527011 
3464.317 14452636 14381185 14311973 14244209 14176524 14108096 14037798 
3467.693 13965286 13890495 13813151 13733119 13650947 13567048 13482413 
3471.068 13398375 13316371 13237591 13162413 13090867 13021620 12953545 
3474.443 12885412 12816370 12746143 12675211 12604292 12534168 12465486 
3477.818 12398761 12333851 12270690 12208628 12147256 12085860 12023995 
3481.194 11961389 11898112 11834775 11772162 11710989 11651901 11595167 
3484.569 11540212 11485773 11430865 11373923 11313859 11250098 11182913 
3487.944 11113494 11043848 10976456 10914137 10858792 10811673 10772509 
3491.319 10739427 10709777 10680403 10648753 10613169 10573818 10531518 
3494.695 10488305 10446284 10406983 10371112 10338672 10309457 10282924 
3498.070 10259108 10237361 10217449 10198486 10179592 10159309 10136516 
3501.445 10110774 10081982 10050953 10019079 9988191 9960152 9936285 9917607 
3505.302 9904488 9896589 9893098 9892827 9894216 9895640 9896453 9896556 
3509.160 9896996 9899403 9905403 9915945 9931200 9950185 9971137 9992056 
3513.017 10011484 10028675 10043798 10057498 10070215 10082423 10093953 
3516.393 10104534 10113928 10121932 10129122 10136143 10143232 10150253 
3519.768 10156290 10160123 10159614 10153407 10140349 10119999 10092800 
3523.143 10059669 10022165 9981444 9938455 9893809 9847339 9798534 9746212 
3527.000 9689489 9627355 9559777 9487229 9410869 9332490 9253585 9176080 
3530.858 9100383 9027237 8956064 8886189 8816392 8745660 8672709 8596828 
3534.715 8517921 8436325 8352717 8268653 8184808 8102397 8021960 7943966 
3538.573 7868855 7797163 7729633 7667002 7609338 7556367 7506876 7459142 
3542.430 7410437 7359344 7303945 7243802 7178849 7109495 7036784 6962233 
3546.288 6887460 6814954 6746735 6684953 6630614 6583314 6540896 6500567 
3550.145 6458527 6412220 6360236 6303417 6244118 6185768 6131493 6083138 
3554.002 6041306 6004920 5971864 5940926 5910394 5879359 5847588 5815014 
3557.860 5781166 5745709 5708408 5668929 5627607 5585282 5542827 5501886 
3561.717 5463768 5429645 5399887 5374625 5351848 5329340 5302539 5266987 
3565.575 5217856 5152469 5070699 4976911 4877949 4782327 4697378 4628016 
3569.432 4574403 4534625 4504258 4478346 4452904 4424953 4393288 4358346 
3573.290 4321298 4283718 4246877 4211679 4177990 4145406 4113193 4080447 
3577.147 4046902 4012489 3977845 3943504 3910537 3879378 3850027 3822649 
3581.004 3796777 3772344 3749818 3729899 3713290 3700758 3691635 3684350 
3584.862 3675829 3661695 3637737 3600617 3549703 3487272 3418772 3351484 
3588.719 3292420 3246283 3215205 3197613 3190237 3188101 3186799 3181992 
3592.577 3170778 3151419 3123819 3089279 3050170 3009431 2970396 2935501 
3596.434 2906780 2884866 2869323 2858516 2850245 2842507 2832868 2820996 
3600.292 2807256 2792749 2779644 2769540 2763138 2761103 2762837 2767873 
3604.149 2775375 2784546 2794250 2803387 2809657 2810858 2804855 2790382 
3608.006 2767973 2740230 2711288 2684583 2663179 2647144 2634910 2623075 
3611.864 2608775 2589242 2565110 2538347 2512652 2491890 2478627 2473362 
3615.721 2474195 2477194 2477560 2470329 2451535 2419281 2374969 2322733 
3619.579 2268905 2220278 2182081 2156906 2144619 2143253 2149846 2161901 
3623.436 2178551 2200030 2227539 2261510 2300415 2340189 2374003 2392127 
3627.293 2384664 2345086 2273867 2180882 2084054 2003258 1951965 1933360 
3631.151 1942147 1968507 2001227 2030887 2051560 2061148 2061215 2055655 
3635.008 2048697 2043571 2040841 2039676 2037845 2033717 2026826 2018371 
3638.866 2010049 2003924 2000761 2000229 2000861 2001394 2001327 2001860 
3642.723 2005455 2015475 2034016 2062347 2098936 2139790 2180049 2214417 
3646.581 2237863 2247156 2240494 2217681 2180149 2130500 2072967 2013244 
3650.438 1958323 1915322 1889464 1883141 1894822 1920048 1952032 1982820 
3654.295 2005388 2013644 2004689 1979791 1944843 1907534 1876918 1859315 
3658.153 1857384 1869797 1892892 1921446 1950201 1974565 1992207 2002858 
3662.010 2008284 2011413 2015841 2024396 2039077 2061448 2092776 2133697 
3665.868 2184911 2245990 2315338 2389895 2466597 2544246 2627309 2726526 
3669.725 2860284 3049637 3310950 3651971 4070581 4558163 5102379 5687560 
3673.583 6293466 6882612 7398000 7769570 7927262 7833902 7499324 6973513 
3677.440 6321672 5605790 4880831 4189531 3568177 3045566 2636543 2340922 
3681.297 2143320 2020035 1945309 1898016 1866169 1844640 1833293 1832694 
3685.155 1841213 1853791 1863940 1863774 1848200 1815459 1768580 1713756 
3689.012 1658306 1608252 1566516 1533430 1508259 1490338 1479400 1475610 
3692.870 1478935 1488410 1501975 1517204 1531501 1542375 1548559 1550222 
3696.727 1548759 1546731 1546498 1550189 1557737 1567481 1575661 1578621 
3700.584 1572469 1556108 1531734 1504336 1480231 1465304 1463043 1473349 
3704.442 1493996 1520828 1549923 1578222 1604726 1629137 1652685 1675968 
3708.299 1698753 1719677 1736210 1745159 1743662 1730056 1704541 1669515 
3712.157 1629769 1590759 1558203 1535957 1525150 1524984 1532865 1544602 
3716.014 1556141 1564754 1568644 1567946 1564288 1559732 1556008 1554046 
3719.872 1553281 1552650 1551186 1548493 1544968 1541743 1540080 1540512 
3723.729 1542375 1544436 1544569 1541410 1534461 1525084 1516406 1512449 
3727.586 1516971 1532233 1558502 1593752 1633927 1673740 1708333 1733715 
3731.444 1748552 1753942 1753077 1749517 1745292 1739137 1728226 1708999 
3735.301 1680126 1643938 1606489 1575694 1557571 1554944 1567015 1591457 
3739.159 1625579 1667453 1717149 1774535 1837453 1901111 1955627 1988013 
3743.016 1984984 1938386 1852593 1747388 1653118 1595282 1584108 1613839 
3746.874 1668950 1731786 1785614 1819252 1827703 1812531 1779925 1738572 
3750.731 1695626 1654781 1618595 1589262 1570041 1564787 1575894 1602565 
3754.588 1640878 1684417 1726796 1762026 1786812 1800120 1803514 1798856 
3758.446 1787876 1771774 1751247 1727960 1705672 1688807 1681955 1687244 
3762.303 1703410 1726330 1749883 1768480 1778527 1779459 1774535 1768746 
3766.161 1766251 1769046 1775400 1781355 1782420 1774834 1758034 1734314 
3770.018 1708234 1685148 1668784 1661034 1661533 1669016 1681490 1697356 
3773.875 1716018 1736709 1759131 1782553 1805244 1825008 1838950 1844008 
3777.733 1837952 1819984 1792168 1758433 1725498 1699685 1685581 1684749 
3781.590 1694928 1711560 1728725 1741699 1747521 1745791 1738306 1728126 
3785.448 1718213 1710296 1704608 1700184 1696026 1691103 1685282 1678928 
3789.305 1672609 1666821 1662164 1659337 1659337 1663428 1672941 1687943 
3793.163 1707568 1728925 1748053 1761261 1765985 1762225 1753409 1745691 
3797.020 1744527 1754274 1774834 1801950 1828036 1843475 1839848 1812364 
3800.877 1763390 1702545 1646366 1610280 1603629 1626543 1671810 1727394 
3804.735 1779293 1815093 1826439 1810934 1773703 1726230 1682720 1653750 
3808.592 1643805 1651022 1670413 1696125 1723935 1753043 1784183 1819385 
3812.450 1859414 1902043 1942580 1973800 1988379 1981455 1954162 1914623 
3816.307 1875986 1851095 1847768 1866602 1900512 1938153 1966677 1974865 
3820.165 1955826 1910130 1846936 1782387 1731386 1703976 1701647 1719078 
3824.022 1747122 1776298 1799555 1812863 1816656 1814827 1813163 1817056 
3827.879 1829367 1849665 1875088 1901245 1923709 1940150 1949935 1954928 
3831.737 1958156 1963315 1973034 1988612 2008884 2031853 2054024 2071635 
3835.594 2080558 2078460 2063845 2037379 2002992 1965778 1931663 1905238 
3839.452 1888565 1880878 1879380 1880279 1879647 1874855 1864439 1848933 
3843.309 1829833 1810834 1795263 1787011 1788775 1801717 1825540 1858449 
3847.167 1897717 1940882 1985915 2031853 2078793 2126904 2175054 2219679 
3851.024 2253650 2266606 2247255 2187309 2087649 1963149 1838384 1738006 
3854.881 1677398 1658373 1672841 1708633 1754973 1802848 1846736 1884439 
3858.739 1915389 1940449 1960020 1975031 1985816 1992606 1995602 1994670 
3862.596 1989510 1979392 1964513 1946074 1927869 1914956 1912926 1925273 
3866.454 1951732 1987314 2022998 2048597 2054490 2035514 1993705 1939518 
3870.311 1888632 1853857 1842444 1852460 1875720 1901477 1920480 1927836 
3874.168 1923875 1914124 1905937 1906370 1918950 1942779 1973633 2005555 
3878.026 2032019 2047366 2048364 2034849 2010515 1981855 1956991 1943378 
3881.883 1945109 1961751 1988545 2017738 2039742 2046001 2032019 1999430 
3885.741 1956725 1916620 1891727 1888898 1908666 1945042 1988645 2029289 
3889.598 2058418 2070670 2065876 2047898 2023930 2001327 1985915 1980091 
3893.456 1983586 1994470 2010748 2030721 2053458 2078394 2104663 2131299 
3897.313 2156273 2177685 2193603 2202727 2205092 2202095 2194835 2185244 
3901.170 2173988 2160535 2143353 2121144 2093109 2060316 2025628 1993338 
3905.028 1967675 1951333 1945242 1947672 1956292 1967775 1979525 1989977 
3908.885 1998531 2005954 2013111 2021133 2030821 2042605 2056687 2073600 
3912.743 2093009 2114385 2136727 2157538 2174588 2185311 2188341 2183745 
3916.600 2173156 2159736 2146417 2135695 2128736 2125206 2124507 2126172 
3920.458 2130167 2136993 2146750 2159137 2171990 2182547 2187542 2185311 
3924.315 2175520 2160502 2143886 2130167 2122276 2121610 2127037 2136527 
3928.172 2146983 2156173 2162633 2165597 2165097 2161201 2154009 2143853 
3932.030 2131133 2117615 2104896 2095273 2090379 2090379 2094441 2100601 
3935.887 2106794 2111622 2114485 2116083 2118014 2122110 2129102 2139091 
3939.745 2150679 2161601 2169526 2172989 2171058 2164898 2156406 2147715 
3943.602 2141156 2138292 2139258 2143087 2148381 2153176 2156240 2156706 
3947.459 2154741 2151278 2147849 2145551 2145218 2147316 2151245 2156440 
3951.317 2162300 2168161 2173789 2179450 2184844 2190306 2195501 2200097 
3955.174 2203993 2207024 2209555 2211819 2214717 2218447 2223276 2229404 
3959.032 2236198 2242626 2247622 2250020 2248721 2243292 2234100 2221777 
3962.889 2207989 2194069 2181514 2171657 2165131 2162100 2162566 2166496 
3966.747 2173522 2183046 2194469 2206457 2217514 2226340 2232068 2234899 
3970.604 2235598 2235665 2236764 2239861 2245357 2252584 2260211 2266707 
3974.461 2271003 2272469 2271403 2268572 2264941 2261810 2259712 2259712 
3978.319 2262377 2267839 2275999 2286292 2297384 2307776 2315938 2320435 
3982.176 2321201 2318236 2312673 2305278 2297217 2289256 2281895 2275933 
3986.034 2271603 2269404 2269871 2272369 2276399 2280662 2283793 2285259 
3989.891 2285092 2283960 2283394 2284460 2287524 2292221 2297817 2302846 
3993.749 2306511 2309009 2310908 2313106 2316437 2320901 2325831 2330295 
3997.606 2333326 2334126 2333426 2331727 2329928 2328363 2326797 
##END=
