
##TITLE=mdmaHCL00420_10
##JCAMP-DX=5.01  $$ Nicolet v. 1
##DATATYPE=INFRARED SPECTRUM
##ORIGIN=UniL
##OWNER=Nicolet
##LONGDATE=2011/08/23
##TIME=10:22:26
##SPECTROMETER/DATA SYSTEM=Nicolet iS5
##DATA PROCESSING=
Ratio against background
%Transmittance->Absorbance
Truncated
ElementMultiply or ElementDivide
##COMMENTS=
Number of sample scans: 32
Collection length: 51.22 sec
Sample gain: 2.0
Background collected on: Mar Aout 23 10:20:31 2011 (GMT+02:00);
Number of background scans: 32
Background gain: 2.0
Sample spacing:  1.000
Number of scan points: 12415
Resolution points: 8192
Number of FFT points: 65536
Apodization: N-B fort;
Phase correction: Mertz;
Laser frequency: 15798.0 cm-1
Number of rejected sample scans: 0
Number of rejected background scans: 0
Bench serial number: ASB1000141;
##RESOLUTION=4.000
##XUNITS=1/CM
##YUNITS=ABSORBANCE
##FIRSTX=649.893372
##LASTX=4000.122314
##FIRSTY=0.084488
##MAXX=4000.122314
##MINX=649.893372
##MAXY=0.242312
##MINY=0.002007
##XFACTOR=1.000000
##YFACTOR=1.000000E-009
##NPOINTS=6950
##DELTAX=0.482117
##ZPD=6100
##XYDATA=(X++(Y..Y))
649.893 84488320 84134464 83811368 83560432 83403096 83335536 83335368 
653.268 83377328 83446016 83542280 83680576 83876752 84138368 84460712 
656.643 84829816 85233776 85673280 86162992 86726288 87381784 88136784 
660.018 88983328 89908824 90907296 91990248 93182488 94512184 95990568 
663.393 97601488 99298280 101021928 102717432 104334088 105830688 107158744 
666.767 108243112 108991088 109320312 109210160 108717088 107940320 
669.660 106960448 105810096 104482288 102955616 101222248 99307944 97275800 
673.035 95206544 93186432 91275376 89498456 87854736 86328688 84906232 
676.410 83580672 82352616 81223128 80188552 79238536 78357856 77531080 
679.785 76746480 75996648 75276944 74584592 73915472 73266672 72636848 
683.159 72028672 71447440 70898496 70384384 69901576 69441632 68993856 
686.534 68549032 68104112 67662672 67232744 66822908 66437596 66074260 
689.909 65723872 65372116 65005520 64613036 64189380 63734940 63255064 
693.284 62758332 62254064 61752400 61263112 60794148 60352380 59943508 
696.659 59571008 59238512 58949232 58705880 58510548 58363396 58261948 
700.034 58200156 58170832 58165644 58177004 58200344 58232816 58273660 
703.408 58323720 58383520 58453264 58532500 58619256 58711080 58805684 
706.783 58901224 58997700 59097644 59206428 59332212 59485392 59680628 
710.158 59936396 60275708 60726848 61317940 62069664 62986420 64045520 
713.533 65191128 66331268 67358712 68162800 68654032 68789144 68575872 
716.908 68074656 67380568 66617592 65920316 65412672 65214456 65422536 
720.282 66097252 67251384 68827856 70695184 72635088 74383888 75675832 
723.657 76279776 76073024 75060424 73382632 71268664 68992032 66812204 
727.032 64906852 63369492 62209360 61379456 60806572 60419396 60167344 
730.407 60015252 59941188 59927916 59956444 60008408 60070460 60137016 
733.782 60210960 60299268 60408352 60538068 60682000 60829404 60971408 
737.156 61103504 61227704 61349040 61472280 61598804 61725896 61849128 
740.531 61967008 62082664 62204660 62343520 62506488 62694208 62899396 
743.906 63109204 63308380 63483948 63628436 63738548 63815072 63860512 
747.281 63878672 63875364 63858820 63839896 63829848 63837484 63866384 
750.656 63913404 63970492 64028048 64079464 64124048 64167640 64219728 
754.031 64290724 64388172 64515316 64670832 64851372 65052280 65268324 
757.405 65494268 65724412 65952988 66175968 66392304 66604888 66819160 
760.780 67041500 67276104 67523304 67779736 68041520 68307608 68584728 
764.155 68890360 69251320 69707408 70307200 71101432 72141016 73459848 
767.530 75058616 76884880 78822576 80702048 82306480 83435016 83951280 
770.905 83826352 83164272 82183072 81170280 80378848 79971080 79961128 
774.279 80216328 80487552 80484160 79979296 78852736 77135872 74979264 
777.654 72615504 70281024 68153224 66340500 64865416 63690016 62742024 
781.029 61947516 61249644 60612236 60020960 59476080 58984524 58554868 
784.404 58197084 57921292 57737060 57653732 57678632 57816388 58068940 
787.779 58436932 58921528 59525596 60255304 61118380 62125440 63288184 
791.154 64620420 66140196 67870064 69835536 72064888 74581056 77394560 
794.528 80495368 83849136 87393296 91036720 94676320 98200392 101506040 
797.903 104524728 107234528 109679648 111964840 114255040 116739344 
800.796 119577568 122865440 126574872 130535336 134406544 137731936 
803.689 140025792 140830112 139864464 137087552 132726120 127214688 
806.581 121101680 114943200 109140120 103905648 99242984 94996144 90925512 
809.956 86801704 82493144 77984768 73378704 68836280 64541304 60640508 
813.331 57215220 54288512 51832200 49791388 48099856 46697160 45534372 
816.706 44570412 43774460 43122948 42597424 42186228 41881184 41676240 
820.081 41565020 41540044 41592260 41714612 41903992 42162748 42498244 
823.455 42920784 43440472 44064368 44795720 45633000 46570072 47594604 
826.830 48687084 49820484 50958340 52062352 53099152 54049036 54916736 
830.205 55736820 56577476 57527560 58693856 60187096 62094820 64469532 
833.580 67298584 70490144 73848184 77076592 79829464 81720736 82419912 
836.955 81731896 79628296 76275824 71983896 67166992 62233452 57522188 
840.329 53287268 49658788 46669892 44283764 42426008 41009040 39946036 
843.704 39165972 38606536 38214260 37948008 37774080 37669740 37622800 
847.079 37626740 37678160 37773032 37904364 38064564 38247800 38451820 
850.454 38679080 38933968 39220696 39540244 39890968 40269784 40676112 
853.829 41113856 41591856 42120980 42711472 43369764 44098072 44897004 
857.204 45769052 46721912 47770884 48938644 50251844 51742792 53446652 
860.578 55399868 57641508 60202968 63095912 66294216 69717720 73223760 
863.953 76594552 79577040 81906864 83343360 83733328 83026176 81293088 
867.328 78705200 75515928 72019992 68486560 65155244 62200644 59720660 
870.703 57756776 56300184 55310892 54728364 54483948 54508176 54726672 
874.078 55067316 55461904 55845364 56167088 56396268 56524752 56569024 
877.452 56566348 56567100 56619720 56761596 57008092 57345992 57733392 
880.827 58104996 58390076 58519608 58445988 58154844 57667092 57036164 
884.202 56331984 55633352 55006800 54496980 54128112 53903688 53815580 
887.577 53851812 54003108 54264376 54633624 55108128 55681636 56342056 
890.952 57074516 57862232 58689916 59546764 60424996 61319276 62225576 
894.327 63139208 64054808 64966224 65864324 66736236 67563944 68320872 
897.701 68976032 69497696 69858032 70041176 70047048 69891464 69602232 
901.076 69215256 68770008 68302176 67845160 67428744 67077272 66813132 
904.451 66655532 66619524 66718384 66962980 67361608 67922480 68652944 
907.826 69558672 70644032 71910960 73359240 74987496 76794472 78779880 
911.201 80944144 83286520 85803576 88486600 91323704 94301600 97411040 
914.575 100652808 104040904 107602752 111373384 115390408 119682696 
917.468 124259312 129097152 134128768 139238224 144237824 148880640 
920.361 152882832 155928624 157749200 158175840 157189440 154957056 
923.254 151826896 148316064 144993296 142441472 141178432 141541760 
926.146 143674064 147466096 152583152 158455840 164356240 169551104 
929.039 173331120 175172736 174815792 172248352 167681504 161451040 
931.932 153965936 145620976 136768096 127737536 118810416 110234200 
934.824 102234856 94984192 88609656 83192600 78762432 75315640 72825712 
938.199 71254456 70553120 70656240 71475096 72872736 74659160 76610880 
941.574 78461840 79953920 80879832 81094440 80552240 79302008 77479072 
944.949 75267408 72866424 70471160 68229872 66241956 64559252 63189104 
948.324 62110876 61287908 60682416 60258348 59984896 59838880 59798380 
951.698 59843744 59957736 60124648 60333192 60576580 60851356 61155832 
955.073 61487968 61844544 62221176 62613524 63018756 63436748 63868456 
958.448 64315736 64778560 65255268 65742528 66237552 66739328 67249264 
961.823 67770752 68306872 68859304 69427168 70007608 70597920 71197144 
965.198 71806856 72430608 73071968 73732736 74411920 75106784 75813536 
968.573 76530376 77257376 77996424 78749448 79517496 80299352 81093160 
971.947 81897304 82712480 83541680 84389112 85258416 86150672 87064280 
975.322 87996328 88944856 89910584 90897656 91911584 92957928 94039672 
978.697 95156544 96306976 97490040 98707440 99964048 101266176 102618720 
982.072 104023640 105478664 106978296 108515664 110084064 111675032 
984.964 113275424 114865928 116416016 117886488 119237552 120430672 
987.857 121439424 122253344 122877440 123331184 123643272 123851936 
990.750 123999592 124130440 124291688 124524048 124859616 125318136 
993.643 125905336 126614840 127434032 128350648 129356160 130447672 
996.535 131625552 132889960 134237088 135659536 137147136 138690224 
999.428 140283344 141922720 143604128 145318896 147049648 148772320 
1002.321 150460224 152089168 153644224 155122272 156530896 157884736 
1005.213 159202960 160508288 161824816 163180672 164607264 166133248 
1008.106 167782576 169568192 171489072 173532624 175678016 177903824 
1010.999 180188768 182513184 184857056 187193200 189488768 191709360 
1013.891 193822816 195809440 197663856 199393216 201008000 202513072 
1016.784 203900320 205148656 206229536 207115616 207792432 208261968 
1019.677 208546352 208682496 208723360 208735520 208790816 208971520 
1022.570 209358960 210020336 211006304 212338816 214011856 215994720 
1025.462 218242384 220706224 223333152 226070912 228860624 231625632 
1028.355 234277168 236713152 238824176 240514176 241699360 242312064 
1031.249 242303120 241633600 240277552 238229008 235507616 232165440 
1034.142 228280000 223953184 219293088 214399152 209366704 204279424 
1037.035 199212320 194243840 189448688 184897072 180655872 176778352 
1039.928 173305488 170266432 167672672 165514224 163746960 162287824 
1042.821 161000496 159695840 158166688 156193600 153593008 150261152 
1045.714 146182064 141439552 136189568 130646200 125035536 119557840 
1048.607 114387784 109644632 105394232 101660352 98428968 95661696 93305000 
1051.982 91303176 89603152 88157248 86928216 85885136 84999992 84246608 
1055.357 83595056 83011896 82463896 81917464 81343672 80722312 80040280 
1058.733 79294168 78489312 77640416 76770992 75911080 75098912 74373616 
1062.108 73772784 73330568 73071936 73012816 73160152 73511568 74055064 
1065.483 74766792 75612056 76540808 77488576 78387616 79166800 79765480 
1068.858 80144832 80287432 80200864 79910416 79454712 78875976 78211872 
1072.234 77495544 76750080 75990136 75224304 74457696 73694568 72942536 
1075.609 72213240 71523216 70893312 70343784 69892320 69550736 69322448 
1078.984 69202672 69179432 69236944 69354816 69510136 69679048 69834256 
1082.359 69949496 70003328 69982616 69888536 69738648 69568552 69425528 
1085.735 69363800 69440696 69706200 70200824 70952488 71971776 73251136 
1089.110 74760848 76453000 78259128 80096296 81884576 83547256 85026552 
1092.485 86289200 87322720 88131872 88730192 89134152 89358656 89416544 
1095.860 89324056 89104696 88792992 88439560 88103008 87843912 87714496 
1099.236 87739920 87908848 88162024 88402312 88496024 88295112 87674064 
1102.611 86542288 84870216 82693600 80109720 77258680 74291440 71364208 
1105.986 68608824 66119864 63962392 62165124 60730236 59641288 58870072 
1109.361 58382764 58140492 58105340 58238232 58497696 58843628 59232968 
1112.737 59620420 59964124 60224132 60368484 60378084 60246324 59980596 
1116.112 59597576 59121792 58580200 57997668 57398024 56800568 56220640 
1119.487 55670372 55158012 54687960 54262156 53880548 53541916 53244868 
1122.862 52987656 52766520 52573464 52395676 52213924 52005352 51749440 
1126.238 51431080 51046464 50604744 50127696 49645488 49189196 48787840 
1129.613 48461604 48219392 48059548 47971028 47936428 47933064 47938428 
1132.988 47931804 47896584 47824556 47716404 47582516 47439388 47307944 
1136.363 47209196 47158520 47165428 47230548 47347148 47501188 47673284 
1139.739 47841976 47982868 48072652 48092268 48026056 47865620 47609024 
1143.114 47259916 46826016 46317816 45748284 45130936 44480688 43814008 
1146.489 43146624 42493568 41867684 41277028 40726148 40215692 39744324 
1149.864 39310136 38911968 38550084 38225260 37938136 37688460 37475152 
1153.240 37296648 37151856 37041204 36965724 36926800 36924564 36957752 
1156.615 37023488 37118036 37238308 37382624 37551264 37745416 37966596 
1159.990 38215672 38492332 38795400 39123152 39473288 39842660 40226052 
1163.365 40615968 41001428 41369520 41707136 42001320 42241660 42420784 
1166.740 42533832 42578712 42555980 42469084 42324492 42132008 41904500 
1170.116 41655416 41398460 41146092 40908036 40692416 40506436 40357076 
1173.491 40252084 40200464 40210208 40289160 40443480 40677568 40995896 
1176.866 41402940 41904500 42507524 43219380 44047500 44999272 46081552 
1180.241 47302108 48670664 50197692 51894776 53773428 55842916 58109428 
1183.617 60574788 63234636 66073992 69062568 72152832 75270128 78315072 
1186.992 81174832 83719064 85822432 87380328 88310208 88569032 88154640 
1190.367 87106344 85497024 83425056 81008304 78360992 75591392 72797272 
1193.742 70053200 67418840 64937368 62634656 60524740 58610272 56885280 
1197.118 55337200 53948968 52702844 51579708 50561896 49634196 48782536 
1200.493 47994600 47260064 46569628 45916196 45295700 44707636 44155216 
1203.868 43644820 43184720 42782108 42442196 42166144 41951688 41793660 
1207.243 41685688 41622160 41597692 41607500 41647176 41711112 41793732 
1210.619 41890308 41998072 42118168 42254956 42416584 42612228 42850888 
1213.994 43140328 43486612 43893288 44362692 44894876 45487496 46135052 
1217.369 46830224 47563548 48325596 49109420 49910572 50728176 51563624 
1220.744 52419828 53300640 54210688 55156508 56147216 57193412 58306928 
1224.120 59497552 60770520 62124716 63552020 65037420 66558884 68090784 
1227.495 69603208 71062176 72435072 73690560 74803088 75758152 76553376 
1230.870 77200264 77721368 78151304 78534768 78921240 79371288 79950776 
1234.245 80725944 81766568 83135704 84884360 87052536 89663552 92725400 
1237.621 96231424 100162336 104484808 109146592 114081840 119205288 
1240.514 124414744 129607944 134680576 139535056 144090768 148273360 
1243.407 152015936 155259712 157947696 160028544 161460224 162206032 
1246.300 162237824 161537408 160097616 157929344 155063728 151554912 
1249.193 147470464 142882192 137858224 132451344 126702696 120650432 
1252.086 114336648 107820960 101186112 94527968 87959848 81599208 75548840 
1255.461 69901544 64725520 60057408 55908560 52263064 49085380 46325004 
1258.836 43925256 41830104 39983016 38335340 36846504 35482828 34221388 
1262.212 33047150 31950970 30928128 29975458 29089530 28266788 27503774 
1265.587 26797460 26146272 25549120 25004728 24510518 24062464 23655668 
1268.962 23286378 22952192 22653834 22394054 22177074 22006734 21886076 
1272.337 21818132 21806146 21854820 21970414 22158942 22424548 22766672 
1275.713 23178786 23647516 24151464 24665116 25156202 25589428 25931242 
1279.088 26150954 26227464 26154472 25941126 25612028 25199740 24741750 
1282.463 24270088 23806916 23364764 22947162 22553450 22183176 21838374 
1285.838 21524242 21246870 21011264 20819444 20671214 20565310 20501356 
1289.214 20480482 20504866 20575976 20692722 20851390 21046076 21270182 
1292.589 21518044 21784964 22065888 22354320 22640498 22913384 23163024 
1295.964 23383506 23575796 23748644 23917254 24099064 24311960 24572504 
1299.339 24893098 25283950 25751654 26296454 26909372 27567424 28235706 
1302.715 28864682 29399150 29789152 29992856 29987672 29771266 29360898 
1306.090 28789158 28097012 27332532 26541672 25765824 25041126 24392424 
1309.465 23834184 23370008 22995056 22699148 22470534 22300182 22181712 
1312.840 22111314 22085934 22101552 22152806 22234962 22343644 22477338 
1316.216 22636414 22820866 23028176 23252398 23484116 23713964 23935388 
1319.591 24147086 24352786 24558864 24771776 24993498 25221862 25450346 
1322.966 25671606 25879156 26069740 26243372 26403588 26557134 26713308 
1326.341 26885190 27088416 27338918 27650330 28028722 28469958 28958744 
1329.717 29472230 29986430 30480944 30944602 31376272 31782206 32171674 
1333.092 32552388 32928966 33302150 33670932 34034540 34393580 34749860 
1336.467 35105288 35460860 35817300 36176192 36541188 36919152 37318780 
1339.842 37747584 38209844 38704796 39227588 39771448 40330828 40901956 
1343.218 41483244 42073340 42670164 43270112 43869792 44467220 45062488 
1346.593 45656040 46244320 46813652 47338208 47775580 48072652 48176856 
1349.968 48041784 47640340 46970672 46057972 44951680 43715680 42427400 
1353.343 41162340 39988176 38963252 38126384 37496644 37071988 36832692 
1356.719 36745564 36771092 36874168 37025220 37203252 37396420 37597472 
1360.094 37804332 38019644 38253700 38525640 38861164 39289352 39831696 
1363.469 40492908 41256880 42087212 42934204 43736896 44434808 44969984 
1366.844 45288160 45349948 45134280 44644436 43908576 42976564 41911620 
1370.219 40773900 39618492 38487224 37407000 36397800 35477832 34667276 
1373.595 33992328 33478700 33143520 32988232 32997028 33143268 33398360 
1376.970 33743120 34173352 34700616 35348524 36149440 37143012 38371316 
1380.345 39880796 41715632 43901904 46428088 49218920 52134860 54959640 
1383.720 57429108 59285076 60280616 60237224 59078664 56862580 53796864 
1387.096 50202340 46473408 42957032 39887552 37376016 35417824 33942236 
1390.471 32849908 32046020 31449258 30993956 30633914 30334710 30073810 
1393.846 29841212 29635982 29463932 29331722 29242362 29192890 29176020 
1397.221 29182578 29205896 29243818 29299818 29381850 29498506 29657728 
1400.597 29863076 30113478 30404250 30728606 31078728 31447370 31829800 
1403.972 32223664 32629498 33048868 33482742 33930704 34390992 34862224 
1407.347 35345324 35844468 36366020 36916808 37501452 38121860 38776960 
1410.722 39464580 40182584 40927804 41693420 42463348 43211512 43903444 
1414.098 44501612 44980308 45332332 45575956 45749724 45908572 46114640 
1417.473 46422336 46875472 47494312 48268864 49158508 50102072 51035248 
1420.848 51900340 52657880 53290340 53802792 54226980 54619384 55057160 
1424.223 55613276 56336960 57239640 58294692 59453060 60659976 61875720 
1427.599 63075872 64251652 65405012 66543052 67677776 68825992 70016328 
1430.974 71286976 72675944 74215568 75919560 77783384 79787608 81914384 
1434.349 84160776 86542120 89091848 91844320 94814088 97971352 101249736 
1437.724 104572152 107871240 111097760 114203880 117133904 119797768 
1440.617 122071392 123822056 124909264 125215784 124669024 123241000 
1443.510 120959120 117902104 114206720 110048928 105618088 101119232 
1446.404 96737624 92632584 88940384 85749568 83090888 80927576 79171888 
1449.779 77709200 76433840 75285768 74260264 73405776 72792760 72485496 
1453.154 72507112 72830848 73381768 74056240 74751288 75371288 75863536 
1456.529 76236176 76569464 76981440 77578376 78436832 79589328 81043680 
1459.905 82795184 84825664 87098448 89547152 92084320 94585928 96891824 
1463.280 98834760 100250024 101029496 101164568 100761520 100008304 99100056 
1466.655 98207488 97441480 96856960 96476336 96295440 96290232 96410224 
1470.030 96576688 96680824 96584920 96162248 95335976 94122880 92635208 
1473.406 91041296 89502688 88123792 86959952 86036264 85368344 84976504 
1476.781 84877992 85071568 85528368 86190184 86985616 87838024 88687848 
1480.156 89503624 90283160 91052208 91853368 92737504 93752088 94942256 
1483.531 96358016 98054360 100091776 102524224 105377632 108624360 112155256 
1486.906 115786248 119241296 122175944 124236952 125077440 124442448 
1489.800 122243112 118592016 113797120 108264920 102416024 96570728 90913672 
1493.175 85534024 80442968 75628384 71105024 66925176 63185348 60004224 
1496.550 57478768 55652028 54502016 53966376 53964088 54419872 55274916 
1499.925 56477616 57977368 59722224 61648712 63686132 65763116 67789456 
1503.301 69658896 71241216 72349464 72749512 72181856 70434920 67479832 
1506.676 63564412 59162492 54750800 50635124 46910172 43536060 40434784 
1510.051 37549280 34858168 32377712 30140148 28168174 26468168 25023962 
1513.426 23806252 22782000 21921902 21201846 20598976 20091948 19662778 
1516.802 19300158 19004090 18782222 18642640 18585230 18596642 18651390 
1520.177 18721712 18788760 18856752 18952238 19112866 19363728 19704764 
1523.552 20115754 20568020 21039816 21522674 22025800 22569328 23176130 
1526.927 23858720 24614652 25431094 26292476 27189150 28119458 29089744 
1530.302 30109570 31186904 32327384 33532850 34802416 36132732 37516840 
1533.678 38942628 40390060 41836236 43257116 44631584 45936044 47146076 
1537.053 48239572 49189972 49975180 50578908 50994668 51222696 51267960 
1540.428 51143148 50867992 50470368 49980236 49418172 48787840 48074060 
1543.803 47254488 46315052 45266648 44149088 43020464 41932532 40906508 
1547.179 39931028 38968504 37977912 36934736 35850120 34768060 33752392 
1550.554 32853446 32088902 31441600 30874726 30352652 29857006 29394116 
1553.929 28987752 28662392 28424462 28254482 28107298 27925640 27641820 
1557.304 27186928 26506240 25584756 24481140 23325220 22262442 21381444 
1560.680 20694356 20162920 19732330 19351014 18976016 18577896 18143936 
1564.055 17681692 17215252 16777482 16396889 16083986 15829789 15610224 
1567.430 15398596 15174446 14932235 14682550 14448320 14253384 14111725 
1570.805 14024314 13982498 13975620 13994132 14030166 14075855 14119323 
1574.181 14146022 14142668 14103852 14040467 13979042 13953139 13984209 
1577.556 14073699 14205350 14356663 14508167 14649134 14778903 14903875 
1580.931 15032862 15171735 15321704 15479348 15640175 15800821 15960254 
1584.306 16117958 16270662 16410481 16526356 16606836 16645601 16645463 
1587.682 16619332 16586456 16568625 16585974 16652554 16777482 16966284 
1591.057 17221800 17542634 17919812 18334610 18755236 19140636 19450796 
1594.432 19650888 19722448 19666142 19500872 19258108 18972070 18676916 
1597.807 18400698 18165700 17992056 17896436 17892156 17988290 18187052 
1601.183 18485018 18875232 19350596 19904176 20527792 21209152 21927198 
1604.558 22650586 23341932 23958252 24457934 24807944 24984830 24978828 
1607.933 24794228 24447630 23963538 23370428 22701242 21989968 21271052 
1611.308 20579172 19941120 19372908 18877102 18444188 18055952 17691286 
1614.684 17331858 16966044 16592894 16224708 15884053 15597790 15386134 
1618.059 15258450 15210990 15231305 15300664 15398562 15506749 15610635 
1621.434 15704859 15794704 15895944 16027873 16205516 16433882 16706096 
1624.809 17009560 17332270 17667612 18014330 18372942 18742296 19116640 
1628.185 19486248 19842124 20179546 20501324 20814438 21126772 21441418 
1631.560 21754236 22053198 22321702 22543014 22701624 22788984 22804350 
1634.935 22757802 22668636 22560360 22455286 22365378 22291950 22227568 
1638.310 22159604 22073382 21954662 21795276 21594334 21361048 21110874 
1641.686 20862132 20627292 20409282 20199920 19982648 19737774 19446952 
1645.061 19101406 18705594 18281076 17861806 17485576 17183432 16970108 
1648.436 16844368 16792464 16794118 16823944 16850776 16838856 16745489 
1651.811 16532792 16189350 15759589 15340961 15028815 14865162 14827790 
1655.187 14866397 14931069 14988341 15022263 15028711 15012111 14979664 
1658.562 14936967 14885564 14822750 14742841 14640910 14514060 14363205 
1661.937 14193161 14012884 13833434 13666505 13521447 13403673 13312441 
1665.312 13241724 13180104 13113132 13024454 12900465 12733211 12524039 
1668.688 12283983 12031727 11788403 11569917 11384400 11231771 11106117 
1672.063 10998035 10895620 10785892 10655953 10495773 10304130 10093275 
1675.438 9887505 9712394 9585790 9509210 9470873 9452045 9435621 9412088 
1679.295 9381039 9350907 9331780 9330764 9344983 9361437 9359134 9318035 
1683.153 9227726 9098996 8964521 8866439 8833468 8867487 8950483 9058768 
1687.010 9174185 9285131 9387134 9480558 9567567 9651171 9735029 9823715 
1690.868 9922318 10034982 10162836 10301789 10442449 10570084 10669128 
1694.243 10728525 10748258 10743639 10743639 10777298 10856753 10972378 
1697.618 11096633 11197022 11240645 11204876 11087864 10917399 10744895 
1700.993 10617142 10554908 10547609 10567775 10585124 10576501 10527954 
1704.369 10434677 10302535 10145199 9981037 9825139 9686576 9566788 9462001 
1708.226 9365804 9271727 9175302 9074601 8970643 8865898 8763544 8666218 
1712.083 8574456 8487545 8403827 8321914 8241334 8162119 8084607 8007007 
1715.941 7925541 7836128 7737289 7633751 7537757 7465041 7427627 7429548 
1719.798 7465648 7524810 7593793 7661303 7720661 7770143 7813255 7855528 
1723.656 7902832 7958444 8022398 8092371 8165360 8238430 8308877 8374201 
1727.513 8430683 8474333 8502175 8513427 8510927 8499269 8482848 8461325 
1731.371 8428082 8368762 8265175 8102667 7880495 7621848 7368241 7164331 
1735.228 7034730 6976543 6967755 6980785 6992907 6987991 6960213 6911867 
1739.085 6852619 6794390 6746936 6715439 6699825 6697672 6705714 6721697 
1742.943 6744143 6771369 6801626 6833096 6864401 6895000 6925131 6954860 
1746.800 6983075 7006814 7021934 7023853 7008666 6974725 6922943 6857163 
1750.658 6783821 6710828 6646528 6597443 6566696 6553712 6554081 6560405 
1754.515 6563265 6554452 6528484 6485735 6432599 6380242 6339727 6316629 
1758.373 6309469 6310174 6307653 6291617 6255648 6200221 6132064 6062037 
1762.230 6000587 5954934 5926583 5912778 5908109 5907135 5904751 5896455 
1766.087 5879124 5851551 5815988 5777606 5743996 5722442 5715929 5721837 
1769.945 5731339 5733723 5718379 5681081 5626298 5567192 5519806 5495074 
1773.802 5495175 5514034 5542055 5570750 5596056 5618443 5641269 5667519 
1777.660 5697497 5727847 5753331 5769111 5774047 5771025 5766257 5765989 
1781.517 5773342 5786538 5800541 5809305 5808701 5798358 5781804 5764981 
1785.375 5753095 5749402 5754237 5766325 5784289 5806787 5833114 5861358 
1789.232 5887588 5905859 5909722 5894070 5858268 5807593 5752189 5702869 
1793.089 5667553 5648116 5641269 5640967 5642511 5642779 5641470 5639355 
1796.947 5637039 5633917 5628446 5618746 5604346 5586658 5568300 5552795 
1800.804 5542257 5537525 5537592 5541854 5549707 5562057 5580046 5604011 
1804.662 5632608 5663121 5691857 5715895 5734025 5746951 5756386 5764176 
1808.519 5770320 5773678 5772469 5765619 5754103 5741042 5731037 5727612 
1812.376 5732145 5743191 5757595 5772503 5786236 5799500 5814678 5834424 
1816.234 5860552 5892760 5929203 5967228 6005021 6042079 6078837 6116471 
1820.091 6155824 6196255 6236555 6274842 6309267 6338651 6362153 6379603 
1823.949 6391607 6399980 6407983 6419618 6438416 6465555 6498818 6533495 
1827.806 6562121 6578335 6578941 6566595 6549877 6540122 6548060 6578671 
1831.664 6630244 6695720 6766725 6836462 6901397 6961526 7019206 7076624 
1835.521 7134958 7193503 7251214 7308022 7365950 7429548 7503808 7593051 
1839.378 7698670 7818754 7948758 8083325 8217494 8347313 8470854 8587670 
1843.236 8699615 8810238 8924033 9046114 9178720 9320642 9466098 9606217 
1847.093 9730285 9828020 9892793 9922285 9919099 9888928 9837916 9771254 
1850.951 9690405 9595512 9485943 9362385 9228403 9088338 8946762 8806180 
1854.808 8666793 8526842 8385145 8242009 8100169 7964214 7837713 7722044 
1858.666 7616014 7516214 7419436 7324803 7233256 7147691 7070562 7002436 
1862.523 6941325 6884598 6830269 6778773 6733577 6698647 6676271 6665538 
1866.380 6660895 6654738 6639530 6612750 6577124 6540122 6510623 6494883 
1870.238 6494244 6505309 6522295 6540593 6557546 6572112 6584088 6592262 
1874.095 6593642 6585164 6563836 6529796 6486206 6438484 6392011 6350149 
1877.953 6312864 6278002 6242505 6204556 6165066 6126922 6093084 6064859 
1881.810 6041037 6018594 5993902 5965448 5934242 5903474 5876975 5856992 
1885.667 5843055 5832174 5820219 5804470 5783852 5759878 5735066 5712471 
1889.525 5694207 5680846 5673259 5671850 5677556 5690951 5711396 5736510 
1893.382 5762698 5786673 5806887 5823846 5840402 5859511 5882684 5908211 
1897.240 5932092 5949324 5957419 5956445 5950500 5944285 5942975 5948283 
1901.097 5959435 5973275 5986612 5998201 6008549 6019098 6030521 6041944 
1904.955 6050545 6053569 6049470 6038988 6025616 6013454 6005559 6002401 
1908.812 6002031 6001695 5999243 5995749 5993633 5995682 6004181 6017788 
1912.669 6033713 6048563 6060323 6069496 6077997 6087371 6097250 6104341 
1916.527 6103937 6092008 6068790 6039088 6011203 5992087 5984294 5983924 
1920.384 5983756 5974182 5950029 5912341 5868377 5828950 5803563 5796914 
1924.242 5806753 5827002 5850141 5870661 5887117 5900149 5910293 5917716 
1928.099 5920571 5917447 5908714 5898503 5893163 5898974 5919261 5951709 
1931.957 5989366 6023264 6046850 6057433 6057736 6052057 6045069 6038047 
1935.814 6028673 6014025 5992356 5966254 5941094 5923358 5916137 5917917 
1939.671 5922552 5922082 5911233 5889972 5865052 5846245 5842417 5857697 
1943.529 5889402 5930984 5975526 6018090 6058206 6097116 6135727 6172796 
1947.386 6204859 6228118 6241833 6248892 6255513 6268220 6290340 6319890 
1951.244 6350385 6373315 6382629 6378023 6363766 6346821 6332162 6320966 
1955.101 6309031 6290676 6262707 6225866 6186508 6154244 6135996 6134652 
1958.958 6145910 6162747 6177736 6187919 6194339 6200994 6210909 6223816 
1962.816 6235580 6241227 6237093 6223446 6203817 6183718 6166343 6151824 
1966.673 6136433 6116841 6093151 6069832 6054846 6055552 6073830 6105248 
1970.531 6139928 6167351 6181197 6183147 6180492 6182374 6196456 6224421 
1974.388 6261867 6303518 6345745 6389825 6440400 6501879 6572818 6644913 
1978.246 6704368 6738322 6739836 6711602 6662039 6604776 6550516 6503627 
1982.103 6463975 6427655 6391439 6355260 6321572 6294307 6274809 6262606 
1985.960 6253732 6244959 6236320 6231244 6236152 6255984 6291315 6336028 
1989.818 6381419 6418105 6440602 6450623 6455601 6464479 6482977 6512406 
1993.675 6547556 6581665 6608746 6626510 6635796 6640001 6640707 6638285 
1997.533 6630413 6616080 6596467 6576653 6562491 6559463 6567368 6579916 
2001.390 6586341 6575980 6543015 6488190 6420963 6352940 6297231 6261261 
2005.248 6247009 6251547 6270540 6299450 6334919 6374761 6415549 6452473 
2009.105 6481800 6500601 6510556 6516610 6525423 6542140 6568479 6600807 
2012.962 6633138 6661231 6683472 6703998 6729000 6762922 6807415 6858241 
2016.820 6907658 6948530 6978866 7000349 7019509 7043485 7076725 7118959 
2020.677 7166520 7213784 7257447 7295824 7329251 7357322 7378723 7390181 
2024.535 7388564 7373499 7348864 7321231 7298688 7286457 7285075 7290972 
2028.392 7299025 7305933 7313380 7326185 7350683 7390114 7442693 7501751 
2032.250 7559031 7609338 7653580 7698333 7752805 7823072 7908298 8001844 
2036.107 8091528 8165833 8218169 8248796 8262439 8265716 8264669 8262507 
2039.964 8260582 8259839 8262507 8271659 8290875 8320900 8360148 8402677 
2043.822 8441865 8473253 8495181 8510656 8524307 8541237 8563641 8591151 
2047.679 8621804 8652461 8680482 8704991 8723888 8735585 8737816 8729433 
2051.537 8711650 8690083 8671085 8662974 8671626 8697385 8735450 8777745 
2055.394 8815818 8844323 8863125 8875975 8888184 8903572 8921531 8938510 
2059.251 8949875 8951701 8944192 8930461 8915173 8902456 8894035 8889165 
2063.109 8885715 8882638 8880474 8881015 8886391 8897078 8910438 8922512 
2066.966 8929141 8928633 8922377 8914124 8907428 8903809 8901475 8895523 
2070.824 8881454 8856598 8822478 8783763 8747012 8716991 8696066 8683695 
2074.681 8677982 8678082 8684674 8700292 8726897 8764018 8807397 8849734 
2078.539 8883484 8903133 8907766 8900596 8887237 8873439 8862888 8856565 
2082.396 8853115 8851830 8852912 8857884 8868739 8886020 8908071 8931238 
2086.253 8950721 8963066 8967261 8964825 8958466 8950246 8940844 8928228 
2090.111 8910540 8886459 8857274 8827077 8801210 8784236 8778726 8784406 
2093.968 8798775 8818354 8840536 8863801 8887541 8910708 8932016 8949164 
2097.826 8960867 8966009 8966347 8964927 8965400 8970474 8982211 9000309 
2101.683 9024666 9055283 9093075 9138891 9193272 9253923 9317290 9379144 
2105.541 9435520 9485265 9530174 9573698 9619970 9670821 9725880 9782132 
2109.398 9836425 9885945 9930251 9970832 10010026 10049224 10088561 10126172 
2113.255 10159784 10188140 10211546 10231324 10250015 10269286 10289710 
2116.631 10311154 10333582 10357437 10384720 10417978 10458604 10506465 
2120.006 10558982 10611980 10661216 10703733 10739291 10769757 10798460 
2123.381 10828285 10861408 10898440 10939281 10983626 11031681 11083139 
2126.756 11137085 11191310 11242890 11288728 11327702 11361305 11393175 
2130.132 11428041 11470021 11519864 11576077 11634339 11690123 11740945 
2133.507 11786632 11829395 11872367 11917217 11963706 12010131 12053666 
2136.882 12093219 12128414 12160886 12190328 12216023 12235619 12246150 
2140.257 12245911 12237016 12222975 12209582 12200687 12197519 12196973 
2143.633 12194689 12184671 12164771 12135365 12099215 12059116 12016126 
2147.008 11968031 11910643 11840666 11757660 11664630 11568148 11474205 
2150.383 11386747 11306582 11229901 11152417 11071005 10983592 10891271 
2153.758 10793773 10690861 10579454 10459148 10331750 10206085 10098090 
2157.134 10027658 10011043 10054954 10151474 10280108 10414551 10530839 
2160.509 10615070 10665155 10686888 10690114 10683629 10673271 10660027 
2163.884 10643728 10623083 10597075 10565365 10527275 10481720 10428228 
2167.259 10366362 10298158 10226200 10154527 10084661 10016672 9947880 
2170.635 9875065 9796332 9713410 9630574 9554424 9491023 9443139 9409650 
2174.492 9386457 9368309 9349857 9328733 9303919 9274638 9240655 9200684 
2178.349 9154016 9101906 9048855 9000648 8964250 8943313 8936616 8939153 
2182.207 8941960 8937461 8921633 8895624 8863057 8830256 8802123 8780686 
2186.064 8765336 8755464 8749109 8747147 8750089 8757967 8769394 8782478 
2189.922 8793738 8802325 8809325 8817576 8830898 8851357 8877126 8904079 
2193.779 8926570 8940742 8946053 8945782 8945139 8949502 8961375 8979573 
2197.636 9000748 9020944 9037217 9049599 9059343 9068308 9077071 9084176 
2201.494 9087052 9083161 9072165 9056603 9040465 9027474 9019895 9017427 
2205.351 9018272 9019997 9021182 9023042 9027406 9036100 9049531 9065974 
2209.209 9082011 9094598 9101534 9102684 9099741 9095139 9090910 9088202 
2213.066 9086985 9087526 9090030 9095714 9105560 9120110 9137807 9156452 
2216.924 9172764 9184947 9191851 9193881 9192494 9188636 9182815 9174963 
2220.781 9165725 9155945 9147722 9143289 9143966 9149143 9155269 9157772 
2224.638 9152899 9139161 9118080 9094631 9074568 9061677 9057921 9061068 
2228.496 9067496 9073722 9078086 9080488 9083094 9088270 9096865 9107997 
2232.353 9120042 9130059 9137333 9141631 9143865 9145286 9147215 9149143 
2236.211 9151445 9154761 9160548 9171038 9188738 9214323 9247018 9284048 
2240.068 9321962 9357408 9388522 9414627 9436333 9454314 9469044 9480422 
2243.926 9488957 9495425 9501962 9511072 9525025 9544535 9568956 9594834 
2247.783 9618412 9636332 9646564 9648597 9643244 9632369 9618513 9603574 
2251.640 9590804 9582776 9582370 9591041 9608419 9632031 9656659 9676919 
2255.498 9688168 9688134 9677800 9660318 9640229 9620987 9604726 9591041 
2259.355 9578880 9566450 9552901 9538234 9523299 9508871 9495764 9484656 
2263.213 9476494 9472735 9475479 9486552 9506499 9533696 9564620 9594598 
2267.070 9618513 9633453 9638771 9635994 9628236 9618277 9608554 9599645 
2270.927 9591583 9584232 9577830 9573326 9571530 9573326 9578372 9585554 
2274.785 9594124 9603168 9612111 9621223 9630742 9640229 9649071 9656253 
2278.642 9660894 9663571 9665265 9667637 9672008 9679054 9687694 9696367 
2282.500 9703279 9706837 9706872 9704635 9700840 9696808 9692742 9688168 
2286.357 9682206 9673972 9663097 9649410 9633453 9615532 9596020 9576035 
2290.215 9556524 9539149 9525940 9518455 9517202 9522012 9530953 9541824 
2294.072 9552630 9562045 9569633 9575933 9581083 9585180 9587247 9586434 
2297.929 9581929 9574036 9563638 9552257 9541079 9530749 9520588 9509785 
2301.787 9496950 9482116 9465692 9449166 9433894 9420519 9408431 9396242 
2305.644 9382326 9365838 9346913 9326972 9307880 9291394 9278294 9268681 
2309.502 9261539 9255988 9251249 9247526 9244920 9243735 9243566 9243532 
2313.359 9242246 9238726 9231551 9220719 9206200 9188365 9167485 9143729 
2317.217 9117031 9087999 9056771 9024361 8992055 8961070 8932692 8907800 
2321.074 8886797 8869212 8853690 8837627 8817744 8790729 8753807 8705836 
2324.931 8647864 8582837 8514947 8448657 8388151 8335390 8291314 8255685 
2328.789 8227489 8206418 8192473 8185653 8185753 8191561 8200914 8211213 
2332.646 8220398 8227387 8232621 8237417 8243056 8250586 8260447 8271862 
2336.504 8284560 8298137 8313166 8329918 8349069 8369640 8390483 8409941 
2340.361 8427339 8442609 8457441 8473590 8492579 8514609 8539041 8565095 
2344.219 8593821 8628395 8674365 8737715 8823256 8931103 9057380 9193171 
2348.076 9327717 9450013 9550089 9621122 9659675 9665434 9641380 9592430 
2351.933 9525737 9447541 9364619 9281984 9203426 9131988 9069662 9018137 
2355.791 8978592 8951295 8936176 8932151 8937834 8951600 8971455 8996250 
2359.648 9024666 9055892 9089692 9125558 9162950 9201530 9241434 9282694 
2363.506 9326058 9372677 9423058 9477578 9535728 9596427 9658523 9721543 
2367.363 9785283 9850423 9918115 9988869 10062449 10137907 10213717 10288760 
2371.220 10362289 10435016 10508671 10585056 10665698 10751314 10842111 
2374.596 10937514 11036982 11140451 11247786 11359570 11475907 11596869 
2377.971 11721882 11850234 11980940 12113184 12246116 12378884 12510773 
2381.346 12640893 12768254 12891966 13011207 13125119 13232604 13332941 
2384.721 13424723 13506783 13578877 13641305 13694955 13742010 13784180 
2388.097 13823036 13859125 13891932 13920430 13943799 13961488 13973943 
2391.472 13982498 13988622 13993961 13999675 14006314 14014151 14023150 
2394.847 14033349 14044916 14058161 14072808 14088895 14106180 14124937 
2398.222 14146091 14170841 14200796 14237395 14281633 14333615 14392933 
2401.598 14458356 14528621 14602392 14678814 14757100 14837082 14918586 
2404.973 15002026 15088193 15178117 15273104 15374017 15481167 15594389 
2408.348 15712451 15834291 15959086 16086495 16216556 16349752 16485881 
2411.723 16624289 16763534 16901412 17035198 17162716 17282240 17392000 
2415.099 17491370 17579932 17657018 17722968 17777918 17822382 17857214 
2418.474 17883732 17902720 17915808 17924682 17931242 17937838 17946644 
2421.849 17959456 17976964 17998548 18023070 18048698 18074638 18100856 
2425.224 18129182 18162072 18202532 18253048 18315462 18390192 18477482 
2428.600 18577172 18689508 18814606 18952548 19102444 19262646 19431254 
2431.975 19606066 19785732 19970330 20160664 20358338 20564372 20779158 
2435.350 21002082 21231942 21467180 21706480 21949606 22196392 22447224 
2438.725 22702394 22961728 23225204 23492544 23763624 24038264 24316166 
2442.101 24596206 24877622 25158836 25439280 25718712 25998218 26278994 
2445.476 26562806 26850082 27140862 27433920 27727600 28020278 28310180 
2448.851 28596172 28877358 29152598 29420850 29681356 29933392 30177512 
2452.226 30414482 30645716 30872592 31095206 31313558 31526030 31731158 
2455.602 31927000 32111842 32284514 32443654 32587924 32715984 32825858 
2458.977 32916028 32985016 33031634 33055448 33056162 33034210 32990344 
2462.352 32926392 32844618 32748532 32641538 32527782 32410630 32293796 
2465.727 32180916 32075596 31981852 31904500 31847912 31816002 31811758 
2469.103 31836324 31890094 31972472 32082870 32220810 32386210 32578316 
2472.478 32795730 33035960 33294388 33565784 33844116 34124316 34401504 
2475.853 34672620 34934972 35186556 35426024 35651560 35861596 36054348 
2479.228 36227588 36378844 36505580 36605244 36676008 36717800 36731608 
2482.604 36720068 36686896 36635520 36568908 36489072 36397224 36294260 
2485.979 36181380 36060432 35933540 35802836 35669472 35533600 35394280 
2489.354 35249364 35097132 34936156 34765224 34583988 34391712 34187512 
2492.729 33969936 33737712 33489474 33224742 32943838 32647572 32337022 
2496.104 32012850 31675446 31324632 30960328 30583498 30195484 29798874 
2499.480 29396846 28992678 28589306 28188856 27792592 27401132 27014786 
2502.855 26633752 26258754 25890902 25531934 25183624 24848220 24527590 
2506.230 24223348 23936090 23665990 23411934 23172670 22946358 22731372 
2509.605 22526716 22332134 22147470 21973446 21810258 21658308 21517348 
2512.981 21387186 21267364 21157766 21058180 20968838 20889806 20821634 
2516.356 20764142 20717710 20682368 20657732 20643692 20639698 20645014 
2519.731 20658912 20680804 20710412 20747252 20791220 20841310 20896308 
2523.106 20954998 21015854 21077830 21140826 21204698 21269660 21335152 
2526.482 21399716 21460634 21514944 21559096 21590818 21608822 21613068 
2529.857 21604226 21583226 21550912 21507878 21454648 21392372 21322520 
2533.232 21247704 21170360 21092820 21016480 20942028 20869538 20798276 
2536.607 20728066 20658948 20591436 20526506 20464678 20406816 20353618 
2539.983 20305042 20261366 20222276 20187356 20155422 20125090 20095036 
2543.358 20064012 20032122 19999890 19968804 19939870 19913714 19889364 
2546.733 19865536 19840286 19812158 19780566 19746304 19711006 19676854 
2550.108 19645376 19617366 19593344 19572512 19554558 19538890 19525376 
2553.484 19513522 19502986 19492694 19481880 19469926 19456930 19443312 
2556.859 19430284 19418434 19408282 19399100 19389398 19376788 19359326 
2560.234 19335008 19302824 19262678 19215264 19162002 19104558 19045284 
2563.609 18985812 18928322 18873848 18823014 18776168 18733302 18694316 
2566.985 18660004 18631124 18608572 18593288 18585090 18583084 18585748 
2570.360 18591384 18598646 18607362 18617806 18631018 18648312 18670414 
2573.735 18697256 18727664 18760738 18794610 18828412 18861286 18892952 
2577.110 18923476 18953104 18982662 19012986 19045284 19080876 19120344 
2580.486 19163872 19210970 19260394 19311070 19362270 19413722 19466218 
2583.861 19520696 19578128 19638894 19702478 19768082 19834424 19900604 
2587.236 19966340 20031846 20097950 20165282 20234636 20306742 20381674 
2590.611 20459746 20540264 20622774 20705686 20787534 20866374 20940846 
2593.987 21010256 21075014 21136198 21195584 21255010 21315038 21376082 
2597.362 21437414 21497780 21556412 21613000 21668026 21722816 21778554 
2600.737 21836772 21898238 21963478 22031968 22103366 22177214 22253166 
2604.112 22331366 22412510 22497646 22587582 22683262 22785074 22892742 
2607.488 23005502 23122206 23242050 23364588 23489572 23617496 23748644 
2610.863 23882980 24019776 24157488 24294124 24427544 24556166 24679074 
2614.238 24796052 24907624 25014380 25116914 25215400 25309834 25399758 
2617.613 25484744 25564512 25638950 25708304 25773172 25834248 25892520 
2620.989 25948724 26003388 26056722 26108198 26157356 26203740 26246750 
2624.364 26286808 26324582 26360950 26396864 26432778 26469050 26505184 
2627.739 26541144 26576650 26612334 26648444 26685966 26725218 26766096 
2631.114 26808280 26850574 26892346 26932814 26971772 27009322 27045500 
2634.490 27080730 27114974 27148198 27180472 27211692 27241996 27271630 
2637.865 27300668 27329460 27357760 27385746 27413626 27441932 27471192 
2641.240 27502184 27535580 27571980 27611594 27654674 27701360 27751618 
2644.615 27805660 27863350 27924792 27989670 28057634 28128402 28201904 
2647.990 28277964 28356582 28437798 28521048 28606152 28692582 28779916 
2651.366 28867974 28956904 29046732 29137574 29229748 29322646 29416418 
2654.741 29511132 29607178 29705410 29806468 29910958 30019234 30130630 
2658.116 30244824 30360718 30478348 30597328 30717974 30840612 30965204 
2661.491 31091292 31218272 31344966 31470772 31595156 31718324 31840246 
2664.867 31961452 32082230 32202720 32322776 32442584 32562244 32682080 
2668.242 32802236 32923102 33044826 33167660 33291812 33418112 33547100 
2671.617 33679524 33815748 33955712 34098764 34244120 34391032 34539104 
2674.992 34688304 34838960 34991244 35145020 35299316 35453416 35606028 
2678.368 35756996 35906944 36057012 36209184 36365156 36526052 36692632 
2681.743 36864792 37042252 37224876 37412924 37606688 37806936 38014040 
2685.118 38228116 38449360 38677304 38911676 39152340 39399012 39651200 
2688.493 39908764 40171244 40438496 40710428 40987484 41269924 41558128 
2691.869 41852068 42151284 42455056 42763020 43075088 43391624 43713628 
2695.244 44042256 44377920 44721008 45070616 45425688 45784844 46147248 
2698.619 46512312 46880124 47250868 47624664 48001408 48380592 48761556 
2701.994 49143332 49525300 49906632 50286220 50663272 51036404 51404336 
2705.370 51765560 52118456 52461812 52794432 53114912 53422780 53717176 
2708.745 53997708 54263960 54515992 54753844 54977280 55186716 55382516 
2712.120 55565676 55737196 55898764 56051716 56196844 56333832 56461356 
2715.495 56576912 56677476 56760236 56822924 56864280 56884488 56884712 
2718.871 56867148 56834672 56790788 56739244 56684008 56629492 56579256 
2722.246 56536832 56504752 56485052 56479316 56489056 56515356 56559664 
2725.621 56623264 56707152 56811784 56936880 57081584 57244332 57423664 
2728.996 57617864 57825248 58044360 58274076 58512976 58760084 59014208 
2732.372 59273832 59537756 59804312 60071336 60337036 60599360 60856392 
2735.747 61106976 61350148 61585020 61811080 62027812 62234868 62431996 
2739.122 62619956 62799952 62973820 63144036 63313060 63483140 63656248 
2742.497 63833916 64017640 64208784 64409116 64619884 64841912 65075680 
2745.873 65320468 65575024 65837452 66105820 66377328 66649384 66918252 
2749.248 67179672 67428824 67660656 67870680 68055664 68214008 68345648 
2752.623 68451768 68534128 68594696 68634592 68654536 68654496 68633928 
2755.998 68591824 68526712 68436952 68320136 68174080 67996568 67785824 
2759.374 67540648 67261136 66948020 66602804 66228024 65826728 65402276 
2762.749 64958684 64499976 64030348 63554212 63075760 62599324 62129416 
2766.124 61670552 61227020 60803256 60403024 60029484 59685076 59371220 
2769.499 59088836 58838544 58620280 58434124 58279380 58155072 58059280 
2772.875 57989940 57943932 57917996 57908572 57912204 57924816 57942532 
2776.250 57961088 57975628 57981456 57973920 57948744 57902364 57832444 
2779.625 57737476 57617412 57473396 57307956 57124472 56927472 56721800 
2783.000 56512000 56301996 56095032 55893032 55697228 55507728 55324216 
2786.375 55145448 54969268 54793312 54613636 54426332 54227656 54014216 
2789.751 53784340 53537608 53275732 53001284 52718032 52430408 52142260 
2793.126 51857772 51580564 51313676 51060404 50823404 50605152 50408112 
2796.501 50234140 50084928 49961796 49865488 49796624 49755192 49740928 
2799.876 49753116 49790756 49852552 49936964 50042172 50166148 50306608 
2803.252 50460580 50625704 50799084 50978424 51161820 51347720 51534896 
2806.627 51722188 51907992 52090216 52266500 52433808 52588612 52727760 
2810.002 52847680 52945176 53018056 53063656 53080768 53068300 53026216 
2813.377 52955016 52855764 52730340 52581204 52411340 52225056 52026864 
2816.753 51822528 51618440 51420712 51236268 51071844 50933452 50826460 
2820.128 50755508 50723856 50733276 50784036 50874548 51001748 51161152 
2823.503 51348168 51556460 51780268 52013384 52249344 52481812 52704452 
2826.878 52911488 53097616 53258688 53391756 53495180 53568644 53613100 
2830.254 53630456 53623748 53596832 53553572 53498516 53435784 53368752 
2833.629 53300344 53232544 53166740 53104280 53046548 52995108 52952248 
2837.004 52919796 52900448 52896668 52911224 52947192 53008736 53099748 
2840.379 53225652 53392540 53606880 53876644 54210688 54618968 55113504 
2843.755 55708760 56419400 57262288 58252516 59401084 60711300 62173728 
2847.130 63763872 65435672 67125648 68755336 70231560 71465400 72376672 
2850.505 72903032 73012224 72701752 71999848 70956504 69641200 68133144 
2853.880 66508332 64841488 63198076 61627520 60168488 58844192 57664708 
2857.256 56628780 55726688 54943284 54260204 53658688 53121656 52632484 
2860.631 52177864 51746264 51327732 50914856 50502228 50086272 49665472 
2864.006 49240220 48812752 48386928 47968436 47565064 47184668 46836460 
2867.381 46529060 46268828 46060512 45905808 45803808 45750976 45741696 
2870.757 45768792 45823212 45895056 45974208 46050460 46115300 46162980 
2874.132 46190804 46199172 46191064 46170868 46142568 46109552 46073888 
2877.507 46036348 45997484 45957664 45917668 45878632 45841512 45807564 
2880.882 45777188 45750940 45729364 45713388 45703964 45702416 45709524 
2884.258 45725720 45750900 45784808 45827188 45878224 45938588 46008828 
2887.633 46089732 46181408 46283612 46395532 46516556 46646428 46785680 
2891.008 46935676 47098320 47275840 47470948 47686044 47924440 48189292 
2894.383 48483756 48811120 49173572 49571720 50004064 50465868 50949432 
2897.759 51442976 51932564 52401844 52833832 53214268 53532284 53782912 
2901.134 53967952 54095760 54180172 54236664 54282472 54333312 54402032 
2904.509 54499840 54635840 54817712 55052572 55346800 55705820 56134548 
2907.884 56636968 57217380 57880328 58631240 59476124 60420844 61468884 
2911.260 62620336 63868880 65202140 66599168 68031024 69464104 70857616 
2914.635 72168712 73357792 74388328 75234312 75882664 76333728 76600800 
2918.010 76705432 76674208 76530056 76289296 75958712 75534648 75005880 
2921.385 74357376 73576368 72656512 71601360 70425608 69154752 67822888 
2924.760 66465428 65119752 63818448 62586160 61441056 60392892 59443940 
2928.136 58591120 57827332 57142956 56526792 55968260 55458028 54988524 
2931.511 54555248 54156376 53792252 53465088 53177448 52931996 52729856 
2934.886 52570660 52452052 52369620 52317068 52285968 52267808 52252636 
2938.261 52231484 52197668 52146552 52077068 51991196 51893804 51790944 
2941.637 51689008 51594184 51510760 51441224 51385424 51340712 51301968 
2945.012 51261360 51209800 51137928 51037520 50904388 50738564 50546224 
2948.387 50337484 50126764 49929344 49758428 49624760 49534172 49487828 
2951.762 49482444 49511852 49568488 49643036 49727140 49812940 49893104 
2955.138 49961868 50014736 50048492 50061692 50054592 50028564 49986440 
2958.513 49932056 49869612 49803056 49735948 49671008 49609680 49553004 
2961.888 49501196 49454708 49414124 49380120 49353948 49336688 49329000 
2965.263 49331304 49343068 49363636 49391664 49425748 49464472 49506764 
2968.639 49551816 49599504 49650540 49706372 49768608 49839252 49919940 
2972.014 50011164 50112112 50221124 50335328 50451684 50566884 50678276 
2975.389 50783700 50880844 50967244 51039868 51094880 51127752 51133752 
2978.764 51109116 51051272 50959940 50837040 50687844 50519424 50339868 
2982.140 50157520 49979488 49810040 49650984 49500564 49355024 49208528 
2985.515 49055108 48889136 48706172 48503912 48281268 48038932 47778764 
2988.890 47502444 47211488 46906148 46585268 46246384 45886512 45503464 
2992.265 45097116 44669924 44227776 43779004 43332236 42895180 42472884 
2995.641 42066188 41672084 41285152 40898936 40507308 40106264 39694580 
2999.016 39273208 38845180 38414464 37985400 37561632 37146440 36741956 
3002.391 36349556 35969788 35602356 35246704 34901936 34567232 34241752 
3005.766 33925364 33617868 33319504 33030454 32750890 32481004 32220420 
3009.142 31968656 31725026 31488478 31257972 31032816 30812368 30596438 
3012.517 30384740 30177546 29974430 29774956 29578412 29384260 29192358 
3015.892 29003268 28818402 28639740 28469178 28307882 28156296 28013422 
3019.267 27877730 27747238 27620280 27495618 27373006 27252508 27134690 
3022.643 27019934 26909088 26802782 26702314 26609690 26527020 26457042 
3026.018 26402108 26363872 26342712 26337502 26345318 26361336 26379752 
3029.393 26393448 26394784 26377638 26336656 26269244 26175092 26056652 
3032.768 25918088 25764030 25599446 25428354 25253784 25078020 24902396 
3036.144 24728210 24556270 24386990 24220476 24056930 23896354 23738844 
3039.519 23585380 23436972 23294978 23160298 23033278 22913210 22798798 
3042.894 22688674 22581510 22476746 22374448 22274998 22179096 22087014 
3046.269 21998926 21914792 21834646 21758800 21687566 21621394 21560140 
3049.645 21503248 21449320 21397176 21345384 21293392 21241230 21189286 
3053.020 21138182 21088160 21039190 20990988 20942794 20894604 20846836 
3056.395 20799700 20754202 20711142 20671074 20634728 20602692 20575628 
3059.770 20554436 20539534 20530988 20528000 20529494 20533870 20539984 
3063.146 20547488 20556798 20568958 20585320 20606690 20633234 20663882 
3066.521 20697034 20730326 20761606 20789134 20811484 20827612 20837102 
3069.896 20839884 20835816 20825492 20809364 20787846 20761328 20730014 
3073.271 20693906 20653666 20610162 20565032 20520462 20478780 20441824 
3076.646 20410186 20383446 20359728 20336602 20311500 20282890 20250082 
3080.022 20213736 20175312 20136508 20098750 20063110 20029590 19997774 
3083.397 19966862 19936228 19905182 19873928 19843232 19814342 19788854 
3086.772 19768532 19754420 19747068 19745992 19750432 19758440 19768046 
3090.147 19777930 19786738 19794054 19799984 19805084 19810390 19816666 
3093.523 19824886 19835776 19849476 19866020 19885270 19906776 19930122 
3096.898 19955482 19982784 20012208 20043712 20076644 20109958 20142340 
3100.273 20172430 20199608 20224082 20247062 20270184 20295284 20323442 
3103.648 20354866 20388898 20424668 20461170 20498336 20536128 20575004 
3107.024 20615374 20656896 20698388 20738840 20777038 20812734 20846696 
3110.399 20880384 20915256 20953016 20994084 21037972 21083744 21129972 
3113.774 21175406 21219206 21260960 21300630 21338216 21374098 21408350 
3117.149 21441314 21473272 21504118 21533710 21561394 21586290 21607462 
3120.525 21624840 21638840 21650856 21662802 21676454 21693278 21713376 
3123.900 21736366 21761100 21786322 21811372 21836318 21861754 21888690 
3127.275 21917508 21948492 21980766 22013390 22045356 22075858 22104898 
3130.650 22132896 22161000 22190290 22221988 22256514 22294254 22334888 
3134.026 22377762 22422174 22467184 22511988 22556170 22599346 22641756 
3137.401 22683612 22725330 22767300 22809866 22853240 22897212 22942028 
3140.776 22987370 23033032 23079016 23125106 23171412 23218212 23265786 
3144.151 23314382 23364134 23414626 23465264 23515212 23563902 23610956 
3147.527 23656894 23702940 23750428 23800966 23855466 23914034 23976074 
3150.902 24040156 24104704 24167892 24228954 24287290 24342904 24396210 
3154.277 24447874 24499020 24550556 24603080 24657154 24712918 24770024 
3157.652 24827836 24885834 24943662 25001324 25059554 25119196 25181306 
3161.028 25246514 25314752 25385284 25457022 25528386 25598286 25665840 
3164.403 25730770 25793282 25854292 25914430 25975070 26037126 26101300 
3167.778 26167844 26236404 26305958 26375068 26442286 26506520 26566998 
3171.153 26623924 26678144 26730540 26782482 26834962 26888574 26943426 
3174.529 26999730 27057066 27114798 27172184 27228026 27281438 27331790 
3177.904 27379182 27424602 27469392 27515246 27563576 27615020 27669294 
3181.279 27725586 27782772 27840104 27897302 27954792 28013208 28073224 
3184.654 28134836 28197838 28261450 28324892 28387602 28449722 28511566 
3188.030 28573666 28636978 28702282 28769862 28840038 28912702 28987256 
3191.405 29063064 29139274 29214754 29289008 29361750 29433330 29503968 
3194.780 29574510 29645062 29715524 29785354 29853954 29921108 29987424 
3198.155 30054458 30123882 30197224 30275198 30357592 30442878 30529108 
3201.531 30614108 30696530 30775518 30851426 30924820 30996482 31067232 
3204.906 31137814 31208550 31279940 31352196 31425248 31498988 31573028 
3208.281 31646722 31719856 31792224 31864066 31935598 32006894 32077554 
3211.656 32147054 32214568 32279946 32343518 32406702 32471504 32540068 
3215.031 32613746 32693014 32776904 32863632 32950808 33036176 33118486 
3218.407 33196986 33271958 33344186 33414784 33484928 33555760 33628108 
3221.782 33702652 33779256 33857728 33937440 34017484 34097260 34176292 
3225.157 34254728 34332788 34411188 34490100 34569388 34648616 34726748 
3228.532 34803276 34877520 34949012 35017712 35083340 35146132 35206280 
3231.908 35264276 35321060 35377564 35434868 35494152 35555500 35618868 
3235.283 35683648 35748868 35813812 35877792 35940844 36003084 36064644 
3238.658 36125888 36187108 36248332 36309748 36371464 36433076 36494444 
3242.033 36554632 36612844 36668400 36721292 36772212 36822700 36874568 
3245.409 36929756 36989068 37052824 37120168 37189756 37260400 37331024 
3248.784 37401292 37471468 37542160 37613660 37686688 37761428 37838024 
3252.159 37916404 37996280 38076900 38157532 38236836 38313916 38387964 
3255.534 38458880 38526944 38593356 38659304 38726168 38794892 38866092 
3258.910 38939764 39016132 39094620 39174496 39255076 39335020 39413420 
3262.285 39489432 39562888 39634320 39705148 39776856 39851088 39928780 
3265.660 40010336 40095432 40183524 40274216 40367332 40462680 40560272 
3269.035 40659740 40760068 40860052 40958244 41054088 41147220 41239064 
3272.411 41331288 41426268 41525680 41630912 41741676 41857396 41975920 
3275.786 42095464 42214416 42331796 42447600 42562632 42678788 42797356 
3279.161 42920124 43047680 43180364 43317664 43458852 43603348 43751008 
3282.536 43901756 44056228 44214532 44376964 44543100 44712192 44883852 
3285.912 45057416 45233036 45411160 45592036 45776192 45963524 46153844 
3289.287 46346976 46542408 46740328 46941176 47145556 47354392 47568428 
3292.662 47788452 48014880 48248016 48487572 48733528 48984852 49240444 
3296.037 49499376 49760508 50023844 50289752 50559140 50832980 51112244 
3299.413 51396988 51687256 51982572 52282980 52588424 52899996 53218196 
3302.788 53543680 53876268 54215120 54558968 54906888 55258208 55613428 
3306.163 55973800 56340624 56715152 57098100 57489356 57888808 58295940 
3309.538 58710508 59132344 59561016 59995888 60436380 60881852 61332364 
3312.914 61788464 62251616 62723116 63204280 63695192 64195140 64702600 
3316.289 65215768 65733508 66255040 66780248 67308912 67840240 68373224 
3319.664 68906088 69437464 69966888 70494936 71022872 71551936 72083704 
3323.039 72618368 73155680 73694768 74234872 74775056 75314776 75853072 
3326.415 76388488 76919256 77443072 77958320 78463344 78957392 79439512 
3329.790 79908512 80362744 80799808 81217376 81613648 81988216 82341520 
3333.165 82674032 82986312 83277368 83545768 83789344 84006552 84197048 
3336.540 84361720 84502168 84619352 84713456 84782968 84825344 84838152 
3339.916 84819576 84769232 84687320 84574664 84431168 84256176 84048048 
3343.291 83805624 83527784 83214800 82866912 82484808 82068424 81617480 
3346.666 81131744 80611472 80058720 79476712 78869936 78242384 77597544 
3350.041 76937248 76261848 75571080 74864456 74142224 73405304 72655608 
3353.417 71895640 71128056 70356288 69584064 68814808 68052488 67299592 
3356.792 66557804 65827272 65107316 64397128 63696304 63005344 62325468 
3360.167 61658372 61005080 60365860 59740168 59127220 58526396 57938176 
3363.542 57363916 56805404 56264240 55741264 55236040 54747304 54273684 
3366.917 53813968 53367664 52934732 52514940 52108072 51712820 51327248 
3370.293 50949580 50578164 50211788 49850588 49494252 49143332 48797700 
3373.668 48457120 48121476 47790376 47463708 47141236 46822436 46506560 
3377.043 46192020 45877636 45562520 45246716 44930700 44615720 44302732 
3380.418 43992056 43683364 43375184 43065900 42753732 42437444 42116456 
3383.794 41790924 41461552 41129264 40795516 40461556 40129156 39799808 
3387.169 39474560 39153864 38837576 38524700 38214220 37904976 37596460 
3390.544 37288600 36982248 36677740 36375820 36076776 35780312 35486460 
3393.919 35194816 34905272 34618004 34333044 34050632 33771052 33494770 
3397.295 33222310 32954630 32692618 32436908 32187768 31944514 31705778 
3400.670 31469778 31234686 30999114 30762466 30525054 30287524 30050942 
3404.045 29816086 29583626 29353912 29126768 28902396 28680726 28462068 
3407.420 28246420 28033956 27824490 27617666 27413238 27210950 27010698 
3410.796 26812614 26616738 26423272 26232144 26043212 25856330 25671184 
3414.171 25487696 25306182 25127202 24951524 24780126 24613248 24450854 
3417.546 24292126 24135702 23980242 23824208 23667214 23509718 23352946 
3420.921 23198988 23049838 22907096 22771352 22642068 22517712 22396636 
3424.297 22276952 22157408 22037442 21917160 21797226 21678648 21562124 
3427.672 21448138 21336650 21227140 21118840 21010810 20901906 20791774 
3431.047 20680004 20567222 20454430 20342886 20234044 20128700 20027264 
3434.422 19929082 19833314 19738608 19644060 19549462 19455094 19361996 
3437.798 19271374 19183922 19099986 19018696 18938634 18857756 18774748 
3441.173 18688886 18600550 18510950 18421994 18334680 18249386 18165320 
3444.548 18080442 17992608 17899924 17802220 17700776 17598148 17497994 
3447.923 17402934 17314650 17232868 17155754 17081066 17006528 16930798 
3451.299 16853254 16774658 16695868 16617438 16539367 16461205 16382439 
3454.674 16302483 16221439 16140206 16059469 15980089 15902061 15825046 
3458.049 15748113 15670026 15589822 15507127 15422079 15335365 15247983 
3461.424 15161304 15076083 14993246 14913065 14835744 14760871 14687999 
3464.800 14616887 14546848 14477849 14410025 14343034 14276634 14209731 
3468.175 14141505 14070344 13995637 13917454 13836958 13755964 13676764 
3471.550 13600893 13528830 13459993 13392122 13323340 13251495 13175904 
3474.925 13097253 13017386 12938696 12863159 12792277 12726182 12663817 
3478.301 12603711 12543716 12482298 12418739 12352737 12285244 12217727 
3481.676 12151856 12089471 12031421 11977840 11927774 11879552 11830961 
3485.051 11779925 11724980 11665379 11601089 11533508 11463761 11394059 
3488.426 11326885 11264210 11207766 11158740 11117097 11081371 11049625 
3491.802 11018358 10985088 10947504 10905405 10859845 10813508 10769384 
3495.177 10730189 10697620 10671438 10650486 10632829 10616395 10599859 
3498.552 10582781 10564957 10546693 10528259 10509282 10489051 10467056 
3501.927 10442789 10416859 10390014 10364122 10340979 10322350 10308880 
3505.302 10300601 10296564 10294868 10293951 10292085 10288353 10282891 
3508.678 10276614 10271288 10268539 10270066 10276105 10286656 10300567 
3512.053 10316413 10333208 10350345 10367448 10385196 10403555 10422424 
3515.428 10441329 10459046 10475033 10488543 10499880 10510064 10520248 
3518.803 10531484 10543705 10556063 10566621 10572528 10571951 10563225 
3522.179 10545742 10520655 10489323 10453785 10415230 10374269 10330460 
3525.554 10282653 10229661 10170841 10105993 10036271 9963034 9888217 
3528.929 9813277 9738655 9664418 9590025 9514797 9438635 9361843 9285301 
3532.787 9210093 9136927 9066177 8997400 8929615 8861502 8791472 8718885 
3536.644 8643369 8565467 8486261 8407981 8332113 8260684 8194803 8134638 
3540.501 8079443 8027765 7977646 7926858 7873949 7817877 7758168 7694488 
3544.359 7626704 7554816 7478929 7400292 7321063 7244543 7174672 7114547 
3548.216 7065914 7028130 6998295 6971930 6944422 6911395 6870527 6821652 
3552.074 6766523 6707531 6648143 6590378 6535917 6485331 6438719 6396315 
3555.931 6357815 6323353 6291920 6262707 6233900 6203615 6170375 6132971 
3559.789 6091773 6047623 6002300 5957890 5916507 5879225 5845842 5814779 
3563.646 5782878 5745977 5699478 5640027 5566017 5479370 5384958 5291002 
3567.503 5206321 5137482 5087963 5056887 5040361 5032249 5026081 5016964 
3571.361 5001110 4976643 4943430 4902813 4857074 4808693 4760385 4714393 
3575.218 4672224 4634346 4600489 4569783 4540819 4512427 4484004 4455347 
3579.076 4426894 4399346 4374009 4351351 4332208 4316680 4304699 4295698 
3582.933 4288838 4282379 4274248 4261700 4241825 4211579 4169592 4115936 
3586.791 4053356 3987141 3924179 3871388 3833413 3811618 3803295 3803997 
3590.648 3806905 3805802 3796243 3775553 3744003 3704033 3659924 3616220 
3594.505 3576663 3543456 3516833 3495522 3477786 3461754 3446024 3430160 
3598.363 3414096 3398634 3384375 3372354 3363238 3357528 3355024 3355624 
3602.220 3358530 3363037 3368748 3375526 3383273 3391421 3398668 3403009 
3606.078 3401273 3390553 3369248 3337727 3299398 3259502 3224317 3198114 
3609.935 3182493 3175117 3171645 3167006 3156526 3138770 3114842 3088545 
3613.792 3064719 3047468 3038659 3038058 3042663 3047801 3048536 3040060 
3617.650 3019006 2984575 2939071 2888034 2838738 2798819 2773108 2763438 
3621.507 2767773 2782345 2802120 2823464 2844575 2865720 2888034 2912151 
3625.365 2936402 2955884 2962923 2948178 2903878 2827366 2725659 2615509 
3629.222 2517984 2452602 2426911 2437740 2473262 2520550 2567477 2605908 
3633.080 2632243 2646777 2652478 2653411 2653245 2653711 2655345 2656945 
3636.937 2658112 2658845 2660112 2663446 2669913 2679582 2691250 2702853 
3640.794 2712189 2717857 2720324 2721391 2723692 2729827 2740997 2756202 
3644.652 2773075 2787647 2796151 2795350 2783712 2760470 2726526 2683249 
3648.509 2632076 2575809 2519150 2468197 2430510 2412851 2418215 2445204 
3652.367 2488124 2538347 2585675 2621309 2638543 2633976 2609409 2570676 
3656.224 2527915 2491290 2468929 2464264 2476994 2503454 2538247 2576343 
3660.082 2612942 2644244 2668947 2686583 2698419 2706654 2713922 2722524 
3663.939 2734561 2751867 2776343 2809190 2851079 2901043 2956785 3014502 
3667.796 3070826 3125688 3186198 3267314 3391455 3582944 3857749 4220378 
3671.654 4662411 5168865 5721837 6302139 6887830 7443030 7915520 8241672 
3675.511 8360453 8241165 7896590 7375015 6737918 6042851 5340946 4672626 
3679.369 4072186 3567609 3172313 2885866 2692917 2571376 2496688 2449903 
3683.226 2420348 2403821 2399523 2406454 2420714 2435375 2442205 2433475 
3687.083 2404954 2357545 2297683 2234666 2177918 2133197 2102365 2083854 
3690.941 2074732 2072900 2077062 2086883 2101799 2120545 2141389 2162067 
3694.798 2180416 2195268 2206124 2213851 2219779 2225441 2231702 2238596 
3698.656 2244990 2248688 2247622 2240294 2225773 2206025 2184145 2164598 
3702.513 2151644 2148681 2156639 2174588 2200030 2230070 2261411 2291521 
3706.371 2318236 2340522 2357612 2368972 2374203 2372837 2363942 2346785 
3710.228 2320668 2286258 2245723 2203427 2165430 2137859 2125539 2129768 
3714.085 2149047 2178351 2212086 2244158 2269871 2287258 2296351 2299715 
3717.943 2300082 2300215 2301214 2302413 2302114 2298416 2290322 2278864 
3721.800 2265407 2252518 2241593 2232867 2225007 2215982 2203960 2188474 
3725.658 2171458 2156539 2148614 2152044 2169726 2200863 2241360 2285725 
3729.515 2326297 2355980 2370072 2366807 2349117 2322600 2294919 2272136 
3733.373 2255682 2242859 2227972 2206291 2176586 2142487 2112321 2094674 
3737.230 2095307 2114718 2149846 2195634 2247389 2302447 2359111 2416116 
3741.087 2469863 2513618 2536980 2527282 2475161 2379667 2255815 2131832 
3744.945 2041873 2007186 2028490 2089913 2168527 2242992 2295652 2317137 
3748.802 2305545 2266473 2210654 2150745 2097138 2056021 2030687 2022731 
3752.660 2033284 2062114 2106560 2162433 2222943 2281095 2331827 2370905 
3756.517 2397158 2411018 2414017 2407553 2392494 2370338 2343220 2315538 
3760.375 2293553 2282861 2287091 2305278 2332360 2360577 2381532 2389195 
3764.232 2382199 2363742 2341122 2323000 2315305 2319402 2331794 2345752 
3768.089 2354680 2353514 2341188 2320668 2298150 2280363 2272469 2276399 
3771.947 2291188 2313373 2338656 2363409 2385031 2402822 2417349 2430044 
3775.804 2442272 2454168 2463931 2468929 2465931 2452502 2428877 2398224 
3779.662 2366440 2339889 2322966 2317103 2319635 2326164 2331494 2331961 
3783.519 2326597 2317103 2306744 2299149 2296751 2299416 2305578 2312573 
3787.376 2318536 2322200 2323999 2325132 2326730 2330162 2335925 2344686 
3791.234 2356912 2372937 2392327 2413617 2434175 2449703 2456567 2451902 
3795.091 2435708 2411918 2387196 2370105 2366840 2379667 2405154 2435541 
3798.949 2460132 2467897 2451469 2409286 2347884 2281595 2228604 2203893 
3802.806 2212419 2249753 2303879 2360510 2405587 2428577 2425245 2398457 
3806.664 2358278 2319169 2294785 2292587 2312407 2348084 2391494 2435841 
3810.521 2476994 2513918 2548145 2581209 2612542 2639243 2655512 2655045 
3814.378 2632843 2589509 2531881 2473561 2430410 2412917 2423379 2454734 
3818.236 2493956 2525682 2536647 2518417 2470129 2400156 2325098 2264741 
3822.093 2233267 2235365 2265807 2314006 2366907 2414184 2449236 2470129 
3825.951 2479260 2481959 2484825 2492590 2507253 2526749 2547579 2565077 
3829.808 2575876 2578543 2574776 2568177 2563077 2563544 2571510 2586576 
3833.666 2605975 2625242 2639810 2644810 2636976 2614975 2579643 2534781 
3837.523 2486124 2440573 2404421 2381299 2371571 2373237 2382832 2395892 
3841.380 2409419 2421114 2430010 2436874 2442872 2449669 2459433 2473295 
3845.238 2492056 2515718 2543679 2575043 2608975 2644944 2683049 2723591 
3849.095 2766138 2808590 2846876 2873358 2877795 2849711 2780377 2668446 
3852.953 2525449 2376235 2249853 2169360 2142121 2160802 2210987 2277298 
3856.810 2347951 2415183 2474695 2524749 2565177 2596008 2617842 2631209 
3860.667 2637076 2636643 2631276 2621642 2607708 2589142 2565810 2540180 
3864.525 2516584 2501521 2500688 2516584 2546512 2582909 2613975 2628409 
3868.382 2617609 2579942 2522416 2460499 2412618 2391261 2399423 2430010 
3872.240 2471062 2509286 2535681 2547545 2548579 2547012 2551645 2568777 
3876.097 2599008 2638277 2678915 2712155 2730927 2730393 2709621 2672714 
3879.955 2627442 2584076 2552478 2538913 2544546 2564744 2591209 2613708 
3883.812 2622475 2611308 2580109 2536181 2493123 2464964 2462165 2487058 
3887.669 2533714 2590642 2645310 2686516 2706487 2703286 2680715 2647077 
3891.527 2612375 2585809 2572610 2574076 2588242 2611842 2641877 2675247 
3895.384 2709421 2742230 2770940 2792983 2806522 2810791 2806989 2797618 
3899.242 2786680 2777676 2772508 2770474 2768506 2762470 2748065 2723125 
3903.099 2688717 2648677 2609342 2577443 2557678 2552478 2560344 2578143 
3906.957 2601642 2627042 2651744 2674047 2693851 2711022 2725359 2736795 
3910.814 2745231 2750866 2754734 2758469 2763671 2771407 2781678 2792749 
3914.671 2802387 2807689 2807056 2800353 2789114 2776143 2764505 2755935 
3918.529 2751133 2749733 2750733 2753801 2759069 2767039 2777776 2790715 
3922.386 2803721 2813892 2818428 2815927 2806889 2793816 2780944 2772308 
3926.244 2770707 2776676 2788714 2803921 2819028 2831334 2838772 2840439 
3930.101 2836070 2825998 2811091 2792883 2773075 2754401 2739529 2730360 
3933.958 2727859 2731794 2740797 2752600 2765605 2778510 2790582 2802020 
3937.816 2812892 2822897 2831701 2838205 2841373 2840673 2836004 2827933 
3941.673 2817694 2806889 2796884 2788914 2783712 2781545 2782412 2785346 
3945.531 2789181 2792749 2794583 2793950 2790648 2785713 2780711 2777610 
3949.388 2777977 2782345 2790248 2800719 2811691 2822230 2831334 2838972 
3953.246 2845375 2851145 2856182 2860651 2864253 2866721 2868155 2869289 
3957.103 2870123 2871491 2873325 2875093 2876093 2875893 2873992 2870890 
3960.960 2867355 2864686 2863986 2865654 2869556 2874993 2880763 2886067 
3964.818 2890203 2893204 2895206 2896773 2898308 2899709 2900810 2901210 
3968.675 2900810 2899409 2897641 2895773 2895272 2896307 2899342 2904512 
3972.533 2911317 2918889 2926895 2934567 2941639 2947811 2952982 2957085 
3976.390 2960054 2961722 2962222 2961822 2961055 2960288 2960321 2961222 
3980.248 2963090 2965592 2968328 2970897 2973132 2974900 2975834 2976401 
3984.105 2976334 2976067 2975534 2974867 2974433 2974399 2974566 2974867 
3987.962 2974633 2972998 2969862 2965225 2959821 2955117 2952681 2953315 
3991.820 2957619 2964324 2971964 2978303 2981539 2980505 2975367 2967227 
3995.677 2957719 2948945 2942273 2938404 2937436 2938670 2941005 2943808 
3999.535 2946443 2948678 2950580 
##END=
