
##TITLE=mdmaHCL00420_1
##JCAMP-DX=5.01  $$ Nicolet v. 1
##DATATYPE=INFRARED SPECTRUM
##ORIGIN=UniL
##OWNER=Nicolet
##LONGDATE=2011/08/23
##TIME=09:42:19
##SPECTROMETER/DATA SYSTEM=Nicolet iS5
##DATA PROCESSING=
Ratio against background
%Transmittance->Absorbance
Truncated
ElementMultiply or ElementDivide
##COMMENTS=
Number of sample scans: 32
Collection length: 51.19 sec
Sample gain: 2.0
Background collected on: Mar Aout 23 09:40:19 2011 (GMT+02:00);
Number of background scans: 32
Background gain: 2.0
Sample spacing:  1.000
Number of scan points: 12415
Resolution points: 8192
Number of FFT points: 65536
Apodization: N-B fort;
Phase correction: Mertz;
Laser frequency: 15798.0 cm-1
Number of rejected sample scans: 0
Number of rejected background scans: 0
Bench serial number: ASB1000141;
##RESOLUTION=4.000
##XUNITS=1/CM
##YUNITS=ABSORBANCE
##FIRSTX=649.893372
##LASTX=4000.122314
##FIRSTY=0.067936
##MAXX=4000.122314
##MINX=649.893372
##MAXY=0.201988
##MINY=-0.000123
##XFACTOR=1.000000
##YFACTOR=1.000000E-009
##NPOINTS=6950
##DELTAX=0.482117
##ZPD=6100
##XYDATA=(X++(Y..Y))
649.893 67936392 67700776 67487616 67313864 67190424 67118448 67092232 
653.268 67104256 67152176 67240864 67377744 67566192 67801384 68069112 
656.643 68353336 68647008 68958200 69310896 69737408 70261976 70894096 
660.018 71623864 72430960 73297344 74220168 75212760 76298256 77491984 
663.393 78789408 80160456 81559464 82936248 84239928 85425824 86446848 
666.767 87245464 87764976 87968248 87865968 87511752 86973632 86296832 
670.142 85490120 84535576 83408592 82098560 80620568 79020712 77359080 
673.517 75703360 74104216 72589536 71170752 69849152 68625704 67503128 
676.892 66484316 65567092 64740828 63989228 63292360 62632508 61998156 
680.267 61384076 60788736 60212216 59653944 59112224 58585700 58074920 
683.642 57581808 57109508 56660488 56235464 55832332 55449184 55084052 
687.016 54737720 54412208 54109496 53830096 53570440 53323268 53078892 
690.391 52825864 52554092 52256560 51929388 51571720 51187392 50782732 
693.766 50365468 49945884 49534024 49138584 48767116 48424524 48113848 
697.141 47837280 47596932 47393860 47229256 47101604 47007964 46943168 
700.516 46901312 46877836 46869824 46876392 46898356 46936748 46992196 
703.890 47063572 47148804 47244916 47347740 47452692 47555416 47651432 
707.265 47738560 47817488 47892956 47973616 48071504 48202212 48384592 
710.640 48639384 48991640 49465884 50081212 50843448 51736672 52715412 
714.015 53701392 54600560 55312960 55755052 55884104 55702692 55262456 
717.390 54647564 53968216 53343272 52880576 52683432 52834920 53388608 
720.765 54360496 55708796 57328072 59036336 60606828 61805272 62420252 
724.139 62330244 61524196 60110564 58282068 56277400 54330984 52610080 
727.514 51211140 50155216 49410192 48915832 48607400 48434376 48355852 
730.889 48341928 48368444 48412820 48456528 48489500 48510580 48527992 
734.264 48553896 48599252 48668180 48758180 48861436 48969500 49077476 
737.639 49184484 49292068 49402504 49515752 49629664 49741784 49852332 
741.013 49964324 50083928 50217400 50366916 50529472 50697044 50859200 
744.388 51006780 51134572 51242120 51332544 51410116 51477480 51536760 
747.763 51589704 51639148 51690164 51748616 51819392 51903884 51999672 
751.138 52100604 52199760 52292772 52378888 52461248 52544520 52633680 
754.513 52731764 52839784 52958424 53088816 53232808 53392316 53568004 
757.888 53757036 53954372 54154496 54353476 54551904 54753584 54964756 
761.262 55190704 55433108 55689696 55956500 56231084 56516828 56826060 
764.637 57179504 57609048 58154432 58857512 59761040 60894700 62261368 
768.012 63820712 65479436 67097844 68493784 69494312 69975144 69898656 
771.387 69338648 68468448 67527016 66732644 66236012 66067472 66134096 
774.762 66242456 66156900 65688604 64730556 63298604 61508508 59546532 
778.136 57606476 55837040 54330828 53109372 52142668 51371180 50732644 
781.511 50179056 49679476 49222184 48807300 48440636 48129432 47881228 
784.886 47704276 47605624 47592792 47671212 47843380 48109592 48468604 
788.261 48919172 49463060 50105568 50854956 51722900 52723380 53871432 
791.636 55185476 56686424 58396256 60338332 62530368 64979308 67675184 
795.010 70588016 73665632 76833544 80008376 83100760 86027656 88733000 
798.385 91195664 93445296 95559048 97661480 99898152 102393336 105223976 
801.760 108369776 111697656 114938840 117729080 119675976 120402776 
804.653 119669216 117424032 113832384 109236072 104080608 98830896 93833176 
808.028 89282016 85196040 81454696 77859408 74213048 70397200 66391768 
811.402 62279420 58199812 54317276 50769064 47636864 44951424 42695572 
814.777 40825072 39282060 38012196 36969512 36115088 35419372 34859136 
818.152 34415528 34075324 33829292 33669640 33590304 33584256 33644256 
821.527 33765396 33945604 34187904 34498748 34887572 35362540 35929472 
824.902 36589560 37340012 38174172 39080808 40043796 41042288 42048008 
828.277 43031184 43965108 44833188 45637744 46405448 47190912 48067212 
831.651 49123668 50453620 52131984 54204796 56664372 59437556 62365320 
835.026 65204404 67667704 69428840 70198992 69794168 68162216 65414332 
838.401 61789764 57629176 53285284 49065976 45217188 41879980 39107816 
841.776 36885460 35154252 33835592 32847512 32121010 31596794 31227066 
845.151 30976910 30818484 30732094 30705314 30729070 30796324 30899844 
848.525 31031928 31185518 31356114 31543310 31750728 31983886 32248646 
851.900 32547888 32882002 33249244 33648160 34079516 34546352 35053240 
855.275 35604480 36203312 36851772 37552888 38313084 39143240 40059932 
858.650 41083736 42236404 43542504 45028236 46721140 48652800 50849892 
862.025 53325404 56062084 58997656 62016768 64939364 67552408 69630272 
865.400 70962360 71409120 70914808 69524912 67372752 64664528 61647220 
868.774 58552292 55591244 52924212 50646516 48806264 47406348 46420348 
872.149 45801892 45494704 45440364 45575184 45836760 46166188 46506708 
875.524 46813136 47055484 47222052 47321580 47380588 47438092 47534048 
878.899 47701688 47958000 48296372 48686008 49073952 49399904 49601064 
882.274 49630296 49467184 49121220 48631008 48053444 47456460 46900756 
885.648 46431040 46075400 45843944 45734628 45740112 45853188 46068620 
889.023 46382336 46789920 47283304 47850336 48476236 49145188 49842856 
892.398 50559104 51286828 52021788 52760720 53501064 54239444 54971752 
895.773 55692672 56393700 57062804 57681280 58227056 58676864 59009540 
899.148 59212540 59284088 59234452 59083220 58855424 58579592 58281276 
902.523 57985248 57713708 57485840 57320204 57234088 57242328 57359000 
905.897 57596756 57965708 58475480 59133976 59946668 60917152 62046348 
909.272 63332536 64772828 66364044 68103920 69990792 72023120 74197568 
912.647 76507408 78944088 81498624 84165072 86944928 89849696 92900224 
916.022 96122384 99542480 103178856 107033656 111082864 115266776 119487768 
919.397 123591256 127376632 130615624 133056256 134485216 134770192 
922.289 133898304 132005320 129372896 126420544 123612400 121428208 
925.182 120297472 120503560 122168664 125207376 129346832 134122400 
928.075 138941088 143208064 146348880 147939248 147763936 145803520 
930.967 142214272 137251280 131228192 124448944 117185328 109695640 
933.860 102204000 94914592 88021728 81682304 76022456 71133440 67061880 
937.235 63824780 61415560 59811500 58977736 58862524 59394092 60460564 
940.610 61906400 63546732 65157860 66517136 67439080 67783608 67491016 
943.985 66582100 65153048 63349248 61336448 59284164 57326896 55560292 
947.359 54039880 52781708 51776276 50998320 50419084 50009380 49743156 
950.734 49598464 49554192 49589996 49688432 49833640 50014360 50225100 
954.109 50463408 50729256 51022204 51340336 51679568 52035904 52405544 
957.484 52786648 53179100 53582776 53997520 54421484 54852296 55288200 
960.859 55728948 56176932 56635308 57107428 57594972 58096816 58610308 
964.233 59132116 59660560 60196080 60740604 61296648 61865748 62447032 
967.608 63039056 63640020 64249924 64870304 65504364 66154584 66821748 
970.983 67504064 68198384 68901464 69612144 70331704 71063192 71810096 
974.358 72574232 73355280 74151776 74962288 75787344 76630008 77494160 
977.733 78383920 79301408 80246416 81217464 82213984 83236872 84290216 
981.108 85378992 86507024 87675648 88882968 90124720 91395432 92690040 
984.482 94002560 95323680 96638520 97924064 99149760 100283536 101294416 
987.857 102159856 102870040 103427384 103846224 104148536 104364504 
990.750 104528192 104675104 104843032 105064792 105365976 105762504 
993.643 106258784 106850848 107528848 108284184 109110464 110005600 
996.535 110969568 112001888 113098952 114254824 115461720 116713336 
999.428 118006256 119338680 120707608 122105888 123518592 124925704 
1002.321 126306016 127640440 128918784 130139904 131310760 132443072 
1005.213 133550184 134647456 135750880 136879984 138058064 139307680 
1008.106 140649008 142093888 143643376 145288832 147014688 148804512 
1010.999 150641808 152511120 154396816 156277600 158126624 159915904 
1013.891 161618400 163217184 164707360 166094592 167388832 168596256 
1016.784 169713872 170728288 171619808 172368912 172964480 173408128 
1019.677 173715472 173913520 174041280 174147840 174286752 174519904 
1022.570 174909056 175506144 176351040 177462352 178836816 180452560 
1025.462 182276224 184270896 186395968 188610672 190868512 193109056 
1028.355 195262144 197247712 198979328 200380720 201384448 201934384 
1031.249 201988128 201510560 200476512 198876688 196722720 194053120 
1034.142 190927856 187427408 183639696 179646304 175527296 171354256 
1037.035 167191856 163107920 159166640 155427504 151946720 148768112 
1039.928 145924896 143440448 141324016 139568272 138138944 136971168 
1042.821 135956512 134942256 133757920 132219104 130165216 127497760 
1045.714 124186936 120285712 115911192 111233944 106441984 101708968 
1048.607 97192536 93006608 89220288 85866200 82942024 80422152 78265352 
1051.982 76426488 74861144 73528016 72394640 71433024 70617832 69925976 
1055.357 69331656 68806656 68323472 67854144 67374144 66865616 66315524 
1058.733 65718168 65074868 64394400 63693308 62994504 62328564 61728072 
1062.108 61225036 60849608 60624732 60565724 60680928 60969880 61424300 
1065.483 62025212 62744284 63539712 64357540 65140188 65827192 66366164 
1068.858 66722712 66880032 66842468 66629300 66271788 65804796 65260396 
1072.234 64667372 64046824 63412436 62772924 62133048 61496292 60868208 
1075.609 60256980 59674740 59137660 58661432 58260700 57945676 57720408 
1078.984 57583136 57526652 57540572 57611280 57722376 57855912 57989864 
1082.359 58101512 58171060 58184320 58138896 58045988 57932500 57836112 
1085.735 57800872 57874044 58096852 58503116 59116776 59948340 60994476 
1089.110 62234868 63635112 65143844 66697292 68231616 69683832 71003248 
1092.485 72158464 73133336 73926544 74544944 74998760 75297952 75451664 
1095.860 75472080 75377000 75193960 74964104 74736408 74563040 74490776 
1099.236 74545064 74721064 74973712 75223512 75357688 75247752 74781192 
1102.611 73871872 72484288 70639392 68412704 65920436 63292436 60667596 
1105.986 58166816 55880296 53873080 52177488 50800684 49731824 48948172 
1109.361 48420964 48117104 48003884 48048300 48215284 48471236 48779608 
1112.737 49102076 49402096 49644524 49799896 49849132 49783548 49605928 
1116.112 49327852 48968164 48548556 48090232 47614048 47137984 46675832 
1119.487 46239084 45834996 45467036 45136416 44841748 44581240 44353224 
1122.862 44155804 43986084 43837756 43700400 43558108 43391256 43181608 
1126.238 42915040 42586788 42203280 41781912 41348416 40929588 40552196 
1129.613 40235688 39990388 39817968 39711500 39658172 39639912 39637772 
1132.988 39633232 39610508 39560164 39480108 39376596 39262188 39153972 
1136.363 39070400 39026320 39031684 39089432 39195312 39338284 39501520 
1139.739 39665324 39807216 39905276 39941528 39901644 39778020 39569532 
1143.114 39279956 38917112 38490884 38012956 37494984 36949672 36390808 
1146.489 35831336 35284116 34759876 34266204 33807084 33383294 32993558 
1149.864 32635748 32308284 32010388 31742244 31503976 31295110 31115104 
1153.240 30962784 30837730 30740344 30671674 30633024 30625308 30647922 
1156.615 30699518 30778150 30882162 31010610 31163230 31339698 31539320 
1159.990 31760496 32001040 32258924 32532460 32820996 33123706 33438616 
1163.365 33761600 34085072 34399100 34692324 34953108 35171820 35341332 
1166.740 35457192 35517740 35523604 35478228 35386840 35256948 35097884 
1170.116 34918988 34729760 34539320 34355096 34184716 34036404 33918556 
1173.491 33840964 33813420 33844224 33939948 34105068 34341864 34652384 
1176.866 35039336 35507312 36062552 36712752 37465548 38328680 39309336 
1180.241 40414532 41652136 43029648 44554992 46235064 48074908 50077384 
1183.617 52242208 54565052 57033404 59622132 62292112 64980192 67601768 
1186.992 70060016 72242816 74042168 75367824 76149336 76350288 75969368 
1190.367 75040696 73626968 71812008 69695656 67374800 64941212 62477904 
1193.742 60049344 57707768 55492364 53428104 51530384 49804544 48248088 
1197.118 46851960 45602784 44485392 43482732 42578604 41759040 41010896 
1200.493 40323412 39687648 39095344 38540124 38017260 37524604 37062856 
1203.868 36635412 36247972 35906296 35615268 35377780 35193704 35061032 
1207.243 34975908 34934396 34932280 34964776 35027340 35113836 35218064 
1210.619 35334720 35460140 35594520 35740992 35906368 36098920 36327076 
1213.994 36598824 36920452 37296324 37729404 38220048 38766452 39363748 
1217.369 40004920 40681208 41383512 42104992 42841056 43590232 44353408 
1220.744 45132956 45932252 46755420 47608208 48497836 49432724 50421880 
1224.120 51472636 52588576 53768480 55005408 56287284 57596036 58910788 
1227.495 60206696 61454952 62628224 63700176 64650148 65467300 66151232 
1230.870 66713556 67174728 67565032 67922528 68288800 68714960 69256488 
1234.245 69969304 70912696 72139376 73691744 75601528 77885848 80548056 
1237.621 83578992 86958984 90657448 94628032 98813960 103142296 107526136 
1240.996 111878832 116112312 120144688 123908824 127344248 130398320 
1243.889 133026544 135187584 136845760 137972432 138542768 138536400 
1246.782 137938240 136739728 134944608 132572232 129660872 126260984 
1249.675 122428216 118217360 113671104 108823752 103705760 98350664 92804824 
1253.050 87133968 81415488 75742648 70215112 64922476 59948756 55359028 
1256.426 51191980 47465000 44170804 41283772 38763916 36564512 34638532 
1259.801 32937474 31419262 30048458 28794998 27637546 26561644 25557870 
1263.176 24620858 23747242 22934098 22178852 21478910 20832514 20238278 
1266.551 19694850 19200096 18750670 18341660 17967984 17625960 17313996 
1269.927 17033612 16788468 16583255 16422354 16308846 16245173 16233960 
1273.302 16278608 16384125 16555510 16796666 17107568 17483438 17913288 
1276.677 18378750 18857618 19320632 19734792 20068212 20290700 20380598 
1280.052 20330040 20146434 19851660 19476338 19056396 18623236 18199146 
1283.427 17796904 17420696 17069590 16742425 16439937 16165655 15924368 
1286.803 15719837 15553864 15426061 15335709 15282405 15267579 15292942 
1290.178 15359977 15467845 15613486 15791750 15997414 16225876 16473629 
1293.553 16736640 17009492 17283998 17550190 17798906 18024590 18227688 
1296.928 18415460 18601240 18800110 19027768 19298426 19623396 20012104 
1300.304 20470582 20999614 21591340 22225022 22868364 23475724 23995368 
1303.679 24380368 24590702 24603958 24416256 24042258 23510734 22859176 
1307.054 22132616 21374586 20625554 19921518 19288000 18740396 18283910 
1310.429 17914460 17622544 17396932 17228592 17111188 17041160 17015522 
1313.805 17030648 17081202 17161442 17266620 17393862 17542462 17711752 
1317.180 17899716 18101410 18309346 18515896 18715764 18908248 19096732 
1320.555 19287168 19484412 19690064 19900914 20110270 20311012 20497084 
1323.930 20666174 20819582 20961918 21100508 21244084 21404172 21593812 
1327.306 21825760 22110826 22454028 22851808 23290992 23752144 24214414 
1330.681 24659750 25077702 25466966 25832524 26182590 26524730 26863546 
1334.056 27200368 27534732 27866352 28195822 28524798 28854944 29187432 
1337.431 29522552 29861266 30205714 30560780 30932646 31326912 31747054 
1340.807 32192654 32660254 33144626 33641032 34146432 34658484 35175524 
1344.182 35695048 36214008 36730384 37243468 37755608 38268896 38782576 
1347.557 39286524 39759212 40164588 40455408 40584648 40508944 40200864 
1350.932 39654504 38887396 37938064 36859816 35718612 34580976 33508190 
1354.308 32555316 31761028 31147248 30717334 30457700 30342098 30337372 
1357.683 30412670 30541728 30705244 30891446 31092716 31305152 31529058 
1361.058 31770654 32044094 32369468 32770898 33267450 33864716 34551232 
1364.433 35298132 36063924 36796948 37444452 37955096 38279392 38380436 
1367.809 38237052 37848688 37237548 36444964 35525328 34531212 33511232 
1371.184 32503106 31530876 30613078 29765836 29007978 28364116 27860028 
1374.559 27514646 27333484 27306418 27412038 27625118 27927796 28314142 
1377.934 28792096 29380714 30107156 31005378 32111126 33463274 35098208 
1381.310 37036444 39266320 41722528 44285268 46769884 48950028 50602920 
1384.685 51512624 51518296 50545220 48632156 45950408 42774576 39450532 
1388.060 36289648 33508800 31218164 29423120 28067320 27065496 26333382 
1391.435 25796554 25393750 25080370 24822610 24597680 24394878 24213400 
1394.811 24059522 23941832 23865932 23831314 23832362 23859910 23905596 
1398.186 23964730 24037284 24128696 24246998 24400872 24595928 24833486 
1401.561 25110702 25421750 25759072 26114814 26483384 26861538 27248486 
1404.936 27644646 28049858 28462704 28880758 29302336 29728722 30164264 
1408.312 30615958 31091434 31596438 32133780 32703586 33305120 33937152 
1411.687 34598304 35283972 35981376 36669448 37318712 37896700 38380076 
1415.062 38760584 39051116 39281372 39494804 39740188 40060768 40491524 
1418.437 41050376 41732376 42509900 43336924 44162220 44935772 45619380 
1421.813 46192096 46652108 47023140 47353688 47714372 48175708 48788616 
1425.188 49570604 50502640 51542284 52639816 53756516 54866920 55959028 
1428.563 57030836 58085644 59131356 60181388 61261052 62405484 63651300 
1431.938 65031492 66561632 68239752 70047592 71963872 73976912 76087000 
1435.313 78309912 80665456 83164360 85789368 88499192 91243856 93975080 
1438.689 96652552 99232696 101663664 103867216 105740528 107176720 108064552 
1442.064 108310800 107855320 106671000 104772640 102216832 99108664 95588936 
1445.439 91813288 87953680 84168528 80597352 77362960 74549312 72191760 
1448.814 70267232 68704992 67407736 66282056 65272564 64371840 63620688 
1452.190 63081428 62813432 62840312 63140208 63646160 64262064 64888620 
1455.565 65431124 65834016 66102304 66313744 66587044 67030096 67718584 
1458.940 68681584 69920880 71425288 73171912 75123056 77215144 79366792 
1462.315 81464568 83364080 84917720 85984800 86480736 86412240 85888040 
1465.691 85084544 84178872 83321280 82606304 82077904 81751448 81619640 
1469.066 81658704 81822968 82043048 82225832 82253976 82019672 81456416 
1472.441 80573856 79460200 78249720 77071960 76010696 75109864 74390328 
1475.816 73866920 73561104 73493160 73668504 74067672 74643776 75335744 
1479.192 76075432 76808200 77504416 78160896 78800816 79463144 80194968 
1482.567 81039728 82036800 83228280 84659096 86378648 88431032 90837408 
1485.942 93574416 96550984 99613240 102529840 105012344 106763864 107491888 
1489.317 106978464 105142880 102071240 98014656 93310464 88312776 83294664 
1492.693 78416432 73757624 69330216 65126216 61161404 57485124 54187300 
1496.068 51379532 49153832 47554120 46564168 46128568 46172416 46624148 
1499.443 47426376 48528884 49884220 51445328 53157044 54958812 56789920 
1502.818 58572652 60214268 61599264 62560328 62887488 62347116 60748148 
1506.194 58063676 54512572 50517340 46505712 42754832 39353268 36267388 
1509.569 33427526 30781706 28310108 26027310 23963504 22141194 20568368 
1512.944 19232720 18108940 17167612 16381063 15725987 15178666 14716756 
1516.319 14321767 13982155 13698340 13479405 13335504 13268199 13266218 
1519.695 13304959 13356210 13399059 13434019 13485045 13588688 13771970 
1523.070 14038722 14372246 14746509 15140168 15543356 15962729 16415987 
1526.445 16924114 17498926 18138856 18831666 19562980 20323442 21112266 
1529.820 21936502 22806582 23730900 24714216 25755872 26851422 27994194 
1533.196 29176624 30390354 31623628 32864380 34097864 35309524 36480784 
1536.571 37590428 38618340 39539332 40330064 40969676 41443144 41741204 
1539.946 41861300 41813836 41619972 41310116 40915972 40458752 39941164 
1543.321 39347936 38657384 37854728 36949096 35976372 34990132 34038948 
1546.697 33143700 32295186 31459372 30597362 29684656 28728160 27766028 
1550.072 26855404 26043880 25349700 24759992 24242794 23766002 23312668 
1553.447 22888584 22516946 22223314 22018200 21888550 21797436 21694916 
1556.822 21519958 21206508 20698074 19967276 19051066 18054776 17109948 
1560.198 16307538 15671743 15178117 14781851 14437222 14103921 13752989 
1563.573 13370560 12961123 12545217 12152606 11810601 11531127 11308283 
1566.948 11121482 10946315 10761946 10559220 10343389 10131632 9944557 
1570.323 9797382 9695893 9638467 9619529 9633792 9675395 9737232 9807481 
1574.181 9870489 9909878 9914861 9888420 9849678 9827850 9845576 9910692 
1578.038 10015417 10144114 10281770 10418556 10552226 10685802 10823699 
1581.413 10968708 11119782 11272813 11423483 11568999 11708844 11842913 
1584.789 11969189 12081738 12172233 12232210 12257840 12253068 12230166 
1588.164 12206855 12201948 12232450 12309547 12440084 12627725 12873945 
1591.539 13177031 13528625 13911946 14298686 14651945 14935664 15118074 
1594.914 15182029 15128057 14973490 14748085 14484083 14214182 13965252 
1598.290 13757572 13608824 13532591 13539257 13635049 13820915 14093550 
1601.665 14447292 14876992 15378240 15945645 16570415 17235694 17914426 
1605.040 18573540 19173258 19673630 20041560 20251018 20289036 20155944 
1608.415 19864494 19436522 18898454 18281698 17619058 16943614 16289478 
1611.791 15684247 15146070 14680870 14282558 13935929 13620825 13317600 
1615.166 13010695 12692611 12368384 12055301 11778290 11560526 11416374 
1618.541 11348005 11347190 11398617 11483493 11584448 11686583 11782853 
1621.916 11875602 11976307 12100237 12259885 12460474 12697421 12961772 
1625.292 13244491 13540692 13848931 14168890 14498129 14829916 15154613 
1628.667 15463863 15754126 16028665 16295671 16563978 16838272 17116806 
1632.042 17390000 17643386 17860770 18025314 18123864 18148806 18102170 
1635.417 17997512 17858318 17712236 17579654 17470052 17380620 17300548 
1638.792 17214320 17105948 16964664 16786850 16579812 16357150 16136182 
1642.168 15929662 15741551 15565403 15386787 15187553 14949518 14661609 
1645.543 14323479 13948691 13563287 13199608 12888758 12650785 12493415 
1648.918 12412261 12394635 12421024 12464157 12490380 12456178 12316705 
1652.293 12046682 11668884 11262578 10920525 10698197 10592491 10567402 
1655.669 10580744 10601081 10611200 10604511 10582204 10549239 10509521 
1659.044 10464104 10410309 10343524 10258972 10153542 10026505 9880624 
1662.419 9721882 9559268 9403183 9264112 9149279 9061406 8997502 8948725 
1666.277 8902490 8843173 8755904 8630119 8462407 8259062 8034448 7808060 
1670.134 7597266 7414380 7264657 7146748 7054397 6976846 6900791 6810780 
1673.991 6692826 6540627 6360539 6173031 6003644 5873180 5788285 5741747 
1677.849 5718144 5701526 5682189 5659026 5639691 5635059 5653890 5695685 
1681.706 5749839 5795605 5809406 5772201 5681350 5556788 5435651 5352787 
1685.564 5322631 5341080 5393445 5465378 5545613 5627909 5709147 5787680 
1689.421 5862869 5935451 6008549 6087842 6179618 6288861 6415684 6554384 
1693.279 6692456 6814214 6904561 6955937 6974657 6982435 7007689 7068810 
1697.136 7167127 7285547 7397765 7471884 7479772 7408718 7271025 7106767 
1700.993 6962267 6868541 6828653 6825927 6836226 6837135 6811891 6750403 
1704.851 6651541 6522968 6378225 6231480 6093453 5969210 5858436 5757830 
1708.708 5663088 5571219 5481149 5394150 5312568 5239386 5176108 5122394 
1712.566 5075928 5033221 4991323 4948155 4902713 4854427 4801524 4740118 
1716.423 4666028 4577049 4476906 4376955 4293088 4238680 4220311 4235300 
1720.281 4274783 4326820 4380101 4427564 4466462 4499236 4530574 4566200 
1724.138 4609665 4661875 4720958 4784706 4850541 4916419 4980162 5039255 
1727.995 5090142 5130240 5158672 5177382 5190829 5203068 5214939 5220707 
1731.853 5207293 5155688 5047836 4875906 4653167 4414542 4204620 4054962 
1735.710 3972327 3943905 3946981 3959587 3963399 3948119 3911206 3858417 
1739.568 3799819 3746542 3706773 3683415 3675094 3678569 3690231 3706840 
1743.425 3726056 3746609 3767699 3789457 3812120 3835886 3860156 3883390 
1747.282 3902948 3915519 3918027 3907461 3882120 3841168 3785279 3717233 
1751.140 3642314 3568144 3503105 3453638 3422612 3408185 3403944 3400003 
1754.997 3386145 3354790 3303638 3238104 3169676 3111705 3072694 3054508 
1758.855 3051272 3052873 3047668 3027047 2987744 2932232 2868289 2804921 
1762.712 2750200 2708488 2680648 2664746 2657945 2656312 2655811 2652445 
1766.570 2643077 2627176 2607308 2589209 2578909 2579542 2589509 2601308 
1770.427 2604575 2588709 2548312 2486824 2417249 2355980 2316271 2302547 
1774.284 2310674 2331727 2356546 2380033 2401689 2423946 2449969 2480526 
1778.142 2512485 2540813 2559744 2566410 2562344 2552812 2544513 2541880 
1781.999 2545679 2552978 2559144 2560111 2555078 2545846 2536847 2532114 
1785.857 2534014 2542746 2557244 2576409 2600008 2628076 2660345 2693784 
1789.714 2723358 2741964 2742130 2720524 2678481 2623609 2566710 2518150 
1793.572 2484025 2464798 2457500 2457700 2462032 2468363 2475794 2483359 
1797.429 2489590 2492256 2489324 2479393 2463298 2443538 2423546 2406654 
1801.286 2394559 2387696 2385497 2387762 2394559 2406953 2425145 2448970 
1805.144 2476627 2505486 2532614 2556278 2575676 2591275 2603642 2613042 
1809.001 2618909 2620442 2617409 2610809 2602942 2597342 2596542 2602075 
1812.859 2613042 2627276 2642610 2657112 2670747 2684716 2700686 2720124 
1816.716 2743197 2769507 2797185 2825732 2854647 2884465 2916387 2951547 
1820.573 2990513 3033087 3078334 3124720 3169610 3210164 3243278 3266814 
1824.431 3280968 3288981 3296760 3310683 3335357 3371152 3413996 3455676 
1828.288 3486905 3501000 3496257 3478688 3459383 3451467 3463792 3498762 
1832.146 3551941 3615351 3680841 3742365 3797713 3848288 3897465 3948352 
1836.003 4003058 4062018 4124600 4190836 4261834 4339838 4428200 4529402 
1839.861 4644292 4771641 4908343 5049948 5191264 5327159 5453869 5569709 
1843.718 5676549 5779420 5884934 5998403 6121109 6249395 6375871 6490611 
1847.575 6583415 6647470 6679266 6679972 6653425 6604407 6536893 6452877 
1851.433 6352705 6236925 6107533 5968572 5825424 5683264 5545512 5412769 
1855.290 5283958 5157297 5032048 4909482 4792076 4682138 4580933 4487385 
1859.148 4399212 4314069 4230851 4150089 4073658 4003293 3939191 3880248 
1863.005 3824554 3770807 3719472 3672955 3634095 3604927 3584781 3570081 
1866.863 3555650 3536642 3511355 3482062 3454173 3433667 3424415 3426319 
1870.720 3435871 3448261 3459249 3466430 3469303 3468334 3463925 3455843 
1874.577 3443051 3424583 3400838 3372855 3342669 3311684 3279967 3246249 
1878.435 3208662 3165805 3118379 3068723 3020308 2975901 2936569 2900776 
1882.292 2866154 2830234 2792649 2755468 2722124 2696418 2680182 2672380 
1886.150 2669913 2668313 2664046 2654778 2640310 2621542 2600442 2579643 
1890.007 2561544 2549145 2545279 2551978 2569010 2594375 2623142 2649111 
1893.865 2667680 2676814 2678248 2676381 2676981 2683949 2698185 2717723 
1897.722 2738829 2758736 2776576 2793050 2809824 2827032 2842874 2854180 
1901.579 2857549 2852246 2840740 2828533 2821863 2825231 2839139 2860817 
1905.437 2885366 2907948 2925894 2939905 2951781 2963757 2975834 2987010 
1909.294 2994750 2997286 2995518 2991614 2988645 2988645 2991448 2995218 
1913.152 2997887 2998854 2999655 3003025 3011633 3025045 3039927 3050304 
1917.009 3050204 3037925 3015770 2991347 2972331 2964157 2966593 2974500 
1920.866 2979804 2975701 2959287 2932232 2900042 2868455 2842307 2822863 
1924.724 2809323 2801120 2798418 2803754 2819195 2845542 2879863 2916521 
1928.581 2948912 2972665 2986710 2993616 2997753 3002658 3008596 3012800 
1932.439 3011733 3003225 2988845 2974166 2965492 2967627 2981239 3002024 
1936.296 3023210 3038726 3046300 3046967 3045065 3043797 3043931 3043130 
1940.154 3037224 3022710 3000155 2973699 2950313 2936302 2933967 2941239 
1944.011 2953816 2968094 2983307 3003125 3032653 3075464 3131028 3192974 
1947.868 3252091 3299698 3330215 3344272 3347110 3347177 3351484 3364674 
1951.726 3387648 3417736 3451768 3485502 3515263 3536809 3546329 3539682 
1955.583 3515530 3475248 3423815 3369582 3321200 3285743 3266546 3263475 
1959.441 3273924 3294857 3324438 3360867 3401974 3443418 3479456 3504106 
1963.298 3514294 3510821 3499330 3486804 3478989 3476550 3476550 3471173 
1967.156 3456210 3432497 3407384 3391956 3396030 3422345 3466363 3516365 
1971.013 3559458 3587019 3597911 3598245 3597744 3603958 3621465 3649097 
1974.870 3685186 3729531 3785580 3859353 3955575 4071350 4195453 4309786 
1978.728 4396936 4443531 4446008 4409087 4343319 4260295 4168722 4075464 
1982.585 3984599 3901143 3830605 3779430 3751088 3744671 3754062 3769637 
1986.443 3781636 3785413 3781703 3777023 3778093 3789825 3810515 3834181 
1990.300 3852032 3857883 3851464 3837558 3825256 3822215 3832176 3853904 
1994.157 3882086 3910671 3935747 3956243 3972728 3986004 3996003 4000350 
1998.015 3996538 3984131 3965172 3944742 3928726 3921805 3923844 3931468 
2001.872 3938422 3938322 3927823 3906760 3878676 3849960 3826694 3814660 
2005.730 3818136 3840065 3880381 3936784 4003794 4072588 4133130 4178658 
2009.587 4204687 4213820 4211846 4207464 4207698 4216129 4230683 4248082 
2013.445 4264477 4278766 4292017 4307544 4327121 4351184 4377055 4401455 
2017.302 4422944 4443029 4465893 4495989 4534659 4578991 4621285 4653937 
2021.159 4670717 4670951 4660234 4647909 4642517 4649349 4668573 4696339 
2025.017 4727758 4759279 4789898 4819750 4849100 4876040 4895877 4904522 
2028.874 4900065 4884551 4864714 4849066 4844878 4856974 4885154 4926539 
2032.732 4977782 5037244 5104189 5178925 5258536 5337222 5407536 5461620 
2036.589 5495175 5509537 5510309 5505108 5500812 5500779 5504537 5509806 
2040.447 5514168 5517323 5521953 5531518 5548767 5574039 5604581 5635159 
2044.304 5662148 5682995 5698538 5711699 5727276 5748664 5779521 5821495 
2048.161 5874758 5936526 6000251 6057131 6095402 6104475 6079677 6023163 
2052.019 5946234 5865119 5799567 5764209 5765485 5799198 5853365 5911368 
2055.876 5959670 5990979 6005122 6008012 6006970 6007272 6012110 6021416 
2059.734 6034788 6051856 6073864 6101384 6133644 6166981 6195986 6214472 
2063.591 6218774 6208825 6188087 6161738 6134786 6109549 6085893 6062339 
2067.448 6037677 6012715 5990273 5973140 5962760 5957486 5952985 5944151 
2071.306 5927289 5902164 5871702 5841510 5816290 5798560 5787915 5781636 
2075.163 5776532 5771529 5766929 5765015 5768239 5777271 5790769 5806518 
2079.021 5821495 5834323 5845170 5855447 5865959 5877277 5887856 5896320 
2082.878 5901560 5903676 5904583 5906531 5911233 5919127 5929069 5939146 
2086.736 5947644 5954295 5959435 5963869 5968001 5970487 5968068 5958259 
2090.593 5938440 5909084 5872474 5833416 5796545 5766661 5747052 5739531 
2094.450 5744567 5761288 5788184 5821529 5856622 5889032 5914189 5930984 
2098.308 5940489 5947443 5957285 5974820 6002031 6038652 6081155 6126250 
2102.165 6171989 6218639 6268153 6322815 6382831 6446555 6510052 6569454 
2106.023 6622203 6668297 6709852 6750268 6791293 6833231 6873994 6911261 
2109.880 6942874 6969506 6993008 7017152 7044361 7075916 7110337 7145063 
2113.738 7177300 7205698 7230123 7251854 7272137 7291545 7309741 7326083 
2117.595 7340169 7352537 7364972 7379464 7398135 7421492 7449940 7482132 
2121.452 7517427 7555491 7596356 7640462 7687338 7735434 7782995 7827896 
2125.310 7868720 7905768 7940085 7972921 8005488 8037486 8068438 8097907 
2129.167 8126130 8154320 8184843 8219182 8258759 8303642 8352717 8404975 
2133.025 8460076 8518901 8581789 8649724 8721285 8793197 8861873 8923222 
2136.882 8975413 9017900 9052576 9080996 9105086 9125795 9143594 9159228 
2140.740 9174016 9189515 9206573 9223969 9238319 9244209 9236627 9211717 
2144.597 9169820 9113986 9049464 8981569 8914294 8846961 8778050 8705802 
2148.454 8629105 8550057 8471664 8396327 8325055 8256125 8185551 8108845 
2152.312 8023984 7929692 7827356 7717929 7601616 7477783 7347819 7217085 
2156.169 7098313 7009575 6973244 7006343 7116164 7291916 7508056 7732027 
2160.027 7930704 8080927 8172113 8205405 8189670 8138014 8064692 7981796 
2163.884 7899727 7826850 7767815 7723663 7691082 7663664 7633010 7592512 
2167.741 7538532 7471918 7396922 7318670 7240567 7164297 7087704 7008531 
2171.599 6926276 6842723 6762720 6693095 6638992 6602724 6583381 6575879 
2175.456 6573525 6569993 6559463 6538036 6503863 6457013 6399005 6334616 
2179.314 6270338 6214102 6173165 6151387 6147959 6157437 6170645 6179148 
2183.171 6177064 6163889 6142213 6118353 6098157 6085019 6079206 6078837 
2187.029 6080954 6083239 6084414 6084851 6084583 6084448 6083877 6083373 
2190.886 6083239 6084851 6090060 6100678 6116102 6134517 6152127 6164763 
2194.743 6168762 6163217 6147422 6124099 6095940 6066740 6039088 6015906 
2198.601 5998403 5987888 5984596 5988023 5996488 6008482 6021853 6035527 
2202.458 6048933 6061969 6074301 6085758 6094495 6098762 6097788 6092412 
2206.316 6084381 6077392 6074603 6077963 6087438 6101283 6116236 6129846 
2210.173 6140902 6149741 6158344 6169267 6185163 6207178 6235345 6268724 
2214.031 6304863 6341105 6374156 6400350 6417129 6423351 6419887 6410068 
2217.888 6398299 6388917 6385219 6387236 6392650 6398030 6399543 6395239 
2221.745 6385555 6372139 6357983 6344669 6333070 6321740 6309838 6296088 
2225.603 6280692 6266001 6254438 6247211 6245463 6248421 6254034 6260455 
2229.460 6266136 6269565 6270540 6268758 6264220 6257598 6250169 6243849 
2233.318 6241059 6243547 6252387 6266808 6285701 6306913 6329977 6355058 
2237.175 6383504 6416793 6455466 6497271 6538642 6575105 6602792 6620622 
2241.032 6629874 6633474 6635459 6638723 6644476 6652416 6661837 6672065 
2244.890 6684179 6699690 6720621 6747542 6779850 6814584 6848008 6876486 
2248.747 6897054 6907995 6909274 6901565 6886281 6866420 6845854 6829259 
2252.605 6821820 6828115 6849825 6886147 6932504 6982099 7027792 7063186 
2256.462 7084909 7092251 7086458 7070528 7047291 7019239 6988227 6955634 
2260.320 6923549 6893216 6866454 6844137 6826970 6815055 6809030 6808929 
2264.177 6815627 6829663 6850600 6876957 6906043 6934524 6958530 6976307 
2268.034 6986173 6989069 6986409 6980617 6973681 6967318 6963142 6961459 
2271.892 6963041 6967654 6974018 6981425 6988362 6994389 6999642 7005703 
2275.749 7013717 7025166 7040051 7057326 7074805 7090062 7101816 7109933 
2279.607 7115456 7120643 7127144 7136777 7149375 7164668 7181409 7198860 
2283.464 7216142 7232515 7246766 7257312 7262871 7262231 7255189 7243431 
2287.322 7228438 7212874 7198422 7185890 7174672 7163826 7151800 7138158 
2291.179 7123001 7107407 7092722 7080025 7070124 7063355 7059785 7059381 
2295.036 7061704 7066823 7073188 7079284 7083426 7084168 7081035 7074771 
2298.894 7066857 7059280 7053521 7050086 7048469 7047190 7044866 7040253 
2302.751 7033282 7024223 7014188 7003716 6993379 6983917 6975466 6968563 
2306.609 6963917 6961594 6961459 6962873 6964557 6966071 6966779 6967284 
2310.466 6968664 6971964 6977654 6985365 6993513 7000517 7004928 7006242 
2314.323 7004895 7001898 6998295 6994221 6989170 6981627 6970213 6954523 
2318.181 6934726 6912540 6890456 6870998 6856625 6848748 6847637 6851946 
2322.038 6859183 6865175 6864636 6852956 6825927 6782071 6722438 6651138 
2325.896 6573962 6497473 6427958 6368978 6322277 6287314 6262135 6244824 
2329.753 6233799 6228051 6227043 6230404 6237060 6245665 6255076 6264153 
2333.611 6272691 6281095 6289936 6299585 6310242 6321470 6332969 6344535 
2337.468 6356471 6369113 6383067 6398198 6414305 6431085 6448303 6466027 
2341.325 6484995 6505175 6526298 6547455 6567940 6587418 6607401 6632094 
2345.183 6666648 6716583 6785639 6874196 6978732 7092116 7206103 7312032 
2349.040 7401977 7470839 7515000 7533812 7528182 7501280 7457929 7403089 
2352.898 7342394 7281032 7222778 7170798 7126908 7092116 7066823 7051096 
2356.755 7045068 7048402 7060728 7081170 7108013 7139169 7172146 7204721 
2360.613 7235042 7262568 7287029 7310111 7333497 7359614 7390586 7427863 
2364.470 7471412 7520664 7573327 7627243 7680121 7730712 7778273 7823342 
2368.327 7867067 7910458 7954495 7999819 8047139 8096827 8149594 8206317 
2372.185 8266999 8332113 8400583 8471732 8544650 8619034 8695255 8774634 
2376.042 8858052 8946492 9040025 9138010 9238997 9342105 9446017 9550801 
2379.900 9656490 9763629 9871980 9981444 10090562 10198147 10302603 10402537 
2383.757 10496452 10583494 10662540 10733008 10794622 10847853 10893819 
2387.132 10934456 10971257 11005715 11038342 11068999 11096735 11120836 
2390.508 11140756 11156531 11168770 11178561 11186584 11193282 11198858 
2393.883 11203414 11206984 11210282 11214226 11220006 11228778 11241224 
2397.258 11257987 11279240 11305120 11335625 11370895 11410761 11455018 
2400.633 11503465 11555626 11611094 11669667 11730903 11794735 11860858 
2404.009 11929341 12000423 12075094 12154616 12240697 12334533 12436640 
2407.384 12546138 12661122 12779071 12897290 13014382 13130276 13245926 
2410.759 13362838 13482311 13604483 13728365 13851769 13971993 14086739 
2414.134 14194189 14293104 14382659 14462536 14532150 14591289 14640224 
2417.510 14680013 14711889 14738281 14760802 14781405 14801049 14820248 
2420.885 14839035 14857688 14876066 14894445 14913374 14933161 14954423 
2424.260 14978361 15006005 15039105 15079102 15127921 15186317 15254812 
2427.635 15333374 15422044 15520382 15628496 15746430 15873948 16010547 
2431.010 16155338 16307265 16465748 16630486 16802038 16981272 17168474 
2434.386 17363618 17565854 17773500 17985424 18200390 18418158 18639146 
2437.761 18863848 19092786 19326172 19563742 19805292 20051070 20301464 
2441.136 20557460 20818750 21084612 21352868 21621218 21887402 22149946 
2444.511 22409266 22666820 22924422 23183926 23446030 23710044 23974534 
2447.887 24237678 24497652 24753538 25004728 25250624 25490542 25723668 
2451.262 25948688 26164994 26372428 26571682 26763910 26950582 27132504 
2454.637 27309914 27482030 27647716 27804884 27951436 28085276 28203954 
2458.012 28306078 28390080 28454780 28500100 28526036 28533220 28522464 
2461.388 28494440 28450110 28390186 28315910 28228706 28130594 28024942 
2464.763 27915324 27806404 27703584 27611946 27536746 27482700 27452628 
2468.138 27448498 27470946 27519554 27593374 27691648 27813574 27958538 
2471.513 28125962 28314142 28520978 28743132 28976772 29218582 29465208 
2474.889 29714884 29965980 30217364 30467152 30713032 30951682 31179144 
2478.264 31391234 31584784 31756394 31903322 32023836 32116442 32180526 
2481.639 32216672 32226484 32212782 32178846 32128182 32064072 31988702 
2485.014 31904038 31811296 31712052 31607308 31498666 31386816 31272176 
2488.390 31154048 31031322 30902334 30765560 30619796 30464096 30297508 
2491.765 30119408 29928954 29725138 29507372 29275114 29028488 28768304 
2495.140 28495112 28209540 27911932 27602874 27282426 26951322 26610818 
2498.515 26262626 25908452 25550420 25189662 24827064 24463366 24099170 
2501.891 23735030 23372490 23012804 22658302 22310506 21971494 21642602 
2505.266 21325130 21019958 20727858 20449466 20184650 19933280 19694504 
2508.641 19467154 19250384 19043102 18845194 18656960 18479106 18312560 
2512.016 18158168 18016576 17888152 17772638 17669924 17579378 17500824 
2515.392 17433594 17377068 17330374 17292652 17263172 17241142 17225974 
2518.767 17217630 17216148 17222180 17236384 17259554 17291996 17334030 
2522.142 17384722 17442630 17505928 17572340 17639902 17707438 17773880 
2525.517 17838226 17900234 17958696 18012364 18059474 18098334 18127698 
2528.893 18146838 18155438 18153608 18141516 18119234 18087246 18045934 
2532.268 17996338 17940254 17879310 17816030 17751858 17688524 17626684 
2535.643 17566958 17509690 17454944 17402692 17352962 17305410 17259484 
2539.018 17214494 17170094 17125836 17082272 17040022 16999912 16962632 
2542.394 16928490 16897002 16867790 16840064 16813266 16787092 16761262 
2545.769 16735882 16710779 16686056 16661713 16637819 16614409 16591448 
2549.144 16568899 16546458 16524153 16501987 16480375 16460344 16442759 
2552.519 16428238 16416710 16407110 16397854 16387016 16373390 16356634 
2555.895 16338054 16319580 16303308 16290648 16281188 16273379 16264470 
2559.270 16251398 16231930 16204828 16170504 16130611 16087595 16043173 
2562.645 15999477 15957676 15918078 15880547 15845012 15810408 15776459 
2566.020 15742615 15708981 15676243 15645534 15618363 15596313 15580720 
2569.396 15572203 15570761 15576188 15587246 15602907 15622142 15644159 
2572.771 15668204 15693694 15720455 15748182 15777146 15807590 15839754 
2576.146 15873984 15910173 15948016 15987273 16027426 16068237 16109945 
2579.521 16152656 16196402 16241424 16287519 16334614 16382542 16431335 
2582.896 16481131 16532242 16584873 16639335 16695388 16753202 16813232 
2586.272 16875748 16941926 17012178 17087062 17166164 17248348 17332100 
2589.647 17415694 17497892 17577758 17655188 17730146 17802842 17873268 
2593.022 17941326 18006802 18069732 18130048 18188090 18244308 18299012 
2596.397 18352376 18404536 18455838 18506526 18556974 18608018 18660452 
2599.773 18715002 18772120 18832254 18895202 18961166 19029602 19100228 
2603.148 19172598 19246470 19321912 19399758 19480980 19566654 19658134 
2606.523 19756014 19859742 19968560 20080878 20195512 20311568 20429008 
2609.898 20548114 20669338 20792260 20916264 21039608 21161072 21279160 
2613.274 21393590 21504778 21613488 21720414 21825588 21928592 22028518 
2616.649 22124422 22215922 22303182 22386868 22467428 22545178 22619520 
2620.024 22689266 22753578 22811576 22863508 22910242 22953136 22993798 
2623.399 23033278 23072166 23111162 23149988 23188644 23227160 23265646 
2626.775 23303858 23341932 23379520 23416376 23452500 23487894 23522800 
2630.150 23557744 23592552 23627502 23662352 23696958 23731214 23765232 
2633.525 23798866 23831944 23863902 23893834 23920930 23944666 23965010 
2636.900 23982972 23999606 24016832 24036128 24058542 24084318 24113110 
2640.276 24144212 24176650 24210000 24244160 24279302 24315990 24354820 
2643.651 24396454 24441390 24489800 24541896 24597716 24656944 24719444 
2647.026 24784686 24852748 24923168 24995532 25069524 25144616 25220282 
2650.401 25296208 25371796 25447150 25522658 25598566 25675894 25755414 
2653.777 25837590 25922836 26011304 26102708 26196878 26293250 26391580 
2657.152 26491378 26592642 26695444 26800104 26906974 27016198 27127670 
2660.527 27240972 27355008 27468546 27580418 27690024 27797112 27902284 
2663.902 28006458 28110728 28216012 28322878 28431536 28541570 28652656 
2667.278 28764232 28875944 28987646 29099414 29211424 29324278 29438580 
2670.653 29554966 29673976 29795644 29920152 30046930 30175628 30305964 
2674.028 30437868 30571446 30706664 30843670 30982106 31121546 31261458 
2677.403 31401456 31541530 31682290 31824700 31969298 32117012 32267314 
2680.779 32420054 32574564 32730668 32888648 33049438 33214368 33384834 
2684.154 33561844 33745984 33937472 34136148 34341508 34553280 34770788 
2687.529 34993436 35220400 35450940 35684220 35920112 36159052 36401904 
2690.904 36649512 36902560 37161092 37424948 37693228 37965688 38241760 
2694.280 38521768 38806304 39095452 39389688 39688956 39993224 40302284 
2697.655 40616624 40936760 41263036 41595612 41933696 42275584 42619096 
2701.030 42962260 43303428 43641780 43977024 44309888 44640432 44968768 
2704.405 45294340 45616068 45932876 46243028 46545100 46837420 47118300 
2707.781 47386280 47640120 47879304 48104224 48315928 48516028 48706100 
2711.156 48887168 49060264 49225264 49382236 49530720 49670524 49801272 
2714.531 49922540 50033288 50132456 50218332 50289644 50345188 50384556 
2717.906 50408000 50416556 50411532 50394640 50368256 50334472 50296264 
2721.281 50256388 50218260 50184896 50159676 50145028 50143536 50157224 
2724.657 50187424 50234808 50299796 50381728 50480084 50593724 50721992 
2728.032 50864008 51019264 51187316 51367152 51557956 51758132 51965984 
2731.407 52179696 52397844 52619128 52842404 53066464 53290304 53512684 
2734.782 53732180 53947808 54158476 54363124 54561300 54751816 54933772 
2738.158 55106132 55268104 55420120 55563380 55699868 55832368 55963548 
2741.533 56095600 56230220 56368500 56511432 56660224 56816732 56982704 
2744.908 57160000 57349772 57552000 57765632 57988840 58219024 58453344 
2748.283 58688432 58920692 59145940 59360096 59558468 59737696 59894860 
2751.659 60028648 60139144 60226908 60292988 60338408 60363728 60369324 
2755.034 60355428 60322456 60270416 60199352 60108280 59995508 59858844 
2758.409 59695456 59502984 59279532 59024608 58738388 58422260 58078372 
2761.784 57709472 57318504 56909152 56485428 56051304 55611020 55169108 
2765.160 54729492 54296624 53874804 53468572 53082152 52719456 52383900 
2768.535 52077404 51801176 51555192 51339144 51152164 50993776 50863188 
2771.910 50759716 50681928 50627568 50593948 50577196 50573248 50578088 
2775.285 50588144 50600088 50610704 50617104 50616360 50605300 50581180 
2778.661 50540940 50482576 50404388 50305564 50186048 50047228 49891020 
2782.036 49720568 49540152 49353948 49166372 48981184 48800852 48627044 
2785.411 48459568 48297340 48138572 47980908 47821780 47658828 47489692 
2788.786 47312304 47125060 46927000 46717452 46496788 46266100 46026844 
2792.162 45781680 45533376 45285480 45041872 44806336 44582640 44374104 
2795.537 44183312 44012336 43862608 43734956 43630020 43548112 43489544 
2798.912 43454020 43441424 43450836 43481120 43531300 43599908 43685820 
2802.287 43788020 43905532 44036828 44180380 44334140 44495740 44662576 
2805.663 44832308 45002836 45172040 45338768 45501292 45658576 45808928 
2809.038 45950152 46080004 46195304 46292936 46369800 46422816 46449696 
2812.413 46449216 46420788 46365080 46283240 46177244 46049240 45901612 
2815.788 45738052 45561896 45378384 45193256 45012908 44844356 44694672 
2819.164 44570044 44475956 44416384 44393992 44409560 44462152 44549560 
2822.539 44668232 44813500 44980348 45163584 45358224 45559728 45763456 
2825.914 45965256 46161068 46346128 46515888 46665832 46791916 46891268 
2829.289 46962032 47004528 47019892 47011360 46982784 46938372 46882372 
2832.665 46818632 46749884 46678892 46607696 46537908 46471492 46410056 
2836.040 46355568 46309524 46273324 46248192 46235660 46237204 46254972 
2839.415 46292308 46352876 46441252 46562804 46723244 46929108 47188176 
2842.790 47509024 47902132 48380036 48955256 49641996 50453136 51397400 
2846.166 52477928 53687860 55008828 56405964 57830280 59220476 60502684 
2849.541 61603880 62456444 63004500 63215168 63078476 62609924 61844084 
2852.916 60832604 59638020 58322088 56947380 55570196 54234676 52976652 
2856.291 51819656 50775696 49847392 49029404 48311892 47680536 47120920 
2859.667 46619388 46162504 45738680 45338656 44953780 44577168 44203892 
2863.042 43830244 43454092 43075012 42694068 42314008 41938880 41574608 
2866.417 41227840 40906472 40618700 40371440 40170404 40018656 39916792 
2869.792 39862020 39849560 39872516 39922128 39989080 40063964 40137588 
2873.167 40202316 40252772 40285744 40300576 40299232 40284468 40260004 
2876.543 40229468 40195848 40161028 40126320 40092560 40060332 40029808 
2879.918 40001072 39974296 39949048 39925328 39903388 39883736 39867392 
2883.293 39855664 39849888 39851304 39860564 39878472 39905132 39941204 
2886.668 39987160 40043616 40111348 40190504 40281160 40382600 40494252 
2890.044 40615424 40746132 40887104 41039520 41205436 41386940 41586460 
2893.419 41806248 42048228 42314412 42606344 42925248 43271504 43644160 
2896.794 44040496 44455108 44879256 45302172 45710808 46091056 46430928 
2900.169 46721032 46956716 47138540 47272440 47368136 47437836 47494828 
2903.545 47551828 47620040 47709492 47828660 47984276 48182480 48427744 
2906.920 48724260 49075512 49484780 49956144 50494152 51103672 51789864 
2910.295 52556748 53406820 54339240 55349356 56428376 57562252 58731332 
2913.670 59912168 61075360 62188024 63218264 64134420 64911396 65534072 
2917.046 65997184 66306256 66475356 66523784 66470684 66331268 66115500 
2920.421 65824956 65455012 64996356 64439052 63775612 63003928 62129604 
2923.796 61166476 60136140 59063780 57978240 56906960 55872872 54894704 
2927.171 53984724 53148728 52387716 51698264 51074380 50507848 49990680 
2930.547 49515380 49076108 48668888 48292376 47946900 47633868 47354944 
2933.922 47111984 46905076 46733536 46595376 46487496 46405636 46344692 
2937.297 46298576 46260424 46223308 46181336 46129488 46065712 45990004 
2940.672 45905440 45816360 45727888 45645108 45571504 45508616 45455856 
2944.048 45410384 45367532 45320896 45264296 45191120 45095940 44976452 
2947.423 44832748 44669076 44492144 44311720 44138560 43982524 43852344 
2950.798 43753536 43688604 43656436 43653320 43673764 43711068 43758412 
2954.173 43810008 43860336 43905608 43942744 43969508 43984504 43987068 
2957.549 43977132 43955612 43924376 43886032 43843216 43798868 43755512 
2960.924 43714544 43677320 43644272 43615988 43592944 43575472 43564228 
2964.299 43559064 43559976 43566788 43579280 43597304 43621044 43650720 
2967.674 43685820 43725796 43769480 43815288 43862500 43910812 43961368 
2971.050 44016332 44078160 44148868 44229316 44319024 44415908 44517104 
2974.425 44619212 44719540 44815300 44904316 44984388 45052748 45106344 
2977.800 45141784 45155420 45144540 45107372 45043192 44953296 44840352 
2981.175 44708852 44563988 44411504 44257528 44106436 43960968 43821628 
2984.551 43686700 43552508 43414180 43267000 43106628 42930292 42736588 
2987.926 42525868 42299548 42058848 41805224 41538584 41257684 40959260 
2991.301 40640308 40297704 39930196 39539548 39130656 38711280 38290248 
2994.676 37875908 37474324 37087720 36714912 36351432 35992032 35631240 
2998.052 35265428 34893172 34514712 34131772 33746736 33361826 32979082 
3001.427 32600138 32226592 31860034 31501946 31153086 30814288 30485456 
3004.802 30166502 29857006 29557166 29266926 28986620 28716582 28456512 
3008.177 28205900 27963698 27728660 27499714 27275934 27056714 26841552 
3011.552 26630266 26422180 26217010 26014260 25813642 25615648 25420870 
3014.928 25230254 25044916 24866044 24694330 24530396 24374376 24225802 
3018.303 24084248 23948414 23817348 23689748 23564636 23441694 23320848 
3021.678 23202554 23087576 22976750 22870738 22770268 22676210 22589852 
3025.053 22512792 22447296 22395660 22359760 22340714 22337854 22348878 
3028.429 22369738 22394892 22417778 22431456 22429814 22407696 22361680 
3031.804 22290416 22194508 22076310 21939186 21787436 21625120 21456074 
3035.179 21283578 21110040 20937404 20767270 20600748 20438732 20281848 
3038.554 20130572 19984936 19844760 19709690 19579098 19452080 19328286 
3041.930 19207646 19090568 18978024 18871044 18770356 18676398 18588480 
3045.305 18505418 18425590 18347710 18271192 18196174 18124036 18056194 
3048.680 17993680 17936700 17884180 17834428 17785478 17735876 17685144 
3052.055 17633552 17581966 17531216 17481332 17432214 17383138 17333546 
3055.431 17283894 17235212 17188984 17146688 17109154 17076310 17047500 
3058.806 17021654 16997912 16976552 16958186 16943750 16934036 16929144 
3062.181 16928592 16931452 16937104 16945612 16957464 16973934 16995674 
3065.556 17022620 17053428 17086166 17118012 17146620 17170334 17188674 
3068.932 17201704 17210114 17214320 17214390 17209944 17200496 17185432 
3072.307 17164474 17137898 17106328 17070728 17032888 16994226 16956224 
3075.682 16920290 16887390 16857388 16829764 16802934 16775381 16745524 
3079.057 16712742 16677173 16639782 16602015 16565321 16530383 16497582 
3082.433 16466368 16435981 16405631 16374800 16343972 16313663 16285179 
3085.808 16260171 16239773 16224775 16215455 16211534 16211603 16214492 
3089.183 16218448 16222198 16225258 16227355 16229317 16232068 16236642 
3092.558 16243590 16253291 16265640 16280191 16296977 16315658 16336542 
3095.934 16359696 16385363 16413407 16443793 16475935 16509147 16542843 
3099.309 16576232 16608488 16639335 16668392 16696213 16723279 16750654 
3102.684 16779032 16809200 16840958 16873820 16906958 16939444 16971314 
3106.059 17002738 17034404 17067178 17101364 17136864 17172712 17208012 
3109.435 17241934 17274034 17304962 17335652 17367514 17401312 17437182 
3112.810 17474848 17513380 17551984 17590076 17627270 17663574 17699016 
3116.185 17733564 17766838 17798732 17828974 17857698 17885078 17911354 
3119.560 17936560 17960560 17982698 18002692 18020168 18035572 18049872 
3122.936 18064206 18079888 18097712 18117990 18140412 18164456 18189334 
3126.311 18214486 18239710 18264902 18290234 18315704 18341316 18367136 
3129.686 18392886 18419022 18445710 18473402 18502826 18534188 18567522 
3133.061 18602970 18640012 18677990 18716386 18754752 18792706 18830110 
3136.437 18867168 18904338 18941784 18979824 19018316 19057158 19096212 
3139.812 19135372 19174850 19214952 19256376 19299396 19344188 19390196 
3143.187 19436972 19483198 19528252 19571610 19613380 19654216 19695300 
3146.562 19737462 19781536 19827696 19875904 19925578 19976610 20028584 
3149.938 20081398 20135154 20189542 20244286 20298826 20352470 20404456 
3153.313 20454710 20503580 20551970 20601130 20652172 20705824 20761918 
3156.688 20819790 20878020 20935214 20989980 21041798 21091188 21139190 
3160.063 21187790 21238240 21292210 21349980 21411516 21475952 21542172 
3163.438 21609064 21675758 21741592 21806252 21869734 21932320 21994184 
3166.814 22055568 22116752 22178120 22239634 22301438 22363320 22424860 
3170.189 22485784 22545526 22603986 22661024 22716430 22770162 22822158 
3173.564 22872344 22920300 22965954 23009066 23049734 23088170 23124828 
3176.939 23160088 23195214 23231076 23268514 23308472 23351546 23397982 
3180.315 23447638 23500170 23554876 23611480 23669070 23727296 23785636 
3183.690 23843494 23900238 23955522 24009304 24062254 24114930 24168662 
3187.065 24224120 24281756 24341432 24402342 24463788 24524820 24585442 
3190.440 24645932 24707342 24770338 24835626 24903096 24972054 25041652 
3193.816 25110772 25178988 25246478 25313628 25381210 25449784 25519390 
3197.191 25590026 25661164 25732034 25802178 25871312 25939158 26006026 
3200.566 26072028 26137122 26201912 26266602 26331552 26397250 26464400 
3203.941 26533466 26605042 26679660 26757532 26838272 26920934 27004034 
3207.317 27085772 27164354 27238432 27307760 27372936 27435544 27497314 
3210.692 27559868 27624058 27690588 27758858 27828588 27899494 27971648 
3214.067 28045406 28120908 28198050 28275772 28352764 28427504 28499146 
3217.442 28567118 28631846 28694848 28757258 28820564 28885540 28952512 
3220.818 29021440 29092046 29164008 29237188 29311338 29386458 29462230 
3224.193 29538156 29613918 29688772 29762572 29834824 29905526 29974358 
3227.568 30041676 30107476 30172114 30235942 30299000 30361038 30421590 
3230.943 30480340 30536822 30591426 30644650 30697562 30751120 30806356 
3234.319 30863234 30921618 30980434 31038938 31096452 31152944 31208800 
3237.694 31264878 31321746 31379800 31438962 31498666 31558204 31616856 
3241.069 31673842 31728874 31781632 31832118 31881000 31929356 31978466 
3244.444 32029756 32084584 32143738 32207038 32273736 32342374 32411378 
3247.820 32480002 32547708 32614820 32681796 32749068 32816670 32884430 
3251.195 32951914 33018694 33084660 33149884 33214654 33279400 33344186 
3254.570 33409346 33474762 33540368 33606272 33672720 33739576 33807116 
3257.945 33875032 33943136 34011392 34080196 34150088 34221820 34296004 
3261.321 34372776 34451432 34531104 34610436 34688380 34764252 34838456 
3264.696 34911560 34984816 35059740 35137692 35219576 35305896 35396580 
3268.071 35490740 35587256 35684436 35780600 35874192 35964748 36052620 
3271.446 36139140 36226360 36315912 36409184 36506844 36608700 36714084 
3274.822 36822304 36932752 37045068 37159360 37275420 37392844 37511492 
3278.197 37630932 37751056 37872080 37994728 38119724 38247980 38379820 
3281.572 38515536 38654812 38797428 38943172 39092044 39243868 39398868 
3284.947 39556864 39717856 39881816 40049248 40220420 40395948 40576132 
3288.323 40761048 40950672 41144232 41341164 41540700 41742368 41945884 
3291.698 42151284 42358644 42568112 42779984 42994632 43212828 43435380 
3295.073 43663248 43897028 44136692 44382252 44633092 44888336 45147440 
3298.448 45409980 45675508 45943928 46214724 46488084 46763980 47042928 
3301.823 47326088 47614828 47910824 48215540 48529588 48852868 49183848 
3305.199 49521064 49862552 50206804 50553036 50901072 51251668 51605900 
3308.574 51965428 52331528 52705316 53087092 53476480 53872704 54274284 
3311.949 54680148 55089468 55501816 55917568 56337116 56760764 57188800 
3315.324 57620928 58056476 58495232 58936896 59381824 59830208 60282140 
3318.700 60736984 61194212 61652568 62111412 62570356 63029476 63489244 
3322.075 63949300 64409076 64867036 65321544 65771132 66214672 66652356 
3325.450 67084812 67512424 67935736 68353872 68765312 69167968 69559992 
3328.825 69939760 70306224 70658496 70995840 71317512 71622776 71911048 
3332.201 72182056 72435584 72671160 72887584 73082792 73254784 73401696 
3335.576 73522512 73618176 73690840 73743136 73777224 73793632 73791352 
3338.951 73767952 73720368 73646048 73543632 73412920 73254080 73067776 
3342.326 72854008 72612416 72342536 72043888 71716528 71360424 70975824 
3345.702 70562448 70120328 69649752 69152080 68629392 68084928 67522416 
3349.077 66944888 66354164 65750824 65134644 64505740 63864620 63213556 
3352.452 62555468 61893600 61230872 60568964 59908664 59250252 58593968 
3355.827 57941096 57293248 56652636 56021260 55400208 54789668 54189444 
3359.203 53599044 53018732 52449248 51892348 51349400 50821320 50308244 
3362.578 49809480 49323692 48849532 48386300 47933764 47492204 47061908 
3365.953 46643144 46235768 45839376 45453280 45077080 44711164 44355792 
3369.328 44011600 43678856 43357424 43046148 42743680 42448296 42158188 
3372.704 41871556 41586788 41302320 41016944 40729532 40439732 40147508 
3376.079 39853884 39560420 39269256 38982028 38699872 38422824 38149752 
3379.454 37879092 37608316 37336184 37061596 36784400 36504572 36222728 
3382.829 35938720 35652640 35364052 35072924 34779652 34485508 34191812 
3386.205 33900248 33612216 33327982 33047616 32770756 32496930 32226022 
3389.580 31957816 31692590 31429950 31169496 30910196 30651440 30392592 
3392.955 30133898 29875710 29618812 29363806 29110788 28858626 28606896 
3396.330 28354638 28102172 27850844 27602908 27360724 27126790 26901826 
3399.706 26685544 26476340 26271460 26068402 25864666 25658810 25450346 
3403.081 25239596 25027964 24816610 24607216 24401116 24199000 24001706 
3406.456 23809332 23621452 23437252 23255930 23076534 22898260 22720758 
3409.831 22543956 22368064 22193916 22021930 21852974 21687324 21525146 
3413.207 21365954 21209152 21054666 20901696 20750310 20600470 20452452 
3416.582 20306014 20161150 20017690 19875316 19733822 19593344 19454194 
3419.957 19316612 19180806 19047050 18914926 18784470 18655714 18529310 
3423.332 18406092 18287158 18173474 18065000 17961146 17860322 17761178 
3426.708 17662262 17562612 17462396 17361928 17262346 17164268 17068074 
3430.083 16974174 16882362 16792706 16704960 16619401 16535820 16453806 
3433.458 16372494 16290888 16207853 16122840 16035609 15946744 15857039 
3436.833 15767526 15679231 15592879 15508603 15425958 15344633 15263392 
3440.208 15181617 15098793 15014957 14930725 14847024 14765328 14686354 
3443.584 14610067 14535473 14460446 14382967 14301426 14215689 14127265 
3446.959 14038722 13953208 13872842 13798477 13728981 13662129 13595047 
3450.334 13525925 13454149 13380162 13305643 13232399 13161217 13092130 
3453.709 13024284 12956617 12888040 12818417 12747815 12676780 12605451 
3457.085 12533826 12461463 12387441 12311456 12233574 12154173 12074719 
3460.460 11996233 11919838 11845808 11774206 11704352 11635394 11566583 
3463.835 11497613 11428008 11358005 11287980 11218647 11150683 11084940 
3467.210 11021689 10960994 10902246 10844626 10786911 10728084 10667090 
3470.586 10603560 10537085 10468041 10396903 10324759 10252594 10181627 
3473.961 10113284 10048240 9987208 9929743 9875472 9823139 9771525 9719747 
3477.818 9667162 9613195 9557677 9500640 9442089 9382461 9322064 9261438 
3481.676 9201259 9142173 9084515 9028286 8973552 8920111 8867792 8816629 
3485.533 8766756 8718040 8670579 8623901 8577936 8531707 8485213 8438149 
3489.391 8390888 8343834 8297427 8252072 8208748 8167825 8130586 8097165 
3493.248 8068607 8044169 8023107 8003565 7983552 7961346 7935834 7906780 
3497.105 7874793 7841054 7806710 7772403 7738436 7704944 7672162 7640260 
3500.963 7610113 7582363 7557278 7535127 7515708 7498819 7484930 7474311 
3504.820 7468008 7466187 7468750 7474176 7480649 7486110 7488840 7488469 
3508.678 7486346 7483918 7483615 7486481 7492481 7500639 7509438 7517664 
3512.535 7525451 7533846 7544365 7558862 7577845 7600537 7624748 7647611 
3516.393 7666294 7678772 7684303 7683865 7679109 7672027 7664102 7656211 
3520.250 7648185 7639417 7628659 7615104 7598278 7578350 7555996 7532093 
3524.107 7507348 7481357 7452873 7419874 7380172 7332284 7275237 7210179 
3527.965 7139270 7065342 6990988 6918297 6848008 6780052 6713891 6648984 
3531.822 6585298 6522968 6461587 6401157 6340096 6276994 6210606 6140163 
3535.680 6066102 5990072 5914424 5841443 5772973 5709651 5651003 5596190 
3539.537 5543700 5492323 5441153 5389755 5338094 5286708 5236066 5187442 
3543.395 5141438 5098725 5058965 5020852 4982676 4942458 4898792 4851244 
3547.252 4800318 4747521 4694396 4642484 4592485 4544670 4498567 4453674 
3551.109 4408885 4364102 4318286 4271036 4221850 4171131 4119849 4069945 
3554.967 4023826 3983362 3949623 3921704 3897666 3874330 3848322 3817936 
3558.824 3782472 3743167 3702095 3661728 3623637 3588589 3555984 3525618 
3562.682 3496591 3469035 3443285 3418939 3394861 3368581 3336192 3293855 
3566.539 3239005 3171645 3094919 3014602 2937703 2870290 2815960 2775909 
3570.396 2747832 2728093 2711955 2694751 2673147 2645444 2611542 2573543 
3574.254 2534081 2495955 2461199 2430743 2404221 2380499 2357812 2334759 
3578.111 2310708 2285059 2258080 2229970 2201662 2173855 2148048 2125539 
3581.969 2107792 2095407 2088382 2085718 2085052 2083021 2076230 2060383 
3585.826 2032951 1992207 1939085 1876918 1811466 1749916 1698121 1660668 
3589.684 1639248 1631665 1633860 1640080 1644669 1642707 1631499 1610214 
3593.541 1580416 1545035 1508160 1473316 1443727 1421055 1406628 1399814 
3597.398 1399647 1403071 1406395 1405232 1395858 1375681 1344870 1306317 
3601.256 1264511 1224436 1191044 1166558 1152172 1147056 1150378 1160112 
3605.113 1174465 1191277 1207358 1219319 1223772 1218389 1203636 1181841 
3608.971 1157621 1135595 1118187 1104734 1092144 1075868 1052185 1020467 
3612.828 983404 947075 917920 901617 899891 911246 930505 951325 967696 
3617.168 974305 968028 947539 914002 870076 819481 767233 717214 673109 
3621.507 637038 610161 592907 585740 589556 605681 635445 678784 733311 
3625.847 793456 850123 891524 905071 881298 818220 724682 619219 523734 
3630.187 453941 415102 403196 408237 419447 428037 428899 422366 411819 
3634.526 402698 399780 405451 418087 433908 447705 455633 455533 448435 
3638.866 436793 424190 413709 406745 403528 403229 405915 411819 422200 
3643.205 439480 464522 497461 536008 576848 615237 647258 669624 680476 
3647.545 678916 664149 635213 591580 534084 466778 397259 335744 291445 
3651.885 270888 275364 301326 341248 385752 425218 450823 457955 446180 
3656.224 420077 387907 358194 338032 329875 333058 344100 358691 372221 
3660.564 381639 385619 385022 381838 378721 378389 382502 392318 408701 
3664.903 433277 467441 513317 571275 640456 716783 795414 871902 946178 
3669.243 1025748 1126625 1270824 1477638 1758832 2116016 2541746 3023711 
3673.100 3545527 4086669 4612377 5073045 5407905 5557258 5488900 5210647 
3676.958 4763534 4202345 3579369 2941606 2326564 1766451 1288304 906764 
3680.815 623533 427672 300265 220695 172231 145051 134611 139848 159105 
3685.155 188242 220165 246487 258853 251493 222684 176109 118536 58850 4406 
3689.977 -40322 -74147 -97734 -112740 -120524 -122678 -119928 -113734 
3693.834 -105187 -95514 -85775 -77096 -69642 -63480 -58278 -53176 -47047 
3698.174 -39394 -30714 -22364 -16864 -16931 -24750 -40587 -62420 -86073 
3702.513 -106777 -119928 -123406 -116483 -100682 -78586 -52348 -23922 5732 
3706.853 35885 65974 94641 120193 140080 151150 150984 137329 109687 69984 
3711.675 22863 -25413 -67091 -95448 -106910 -101146 -81270 -52448 -20410 
3716.014 9476 33798 50996 61733 67830 70879 71707 69885 63986 53216 37807 
3721.318 19847 2650 -10503 -17395 -17494 -13253 -7620 -4605 -6792 -14843 
3726.140 -26970 -39129 -46120 -43436 -27864 960 40955 87515 134975 176938 
3730.962 208529 226729 232398 228320 218673 205778 189435 166397 134213 
3735.301 91724 42711 -5632 -44264 -66925 -71331 -59703 -35717 -3611 35421 
3740.123 81484 136268 199181 266313 327786 369170 374874 333887 248808 
3744.463 139417 38404 -24651 -36644 -1491 65345 144654 217612 270623 295490 
3749.284 291113 262235 216750 163215 107864 55569 11298 -20608 -35816 -32569 
3754.106 -12988 18157 53912 88012 115189 132854 141439 142400 137362 126789 
3758.928 110516 88410 62296 36680 17826 11563 21073 45097 78269 112968 
3763.750 142201 161425 169745 171303 171966 177701 190960 210021 229447 
3768.089 243172 245095 232795 207402 174419 140212 111311 91426 81583 80655 
3772.911 86123 95469 106804 118901 131197 143858 156553 168552 178231 183700 
3777.733 182905 175115 161061 143295 126259 113664 108858 111775 120558 
3782.073 131562 140411 144190 141505 133285 121917 110217 100606 94044 90531 
3786.894 88642 87780 86819 85693 84234 82511 80523 78335 76712 76910 80887 
3792.198 90365 106075 127220 150288 171336 185756 190661 186418 177270 
3796.538 170276 172563 189203 220795 262965 307029 341481 355707 342210 
3800.877 301292 241879 180783 135539 117940 130004 165038 211446 254544 
3805.217 281432 283852 259517 214198 159967 111046 77474 63025 65477 79528 
3810.039 100175 124270 152045 185026 225137 272248 322779 369800 404722 
3814.378 418817 407905 373979 327753 284714 259649 261439 289456 335479 
3818.718 386183 426578 443559 428402 381573 313295 241415 183866 152310 
3823.058 149393 169679 203258 239194 269430 288693 296253 295523 292009 
3827.397 291312 296617 308653 325299 343503 360084 373249 382468 389134 
3831.737 395303 403627 416097 434107 456926 483363 510232 533586 548416 
3836.076 550240 535875 504725 459414 406612 354148 309184 276326 256566 
3840.416 248112 247449 250598 254577 257096 257494 255704 253217 251427 
3844.756 252289 257362 267871 284416 307128 335777 370497 411487 459878 
3849.095 516701 581593 652468 723222 783531 819846 816294 761491 654393 
3853.435 510332 357099 224309 132092 85195 77209 96629 132456 175977 221822 
3858.257 267076 310112 349804 385022 414074 436097 450326 457324 457656 
3862.596 451487 438816 419414 393943 366020 341016 326095 326824 344763 
3866.936 376565 413809 445483 460774 452647 421536 376698 333290 304475 
3871.275 297778 310809 335545 360018 374808 375239 363201 345758 332627 
3875.615 331997 347052 375338 410758 445019 470426 481207 475534 455102 
3879.955 426014 396066 373813 365025 372122 392981 421769 450094 468900 
3884.294 470526 451487 414306 368872 327852 304078 304873 329742 372221 
3888.634 422332 468834 502171 516634 511493 490893 462333 434339 413179 
3892.973 402334 401770 410127 425251 445284 468138 492120 515142 534482 
3897.313 547819 553691 552198 545364 536937 531098 530866 537202 548051 
3901.653 559430 565966 563246 548814 523435 490793 456495 426279 404357 
3905.992 392418 389963 394606 403760 414771 426047 436760 446943 456727 
3910.332 466545 476463 486746 497593 509336 522407 536904 552198 566796 
3914.671 578574 585342 585176 577943 564407 547387 529804 515042 504991 
3919.011 500910 502635 509668 520980 535477 551368 566464 577512 581925 
3923.351 577479 564042 544136 522373 504261 495105 497991 512786 536738 
3927.690 565435 593770 617460 634018 642513 643309 637502 626253 610559 
3932.030 591513 570843 550639 533056 520118 512620 510232 511725 515142 
3936.369 519156 522937 527084 532890 541781 554686 571042 588760 605283 
3940.709 617394 622803 620845 612616 600737 588627 579436 575289 576616 
3945.049 582621 591314 600505 608037 612682 614076 612384 608701 603823 
3949.388 599012 594997 592575 591779 593106 596358 601501 607772 614706 
3953.728 621177 626519 630069 631828 631762 630733 629240 627780 626585 
3958.067 625557 624694 624163 623898 624229 625424 627846 631330 635943 
3962.407 641119 646727 651970 656881 660963 664049 665742 666273 665476 
3966.747 663751 661793 660001 658806 658342 658441 659038 660100 662025 
3971.086 665144 669989 676859 685487 694846 704005 711606 717115 720401 
3975.426 722392 724483 727802 733212 740680 749542 758370 765806 770751 
3979.765 772278 770353 765308 758171 750404 743501 738655 737128 738987 
3984.105 743667 750305 757375 763150 766835 767664 765972 762387 757906 
3988.445 753126 748878 745260 742273 740215 738954 738389 738489 738987 
3992.784 740115 742040 745260 750371 757972 767930 779415 791033 800692 
3997.124 806634 807497 803580 795647 786020 776693 769623 765706 
##END=
