
##TITLE=mdmaHCL00420_2
##JCAMP-DX=5.01  $$ Nicolet v. 1
##DATATYPE=INFRARED SPECTRUM
##ORIGIN=UniL
##OWNER=Nicolet
##LONGDATE=2011/08/23
##TIME=09:46:32
##SPECTROMETER/DATA SYSTEM=Nicolet iS5
##DATA PROCESSING=
Ratio against background
%Transmittance->Absorbance
Truncated
ElementMultiply or ElementDivide
##COMMENTS=
Number of sample scans: 32
Collection length: 51.20 sec
Sample gain: 2.0
Background collected on: Mar Aout 23 09:44:55 2011 (GMT+02:00);
Number of background scans: 32
Background gain: 2.0
Sample spacing:  1.000
Number of scan points: 12415
Resolution points: 8192
Number of FFT points: 65536
Apodization: N-B fort;
Phase correction: Mertz;
Laser frequency: 15798.0 cm-1
Number of rejected sample scans: 0
Number of rejected background scans: 0
Bench serial number: ASB1000141;
##RESOLUTION=4.000
##XUNITS=1/CM
##YUNITS=ABSORBANCE
##FIRSTX=649.893372
##LASTX=4000.122314
##FIRSTY=0.079085
##MAXX=4000.122314
##MINX=649.893372
##MAXY=0.237263
##MINY=-0.001028
##XFACTOR=1.000000
##YFACTOR=1.000000E-009
##NPOINTS=6950
##DELTAX=0.482117
##ZPD=6100
##XYDATA=(X++(Y..Y))
649.893 79084904 78804976 78553064 78354952 78217704 78127736 78060072 
653.268 77994648 77926640 77873128 77862296 77922880 78071024 78305792 
656.643 78613736 78983032 79414056 79921296 80526352 81244504 82074544 
660.018 82997416 83988984 85031392 86128328 87302784 88587480 90004328 
663.393 91551552 93199248 94902552 96616376 98294992 99897192 101367720 
666.767 102616448 103528176 103994800 103972656 103511864 102719696 
669.660 101696792 100493960 99116456 97547104 95774584 93817920 91732000 
673.035 89592200 87482936 85468256 83580672 81829008 80207440 78708064 
676.410 77327136 76063704 74915048 73871168 72916936 72034896 71209904 
679.785 70433872 69704216 69019416 68375864 67764560 67172168 66587276 
683.159 66002584 65418452 64842068 64283156 63748644 63240460 62755504 
686.534 62288480 61837208 61402812 60990360 60604388 60245404 59906348 
689.909 59573368 59229172 58858236 58452092 58010388 57539932 57051616 
693.284 56556644 56062084 55573360 55094284 54628588 54182576 53763676 
696.659 53378228 53031268 52724280 52456012 52223972 52026716 51864120 
700.034 51738092 51649484 51596980 51575156 51575156 51586200 51598920 
703.408 51609260 51618996 51634484 51663592 51711292 51777768 51858408 
706.783 51945412 52032728 52119728 52212728 52323908 52469140 52666896 
710.158 52935892 53296596 53771928 54384796 55151916 56074828 57129124 
713.533 58258124 59368488 60353636 61105296 61539432 61619768 61362016 
716.908 60832988 60129324 59372404 58689872 58197728 58008760 58218000 
720.282 58888552 60040784 61626488 63520648 65507600 67319400 68681936 
723.657 69351088 69192168 68201216 66514396 64363272 62028728 59781684 
727.032 57811056 56220716 55025788 54180808 53609840 53235500 53000948 
730.407 52865904 52804836 52799708 52831436 52881436 52935180 52984664 
733.782 53030224 53078596 53137980 53213032 53303040 53403408 53508224 
737.156 53613400 53718152 53823944 53932536 54043932 54156708 54269292 
740.531 54383104 54501940 54633136 54783500 54955276 55145448 55344728 
743.906 55541464 55723600 55883388 56017564 56126744 56213284 56278912 
747.281 56325304 56354428 56370464 56380764 56394420 56419888 56462448 
750.656 56522604 56596428 56678496 56765336 56856540 56955124 57065716 
754.031 57191560 57332532 57485160 57643704 57803260 57961464 58118632 
757.405 58277752 58442464 58616376 58802536 59004300 59225108 59468216 
760.780 59734920 60023740 60329156 60643592 60959704 61275244 61596512 
764.155 61940716 62335372 62821044 63447788 64268364 65336756 66689992 
767.530 68331336 70209864 72207840 74150552 75811016 76975032 77489920 
770.905 77310776 76528952 75357256 74087088 72984352 72234680 71883048 
774.279 71829720 71857944 71702960 71151592 70083336 68514456 66572404 
777.654 64460924 62390296 60518908 58942512 57678516 56689028 55904040 
781.029 55251884 54676948 54143424 53637244 53159252 52719156 52329624 
784.404 52004980 51759180 51602728 51543776 51585976 51729280 51972376 
787.779 52315088 52760532 53317088 53997108 54814328 55782860 56915612 
791.154 58223756 59721272 61425256 63356912 65541468 68001408 70749424 
794.528 73780752 77068752 80561536 84180480 87836808 91433872 94883632 
797.903 98130144 101159968 104020320 106812496 109689880 112823512 116350000 
801.278 120336064 124721608 129304704 133712800 137461904 140046336 
804.171 140997904 140037552 137138896 132554160 126749232 120304680 
807.063 113804912 107668936 102118776 97156856 92620120 88259224 83836280 
810.438 79216184 74386944 69459160 64605624 60021720 55863832 52218180 
813.813 49110388 46511356 44364376 42600348 41155744 39977344 39018488 
817.188 38241720 37615972 37116052 36725728 36435380 36239688 36135432 
820.563 36117752 36179472 36313388 36514160 36780792 37117460 37531976 
823.938 38033388 38628592 39322216 40114948 41004124 41982384 43036084 
827.312 44144508 45277940 46403016 47489948 48520584 49499896 50461548 
830.687 51472444 52620064 54009076 55747484 57918868 60570596 63684256 
834.062 67161728 70800792 74296824 77293200 79388560 80234064 79616352 
837.437 77492736 74024096 69526000 64430556 59171984 54117600 49550516 
840.812 45622360 42379868 39790296 37775416 36238320 35081468 34225008 
844.186 33600224 33151422 32837722 32627214 32498534 32439906 32443474 
847.561 32502818 32609888 32753356 32921172 33104792 33300504 33511482 
850.936 33744840 34008668 34308804 34646680 35021412 35431808 35879588 
854.311 36369732 36909268 37505676 38163968 38886672 39675596 40534956 
857.686 41473620 42507268 43658232 44951904 46419756 48097228 50021872 
861.060 52235296 54772940 57650820 60847736 64287692 67830520 71258784 
864.435 74316176 76732240 78256664 78725216 78077088 76375016 73786056 
867.810 70563968 67007324 63391536 59963064 56903072 54313784 52240040 
871.185 50675188 49580820 48898588 48562376 48506504 48661140 48958780 
874.560 49335648 49729780 50092256 50390880 50613864 50772156 50896044 
877.935 51029360 51214160 51483972 51851240 52301480 52791180 53252996 
881.309 53612764 53797128 53753816 53465236 52951536 52268744 51492108 
884.684 50708028 49990980 49391964 48940456 48642496 48491132 48473308 
888.059 48578128 48798292 49128492 49563216 50092704 50702520 51376136 
891.434 52097164 52852020 53633008 54436208 55259676 56102236 56960528 
894.809 57829904 58704096 59574508 60429716 61254448 62026512 62719972 
898.183 63308036 63766332 64080076 64246848 64276396 64188348 64008116 
901.558 63764564 63484528 63194396 62920468 62686628 62516824 62433256 
904.933 62454300 62596380 62873208 63296312 63877092 64626040 65551752 
908.308 66660784 67956040 69437080 71101472 72946968 74972536 77178688 
911.683 79566728 82135032 84878352 87787848 90853824 94070288 97441104 
915.058 100982840 104723848 108698576 112940648 117471584 122291064 
917.950 127363760 132608336 137895264 143022736 147731216 151726624 
920.843 154686880 156343184 156534272 155258256 152704928 149250016 
923.736 145438880 141863728 139125184 137751008 138079840 140246784 
926.628 144126784 149363568 155360880 161362048 166610080 170380672 
929.521 172149920 171672112 168962352 164262512 157933920 150401008 
932.414 142058736 133246336 124271448 115391016 106831480 98804648 91478248 
935.789 84983432 79411672 74804144 71168720 68487848 66729048 65847092 
939.163 65779112 66440372 67699840 69375656 71252768 73072720 74580432 
942.538 75566504 75876672 75450792 74321632 72607320 70479504 68130120 
945.913 65752828 63498908 61474420 59739028 58307120 57164160 56278268 
949.288 55614632 55139124 54822332 54640688 54572116 54595484 54691944 
952.663 54844360 55039744 55270964 55534496 55829312 56154720 56507996 
956.037 56885052 57281644 57694180 58121624 58563932 59021420 59493144 
959.412 59975920 60465360 60958140 61452928 61952256 62460424 62982708 
962.787 63522300 64079768 64653144 65240024 65838920 66450568 67077348 
966.162 67720952 68381560 69056512 69741568 70433016 71129296 71832616 
969.537 72547680 73279296 74030464 74801464 75589896 76393224 77210352 
972.912 78042624 78893424 79766072 80661624 81578616 82513616 83463848 
976.286 84428632 85411056 86415808 87448568 88512640 89608768 90736008 
979.661 91894304 93085880 94316504 95593608 96923680 98310280 99752384 
983.036 101245384 102782448 104356416 105958384 107575496 109188896 
985.929 110770216 112282424 113687504 114948120 116037344 116943024 
988.821 117667304 118226272 118645128 118958448 119205328 119427432 
991.714 119669256 119969992 120361200 120863432 121483600 122218224 
994.607 123056920 123989176 125007216 126107560 127289432 128551680 
997.500 129889904 131296960 132764176 134284064 135853104 137469120 
1000.392 139128752 140823872 142537744 144247696 145929568 147561680 
1003.285 149132016 150638960 152089952 153497872 154878768 156251088 
1006.178 157636064 159059200 160550880 162139760 163849616 165693392 
1009.070 167669904 169765744 171959456 174229744 176555296 178916816 
1011.963 181293392 183656832 185971104 188198352 190302480 192260256 
1014.856 194064560 195721760 197243648 198637776 199900064 201014304 
1017.748 201958032 202710688 203263904 203625296 203820608 203887360 
1020.641 203877136 203852336 203879248 204034448 204394720 205024160 
1023.534 205972560 207263216 208892224 210832352 213042192 215476192 
1026.427 218083856 220814736 223610384 226393424 229073168 231544592 
1029.320 233693888 235420160 236634336 237262912 237251296 236555472 
1032.213 235145328 233012416 230175712 226689200 222634896 218121280 
1035.106 213265600 208176656 202960640 197711424 192513616 187453616 
1037.999 182612512 178064064 173876928 170103200 166780656 163933888 
1040.892 161568016 159666160 158176080 157006432 156011440 154990864 
1043.785 153726064 151984192 149568928 146366112 142352064 137608656 
1046.678 132294264 126630976 120855736 115181712 109797512 104834808 
1049.571 100369400 96432776 93014856 90078976 87570768 85433360 83611720 
1052.947 82056496 80730096 79601112 78641536 77825400 77123008 76500896 
1056.322 75926152 75365728 74791352 74183216 73528368 72822304 72068136 
1059.697 71277096 70468240 69667264 68908376 68227848 67661704 67244040 
1063.072 67000560 66949064 67098572 67448792 67989904 68699672 69544432 
1066.448 70474512 71425336 72327976 73110512 73711096 74089840 74228856 
1069.823 74135784 73836208 73369680 72779280 72103736 71377328 70623840 
1073.198 69858104 69088168 68317616 67548696 66786348 66039732 65323548 
1076.573 64658104 64064064 63560844 63162772 62876308 62699840 62624624 
1079.948 62637404 62720320 62852144 63009976 63166760 63294888 63371220 
1083.324 63379496 63317388 63198648 63054836 62929308 62871784 62935820 
1086.699 63167720 63605384 64276048 65191932 66350028 67728848 69290536 
1090.074 70978480 72722320 74452272 76100464 77613272 78958512 80120088 
1093.449 81095960 81890416 82508488 82952856 83225312 83331920 83288888 
1096.825 83126800 82895424 82656360 82476000 82414584 82506048 82747072 
1100.200 83085032 83425056 83631808 83550584 83046032 82015064 80416328 
1103.575 78276544 75688448 72792608 69744640 66709072 63827464 61203632 
1106.950 58910676 56983496 55427572 54228184 53357320 52780588 52458632 
1110.326 52353060 52424684 52632448 52936752 53295548 53664424 54002056 
1113.701 54268692 54431660 54470200 54375816 54152808 53815580 53386020 
1117.076 52889332 52349284 51789340 51229448 50685352 50169684 49691032 
1120.451 49253876 48859468 48507284 48195736 47923704 47689744 47491020 
1123.827 47320472 47165908 47008256 46823688 46590468 46291572 45921352 
1127.202 45487604 45011252 44522612 44053256 43633316 43284316 43016620 
1130.577 42830008 42714728 42654920 42629552 42617344 42598812 42558100 
1133.952 42486736 42384616 42260248 42128320 42007784 41917860 41873012 
1137.328 41882424 41947128 42061296 42211824 42380528 42546480 42686248 
1140.703 42776992 42799952 42740320 42589932 42347212 42016216 41604728 
1144.078 41123288 40584648 40001832 39389072 38762104 38135460 37523268 
1147.453 36937476 36385764 35872284 35397624 34960468 34559052 34191920 
1150.829 33858984 33560592 33296748 33066854 32869492 32703050 32566708 
1154.204 32460864 32386818 32346122 32339518 32366112 32423768 32509070 
1157.579 32619034 32751712 32906234 33082728 33281438 33502680 33745876 
1160.954 34010604 34296180 34601572 34924700 35261728 35606352 35949232 
1164.330 36279600 36586352 36858732 37088188 37267944 37392988 37459948 
1167.705 37467172 37415484 37308924 37154780 36964176 36749348 36523708 
1171.080 36300312 36090028 35902948 35748652 35635660 35572796 35568264 
1174.455 35628612 35759192 35963416 36244228 36605312 37051996 37591476 
1177.831 38233040 38985904 39859076 40860708 41998368 43280252 44716708 
1181.206 46318372 48097340 50064892 52229504 54596800 57167144 59935180 
1184.581 62884272 65981680 69176824 72389432 75513480 78428336 80996008 
1187.956 83085112 84587912 85422920 85551896 84980488 83758200 81968448 
1191.332 79718184 77131984 74327456 71414000 68487920 65622196 62874280 
1194.707 60286520 57884792 55684384 53689844 51896940 50294700 48866776 
1198.082 47595048 46459432 45440512 44521180 43685380 42919100 42210620 
1201.457 41549156 40926568 40337660 39780852 39258704 38777140 38344532 
1204.833 37968148 37653516 37402592 37213616 37081876 37001408 36966484 
1208.208 36971644 37011836 37081984 37175784 37287300 37411116 37544364 
1211.583 37687844 37845688 38025540 38236548 38487116 38785364 39137184 
1214.958 39546992 40017240 40548524 41138624 41782460 42472556 43199504 
1218.333 43954144 44729820 45522452 46330976 47156712 48002148 48870556 
1221.709 49766120 50695180 51666540 52690836 53779988 54943812 56187492 
1225.084 57509668 58901908 60349144 61829340 63316932 64782524 66193096 
1228.459 67517456 68726880 69799616 70725720 71507864 72162528 72715504 
1231.834 73203408 73670376 74164152 74741880 75465816 76398872 77608120 
1235.210 79154392 81086648 83442760 86243248 89493200 93182568 97289192 
1238.585 101777032 106591664 111665392 116911400 122226344 127507360 
1241.478 132650464 137560080 142158048 146374352 150146992 153421600 
1244.371 156145040 158268176 159749024 160548096 160631728 159973840 
1247.264 158557504 156383312 153473776 149876304 145655872 140885792 
1250.157 135639968 129979592 123957360 117623816 111032936 104254632 
1253.050 97379944 90509400 83757720 77241144 71058976 65299788 60027276 
1256.426 55274724 51051124 47339684 44105332 41298420 38863588 36745380 
1259.801 34887320 33239942 31761456 30416330 29179884 28035368 26971876 
1263.176 25983408 25065170 24212664 23421550 22687732 22008370 21381930 
1266.551 20807868 20285008 19810910 19381188 18990242 18633646 18308896 
1269.927 18016852 17761108 17546982 17379930 17264448 17204564 17204324 
1273.302 17268586 17403450 17614816 17906554 18277896 18722544 19226244 
1276.677 19766694 20316498 20841030 21302058 21663534 21892768 21968218 
1280.052 21884160 21651726 21298158 20858516 20372506 19873964 19385588 
1283.427 18920430 18482322 18070700 17685556 17329512 17007804 16726963 
1286.803 16491456 16302586 16159086 16058369 15998514 15979504 16002502 
1290.178 16068444 16176317 16323192 16503846 16713291 16946816 17201082 
1293.553 17472054 17754378 18039406 18317190 18578554 18817964 19036110 
1296.928 19240270 19444284 19663402 19914200 20212558 20571494 21002674 
1300.304 21514108 22106956 22771524 23482788 24201978 24875026 25442090 
1303.679 25849792 26054646 26034064 25787480 25335334 24713620 23967216 
1307.054 23147506 22302972 21476890 20706692 20017654 19424256 18930120 
1310.429 18530348 18214244 17970438 17789654 17665160 17592318 17567060 
1313.805 17583692 17635106 17714822 17817686 17941808 18087522 18255572 
1317.180 18444120 18647690 18857236 19063008 19258662 19442620 19618960 
1320.555 19795026 19977894 20171146 20373410 20578894 20780444 20971586 
1323.930 21148408 21310478 21460808 21605130 21752008 21913398 22104132 
1327.306 22338900 22631004 22986986 23403996 23868838 24361686 24861132 
1330.681 25348612 25813854 26255058 26676522 27084644 27484324 27877198 
1334.056 28261980 28636800 29000542 29354764 29702324 30046718 30390354 
1337.431 30735152 31083140 31437858 31805340 32192762 32606352 33049762 
1340.807 33522184 34020240 34539572 35077196 35632716 36207056 36801096 
1344.182 37414512 38044596 38688680 39344960 40013824 40695620 41386612 
1347.557 42071732 42722368 43291824 43720668 43949784 43924708 43611444 
1350.932 43002828 42121128 41015124 39751112 38411348 37077256 35822588 
1354.308 34711956 33789248 33077362 32577780 32273378 32132998 32118476 
1357.683 32195724 32335128 32515246 32723200 32950628 33193838 33454362 
1361.058 33740612 34069552 34463912 34948796 35541832 36244768 37039512 
1364.433 37889072 38744352 39545248 40231508 40744888 41030564 41048624 
1367.809 40778668 40226272 39422960 38423296 37295604 36104284 34907216 
1371.184 33748096 32653612 31642482 30729994 29933108 29273874 28774394 
1374.559 28448978 28298156 28306538 28449120 28699168 29039294 29465740 
1377.934 29990016 30634516 31430628 32417412 33637312 35138160 36966232 
1381.310 39150240 41681420 44487152 47429740 50294216 52816024 54735052 
1384.685 55800644 55828332 54735468 52571484 49537848 45951664 42208100 
1388.060 38659196 35547012 32991022 30992888 29485208 28369598 27550726 
1391.435 26945892 26488808 26132478 25842160 25594244 25376784 25186258 
1394.811 25025858 24900852 24814610 24765918 24750098 24760096 24790404 
1398.186 24838676 24907236 25002446 25132432 25305128 25524732 25791770 
1401.561 26102216 26449682 26826290 27223544 27635536 28058342 28490336 
1404.936 28931084 29379332 29832624 30288130 30744574 31204350 31674378 
1408.312 32164466 32685046 33243876 33844836 34487768 35170460 35889812 
1411.687 36641400 37416932 38198596 38958720 39661148 40267456 40751224 
1415.062 41106244 41352828 41532788 41705272 41935740 42280776 42782876 
1418.437 43456912 44284128 45214432 46178940 47111208 47955780 48678596 
1421.813 49268428 49735872 50116800 50469512 50871236 51393820 52085584 
1425.188 52958312 53987388 55126256 56323456 57541368 58755876 59956744 
1428.563 61143172 62319420 63495608 64688796 65929456 67258192 68714960 
1431.938 70332992 72126072 74090312 76208728 78467112 80867344 83427064 
1435.313 86176608 89138184 92305064 95624040 99012432 102390104 105698848 
1438.689 108904984 111976800 114869944 117501024 119748872 121480496 
1441.582 122553112 122846928 122285664 120837832 118528104 115433800 
1444.475 111692944 107486192 103009712 98476888 94078800 89976032 86299952 
1447.850 83129168 80482408 78312256 76526184 75009864 73661312 72425680 
1451.225 71302280 70342968 69620352 69202040 69115824 69340560 69808024 
1454.601 70420456 71077896 71683064 72174976 72548896 72870968 73253136 
1457.976 73806320 74618592 75735072 77172400 78929304 80986344 83302656 
1461.351 85805840 88402528 90962728 93318840 95296240 96721232 97478056 
1464.726 97554408 97059312 96189864 95153944 94136128 93258752 92584240 
1468.102 92140152 91925632 91919776 92076864 92323632 92557496 92643456 
1471.477 92449752 91883952 90936096 89691784 88299864 86917168 85655360 
1474.852 84582280 83734736 83134456 82803080 82754848 82985504 83463928 
1478.227 84132416 84921464 85756664 86579000 87356344 88084104 88785888 
1481.603 89503256 90288792 91193576 92268800 93571488 95163224 97110224 
1484.978 99470984 102274104 105492736 109017024 112660928 116145216 
1487.871 119121056 121229256 122114752 121511880 119319920 115641144 
1490.764 110778464 105141656 99161752 93174200 87378872 81879344 76696856 
1494.139 71825888 67283992 63122124 59431592 56323420 53886884 52158060 
1497.514 51110868 50680360 50783700 51342124 52292472 53577980 55143336 
1500.890 56933632 58884452 60926268 62991096 64992852 66830368 68377496 
1504.265 69451736 69821376 69226912 67452200 64460428 60488556 56003012 
1507.640 51482480 47243220 43393928 39905932 36708352 33746880 30998938 
1511.015 28477388 26209936 24215186 22496984 21038632 19812020 18785854 
1514.391 17932036 17226144 16642708 16155992 15743647 15390529 15096152 
1517.766 14870408 14726593 14669663 14690639 14765465 14864271 14962310 
1521.141 15055056 15162402 15318958 15553005 15870890 16259206 16694251 
1524.516 17156442 17636276 18140238 18685358 19291394 19969568 20717744 
1527.892 21524172 22374866 23261138 24182500 25146934 26166366 27252260 
1531.267 28413532 29654180 30972320 32359544 33800132 35271288 36746068 
1534.642 38201308 39618896 40986608 42291404 43517748 44650092 45666752 
1538.017 46546428 47268780 47816452 48173556 48326892 48275120 48032640 
1541.393 47630392 47107700 46495868 45807636 45034188 44156172 43159288 
1544.768 42052824 40874760 39682784 38530020 37440916 36406732 35392232 
1548.143 34355780 33271064 32145270 31019720 29955970 29005534 28188820 
1551.518 27492902 26884060 26328208 25806432 25323040 24899412 24558760 
1554.894 24308316 24131954 23990430 23832432 23596156 23215592 22632470 
1558.269 21816634 20801194 19690898 18620228 17687350 16923288 16308881 
1561.644 15801851 15356819 14932680 14499397 14041152 13561169 13079700 
1565.019 12626224 12228189 11897294 11627157 11396134 11179172 10955285 
1568.395 10715959 10467803 10228847 10019690 9854185 9736351 9662216 9625661 
1572.252 9620987 9643515 9687185 9741263 9791248 9821275 9820800 9792095 
1576.109 9753260 9731573 9748109 9808972 9905539 10022029 10143843 10261991 
1579.967 10375524 10488237 10605258 10729136 10858792 10989811 11118389 
1583.342 11242991 11365182 11486691 11606466 11718512 11813018 11878974 
1586.717 11910371 11909043 11886431 11860177 11849791 11873014 11942385 
1590.093 12065555 12247581 12491232 12795655 13152986 13546572 13947186 
1593.468 14317349 14620382 14824876 14914368 14890570 14771430 14585738 
1596.843 14364677 14138766 13932987 13767216 13660008 13627150 13681892 
1600.218 13833434 14084686 14433179 14872706 15396674 15998205 16668599 
1603.594 17394828 18155026 18916830 19642638 20288236 20811346 21178014 
1606.969 21363796 21358644 21167298 20807764 20306882 19695474 19008244 
1610.344 18280350 17546154 16840200 16189214 15609914 15106547 14671206 
1613.719 14288208 13937879 13602397 13268643 12931493 12596992 12280642 
1617.094 12003999 11785849 11637912 11561581 11549637 11588702 11662588 
1620.470 11756366 11857861 11962411 12074208 12205731 12371350 12580961 
1623.845 12835378 13126519 13442392 13773783 14116653 14472230 14842704 
1627.220 15226740 15617539 16003259 16372461 16718423 17042538 17351790 
1630.595 17655120 17958004 18259234 18550474 18818172 19048332 19227040 
1633.971 19344776 19396468 19384894 19320180 19218934 19101198 18982802 
1637.346 18872084 18768658 18665260 18549402 18407198 18228274 18008736 
1640.721 17754998 17480954 17204944 16941754 16697109 16466711 16237194 
1644.096 15990470 15708053 15377896 14999351 14585636 14163001 13764069 
1647.472 13419426 13147897 12955695 12837699 12780640 12765694 12767435 
1650.847 12754946 12688755 12528881 12253785 11886022 11498803 11175705 
1654.222 10965072 10861238 10829576 10830561 10835215 10827504 10801687 
1657.597 10759534 10705974 10645460 10579623 10506873 10423273 10324862 
1660.973 10208392 10072690 9919573 9753225 9581015 9412698 9258120 9125186 
1664.830 9016885 8930967 8859134 8789207 8706242 8595815 8448454 8261697 
1668.688 8042042 7803438 7563684 7338451 7138192 6967182 6824345 6704704 
1672.545 6599327 6496093 6381251 6241631 6071176 5876438 5677254 5498329 
1676.402 5359966 5268396 5216012 5186972 5164842 5138890 5106637 5074721 
1680.260 5053367 5051490 5069928 5099898 5123500 5121053 5077135 4991658 
1684.117 4884416 4788358 4732012 4725011 4760485 4823468 4900903 4983379 
1687.975 5066206 5147909 5227582 5305022 5380530 5456319 5536484 5626399 
1691.832 5730097 5847891 5974988 6100779 6211817 6295752 6346686 6370659 
1695.689 6386395 6417567 6478134 6567066 6667658 6755821 6803477 6786850 
1699.547 6696864 6547657 6377720 6228488 6126183 6070772 6045371 6027531 
1703.404 5997227 5940624 5850040 5726169 5576522 5413675 5249749 5093763 
1707.262 4949428 4816533 4691817 4571825 4453741 4336692 4221717 4111286 
1711.119 4008376 3915419 3832811 3759644 3693239 3631522 3572487 3515397 
1714.977 3459683 3404011 3345040 3278765 3202520 3118379 3035055 2965759 
1718.834 2921991 2909849 2928229 2969962 3025312 3084874 3142275 3194543 
1722.691 3242410 3288814 3337393 3390753 3449263 3512090 3577932 3644988 
1726.549 3711352 3774584 3830805 3875634 3905790 3920300 3921470 3914884 
1730.406 3905255 3893888 3875801 3837858 3761616 3630085 3436305 3195010 
1734.264 2941206 2717890 2554545 2456434 2409985 2393127 2385264 2370638 
1738.121 2341188 2296618 2243026 2189940 2146317 2117581 2104896 2106327 
1741.979 2118813 2139391 2166263 2197432 2231668 2268305 2306977 2347784 
1745.836 2390261 2433609 2475661 2512951 2541946 2559111 2562344 2550545 
1749.693 2523683 2483125 2431743 2373736 2316038 2265507 2228471 2208023 
1753.551 2203527 2209788 2218613 2220878 2209355 2181481 2141056 2096972 
1757.408 2059850 2036280 2027092 2026560 2025961 2015475 1988745 1944410 
1761.266 1886868 1824243 1765286 1717016 1682587 1661699 1652087 1650324 
1765.123 1652452 1654049 1650357 1637851 1615468 1585737 1555144 1531568 
1768.980 1520263 1521958 1531368 1539615 1536023 1513912 1473482 1423017 
1772.838 1375748 1342344 1327953 1330678 1344305 1362253 1380800 1399282 
1776.695 1418961 1441433 1465636 1488410 1505400 1512648 1509623 1499316 
1780.553 1487712 1480963 1482259 1490704 1501842 1510886 1513347 1508326 
1784.410 1498019 1486648 1478170 1475377 1479134 1489274 1505666 1528442 
1788.268 1557571 1591790 1627375 1658173 1677066 1677598 1656510 1616799 
1792.125 1566084 1514344 1470157 1437943 1416568 1402706 1392135 1382529 
1795.982 1372956 1363782 1355738 1348659 1341746 1333669 1323765 1312498 
1799.840 1301199 1291495 1285081 1282356 1282921 1286942 1294552 1306416 
1803.697 1323399 1345967 1372790 1402107 1431560 1459319 1484753 1508426 
1807.555 1530703 1551718 1569974 1583044 1588597 1585604 1575029 1560131 
1811.412 1545068 1532931 1525516 1521925 1520861 1520595 1521260 1524286 
1815.270 1532366 1548260 1573034 1605824 1644304 1685182 1725565 1763889 
1819.127 1799521 1833027 1864639 1894722 1923476 1951233 1978094 2004456 
1822.984 2030155 2054856 2077894 2099935 2122409 2147982 2179450 2218080 
1826.842 2262410 2308276 2348917 2377634 2390661 2388562 2377035 2365707 
1830.699 2364075 2378034 2408253 2451335 2501887 2555678 2610009 2664646 
1834.557 2720091 2776909 2834570 2891737 2947311 3001790 3057979 3120548 
1838.414 3194509 3283907 3390252 3512090 3646224 3788187 3934276 4081050 
1842.271 4225597 4366110 4501279 4631767 4759715 4888471 5020517 5155956 
1846.129 5290599 5417869 5528867 5614986 5670708 5694073 5687124 5654461 
1849.986 5600755 5529102 5440382 5333700 5209205 5068486 4916284 4758542 
1853.844 4600924 4447012 4297204 4150591 4005934 3863298 3725187 3595004 
1857.701 3475214 3366043 3265378 3169309 3074730 2980838 2889335 2803688 
1861.559 2727126 2660279 2601608 2548045 2497122 2448536 2404821 2368972 
1865.416 2343587 2327830 2317503 2306211 2288557 2262210 2229470 2196966 
1869.273 2171557 2157905 2156972 2165131 2177851 2191471 2203860 2214783 
1873.131 2224641 2232235 2235099 2230469 2215316 2188841 2152477 2109324 
1876.988 2062480 2014176 1964846 1913492 1860246 1806608 1755538 1710895 
1880.846 1675203 1648295 1627175 1606921 1583077 1553913 1520595 1486149 
1884.703 1454598 1427837 1404999 1383293 1359162 1330478 1297311 1261952 
1888.561 1227859 1198021 1174764 1158916 1150644 1151043 1160378 1178585 
1892.418 1204201 1233807 1262517 1286277 1303226 1314659 1324330 1336860 
1896.275 1354542 1377011 1400213 1419194 1430962 1435649 1436813 1440237 
1900.133 1450543 1469326 1494361 1520595 1542607 1557072 1563490 1563357 
1903.990 1559865 1555310 1550555 1545534 1539980 1534028 1528575 1525150 
1907.848 1523056 1520861 1516339 1507162 1493896 1479599 1468794 1466068 
1911.705 1473748 1489840 1509922 1529041 1543006 1551020 1555343 1558070 
1915.563 1561029 1563889 1563823 1558502 1547928 1534693 1524452 1521892 
1919.420 1527777 1537753 1544968 1540679 1519697 1482426 1435084 1387116 
1923.277 1348094 1323333 1312232 1310571 1312565 1314127 1314725 1316420 
1927.135 1321704 1332506 1348027 1365876 1383892 1400711 1416634 1432956 
1930.992 1450842 1468495 1483888 1493663 1496257 1492101 1483722 1473416 
1934.850 1462910 1451274 1435815 1414307 1387182 1357434 1331044 1314027 
1938.707 1309341 1315356 1327022 1337192 1340449 1334932 1324131 1314060 
1942.564 1311767 1321871 1345701 1381831 1427238 1478236 1532100 1584773 
1946.422 1631632 1669183 1695327 1711028 1722538 1737973 1764388 1804778 
1950.279 1855155 1905005 1941947 1956525 1944909 1912660 1871094 1831131 
1954.137 1800420 1780124 1764687 1747022 1722637 1691834 1660402 1636754 
1957.994 1626311 1630002 1644503 1663029 1680924 1697755 1715552 1737607 
1961.852 1765519 1795263 1819784 1833127 1831729 1817754 1798324 1780989 
1965.709 1770809 1768979 1770642 1769811 1763357 1750881 1735545 1722039 
1969.566 1712192 1704375 1696159 1684749 1671079 1660269 1659071 1671511 
1973.424 1698188 1733582 1770177 1804945 1840181 1884672 1950900 2046400 
1977.281 2167895 2301248 2422913 2511885 2554078 2547012 2498721 2423713 
1981.139 2337191 2249454 2167228 2093575 2029755 1977295 1937720 1910463 
1984.996 1892259 1878083 1861943 1841146 1817921 1799189 1792767 1804246 
1988.854 1832195 1868832 1903275 1925306 1930631 1922777 1909931 1902043 
1992.711 1904606 1918350 1937754 1957158 1972934 1984984 1997732 2015341 
1996.568 2039276 2066941 2093476 2112953 2123708 2128503 2131899 2138525 
2000.426 2148914 2158005 2157538 2139491 2100068 2043271 1979824 1921346 
2004.283 1879613 1861278 1865105 1886036 1917785 1952964 1986881 2017139 
2008.141 2039875 2052459 2054190 2045701 2033217 2025028 2028923 2049962 
2011.998 2088348 2137160 2187775 2233600 2272002 2305311 2340189 2381332 
2015.855 2429977 2483825 2536114 2581309 2618542 2650911 2684616 2726426 
2019.713 2778310 2837738 2899142 2955350 3001523 3036123 3060381 3074429 
2023.570 3079568 3074630 3059480 3036423 3011099 2990513 2982039 2989312 
2027.428 3010231 3038158 3065720 3087344 3102627 3116444 3134999 3163668 
2031.285 3203855 3251891 3303605 3355925 3409888 3470004 3542220 3629451 
2035.143 3729297 3835118 3937720 4029210 4106202 4169224 4221047 4264812 
2039.000 4302357 4332576 4354564 4368487 4376419 4382276 4389473 4398911 
2042.857 4408919 4415747 4415848 4408518 4398342 4391380 4395497 4416685 
2046.715 4456352 4512695 4580364 4653033 4724006 4786448 4833185 4857108 
2050.572 4853724 4821559 4766482 4700593 4638632 4597140 4587865 4612946 
2054.430 4665492 4732582 4799145 4854092 4894034 4921378 4942860 4964510 
2058.287 4988709 5014015 5037411 5055445 5067480 5076330 5085214 5096378 
2062.145 5109620 5121020 5125747 5120483 5104759 5080890 5053870 5027858 
2066.002 5004897 4985659 4968565 4952947 4939978 4931700 4929991 4935353 
2069.859 4944737 4954053 4958008 4953618 4940078 4920440 4898491 4877581 
2073.717 4859353 4844174 4830806 4819347 4811340 4809229 4815461 4830605 
2077.574 4852317 4876877 4900032 4918865 4932873 4943999 4954288 4965516 
2081.432 4977447 4988909 4998563 5006573 5014986 5026215 5042305 5063223 
2085.289 5085114 5103653 5113811 5113275 5103351 5087896 5071603 5058094 
2089.146 5048507 5040495 5031344 5019042 5003121 4986161 4971783 4962331 
2093.004 4958980 4961025 4966052 4972621 4980732 4991356 5006104 5025981 
2096.861 5049211 5073313 5095439 5113208 5126753 5138655 5151095 5166552 
2100.719 5186436 5209574 5235194 5263466 5294959 5331386 5374558 5424277 
2104.576 5478867 5535914 5592230 5646203 5699042 5752021 5807122 5865052 
2108.434 5923930 5980833 6033108 6078837 6118488 6154714 6190003 6226102 
2112.291 6262841 6298341 6330010 6356168 6376611 6392347 6405865 6419282 
2116.148 6433674 6449682 6467271 6486407 6507428 6530905 6556571 6583415 
2120.006 6609722 6633709 6655074 6675834 6699321 6730178 6771840 6825085 
2123.863 6887931 6956240 7025133 7091038 7152844 7210583 7265735 7319243 
2127.721 7370634 7419032 7463828 7504954 7544061 7583712 7626367 7673174 
2131.578 7724202 7778171 7833631 7891056 7950951 8014703 8083122 8155299 
2135.436 8228130 8298542 8363696 8421630 8472915 8518158 8556443 8586352 
2139.293 8605142 8610144 8601830 8584493 8563405 8545191 8533938 8528295 
2143.150 8523395 8512008 8487714 8448657 8399029 8345186 8295064 8253355 
2147.008 8218304 8184133 8142942 8087173 8013252 7923010 7820745 7712296 
2150.865 7603100 7495279 7389339 7285143 7181073 7075007 6965735 6849994 
2154.723 6725534 6593944 6460847 6340265 6252522 6219379 6257564 6372879 
2158.580 6552971 6771638 6997453 7198455 7353750 7455502 7505460 7511899 
2162.438 7486076 7438109 7375622 7305697 7233559 7163354 7097673 7037457 
2166.295 6980045 6921563 6858577 6787793 6709516 6625366 6537398 6447933 
2170.152 6358555 6269430 6181635 6097922 6021248 5956345 5906531 5872071 
2174.010 5850443 5837312 5826062 5812126 5793456 5770656 5745474 5720629 
2177.867 5696960 5673964 5650399 5623881 5592364 5554842 5510980 5460647 
2181.725 5405523 5348594 5292913 5243411 5203772 5175203 5156828 5144187 
2185.582 5131145 5113007 5087628 5055781 5021757 4991222 4968063 4954053 
2189.439 4948222 4947284 4948624 4951440 4955964 4963504 4975872 4991524 
2193.297 5008819 5025177 5038417 5049043 5059569 5072408 5090008 5112672 
2197.154 5137817 5160986 5179160 5189219 5191499 5188280 5182479 5177114 
2201.012 5173996 5173258 5173929 5175438 5175840 5173660 5168094 5157498 
2204.869 5141472 5120584 5097149 5073414 5053200 5038216 5028864 5024003 
2208.727 5020752 5016696 5010931 5004227 4998931 4997691 5002551 5013579 
2212.584 5030238 5050954 5074721 5102111 5133592 5169570 5209306 5250118 
2216.441 5288687 5320887 5344803 5359295 5365769 5366239 5362750 5357047 
2220.299 5350271 5342858 5334975 5327293 5319847 5311797 5302305 5289794 
2224.156 5273024 5252902 5231371 5212022 5198105 5192103 5193511 5200419 
2228.014 5209574 5217287 5222384 5225067 5226240 5227817 5230600 5233853 
2231.871 5236838 5238984 5240392 5242338 5247100 5255283 5266954 5281543 
2235.729 5297005 5312568 5329340 5348258 5371136 5398679 5428907 5458634 
2239.586 5484740 5504504 5518598 5530176 5542760 5559876 5582832 5609113 
2243.443 5634320 5654461 5666311 5669936 5668157 5665270 5665874 5672856 
2247.301 5686923 5706528 5729493 5752290 5771663 5785229 5790131 5785128 
2251.158 5771328 5751283 5729828 5713243 5707099 5715190 5737550 5770958 
2255.016 5809137 5845976 5875363 5893768 5900048 5894641 5878856 5854372 
2258.873 5823174 5786908 5748261 5709919 5674099 5642846 5617067 5596929 
2262.730 5582295 5574005 5572864 5580650 5598204 5624485 5656475 5689407 
2266.588 5717708 5736711 5744433 5741411 5730231 5715022 5698941 5684472 
2270.445 5672957 5664531 5659194 5657247 5659093 5663961 5671749 5681249 
2274.303 5690884 5700384 5709986 5720427 5733152 5748596 5765989 5783651 
2278.160 5799601 5812159 5820655 5826767 5831939 5838924 5849268 5863138 
2282.018 5879460 5896656 5912611 5925508 5934511 5938105 5936089 5928934 
2285.875 5916977 5902097 5886144 5870694 5856924 5844834 5833014 5819380 
2289.732 5802791 5782711 5760583 5739363 5721837 5711295 5708543 5713142 
2293.590 5723013 5735805 5749167 5761422 5771932 5780259 5786136 5789661 
2297.447 5790367 5788318 5783785 5777573 5770320 5762732 5754875 5746481 
2301.305 5737483 5727847 5718077 5709248 5702567 5698337 5696490 5696558 
2305.162 5697162 5697665 5697464 5696423 5694980 5693200 5691320 5689272 
2309.020 5687493 5686352 5686990 5690548 5697598 5707838 5720293 5732984 
2312.877 5743762 5751484 5755312 5755580 5753398 5749503 5744903 5739934 
2316.734 5734864 5730164 5726202 5723986 5723751 5726034 5731070 5738558 
2320.592 5748764 5761288 5775223 5788083 5795806 5792717 5773174 5732615 
2324.449 5669869 5587497 5492558 5393613 5300360 5220808 5158974 5115521 
2328.307 5087661 5071134 5061178 5054306 5048607 5043411 5039389 5036439 
2332.164 5035300 5036875 5041769 5051021 5065301 5084242 5106671 5130809 
2336.021 5154380 5176007 5195792 5214403 5233618 5255048 5278759 5304217 
2339.879 5330648 5356544 5381704 5406697 5432162 5458735 5486316 5513732 
2343.736 5540008 5565011 5590451 5619451 5656441 5704950 5766761 5840939 
2347.594 5923963 6010699 6095167 6171753 6235412 6282675 6311452 6321067 
2351.451 6313368 6291281 6259009 6221295 6182643 6146212 6114321 6088312 
2355.309 6068891 6056492 6052057 6055249 6066303 6084011 6106189 6130619 
2359.166 6155319 6179349 6202338 6225194 6248622 6272993 6298475 6324463 
2363.023 6350889 6378460 6408857 6443561 6484591 6532318 6585770 6643298 
2366.881 6702113 6759657 6814483 6866017 6914324 6960483 7005703 7051029 
2370.738 7098010 7148028 7202094 7260849 7324230 7391125 7460221 7530508 
2374.596 7601582 7673714 7748521 7826749 7909513 7996511 8086666 8178528 
2378.453 8270983 8363493 8456495 8550767 8646681 8743970 8841618 8937732 
2382.311 9030992 9120584 9206505 9289701 9370849 9450216 9527024 9600017 
2386.168 9667366 9727743 9781217 9827850 9869201 9906420 9940388 9971340 
2390.025 9999278 10024199 10046104 10065331 10082694 10098565 10113589 
2393.401 10127868 10141705 10155442 10169722 10185155 10202522 10222300 
2396.776 10244519 10269557 10297378 10328458 10363205 10402435 10446114 
2400.151 10494415 10546693 10602304 10660774 10722174 10786809 10855428 
2403.526 10928883 11007279 11091059 11180159 11274615 11374603 11480295 
2406.902 11591527 11707312 11826296 11946642 12066850 12186511 12306103 
2410.277 12426854 12550674 12678521 12810056 12943714 13076866 13206337 
2413.652 13329900 13445091 13550913 13646537 13731648 13805796 13869285 
2417.027 13922928 13967852 14006143 14039475 14069387 14096356 14120692 
2420.403 14142326 14161495 14179399 14197475 14217434 14240956 14268348 
2423.778 14299713 14334746 14373308 14416190 14465243 14522146 14588685 
2427.153 14665996 14753947 14851584 14958332 15073476 15197298 15330628 
2430.528 15474369 15629286 15795493 15972456 16159086 16354466 16557472 
2433.904 16767047 16982822 17203566 17428696 17657568 17889566 18124692 
2437.279 18363332 18605426 18851250 19100574 19352988 19608076 19866124 
2440.654 20127240 20391710 20659642 20930310 21202924 21476510 21749952 
2444.029 22023324 22297112 22572156 22848734 23126818 23405640 23683310 
2447.405 23958322 24229690 24496776 24759606 25018416 25273028 25522834 
2450.780 25766912 26004726 26235980 26461304 26681880 26898584 27112224 
2454.155 27322508 27528590 27729082 27922602 28107334 28282206 28445512 
2457.530 28595322 28729788 28846906 28945002 29023354 29081948 29121240 
2460.906 29142216 29145866 29133144 29105048 29063312 29009820 28947446 
2464.281 28879554 28809552 28741152 28678424 28624980 28585094 28563474 
2467.656 28563968 28590332 28645366 28730176 28844782 28988392 29159474 
2471.031 29355792 29575788 29816974 30076792 30352190 30639922 30936562 
2474.406 31239384 31545662 31853084 32159116 32460686 32753534 33033564 
2477.782 33296354 33537936 33755404 33946612 34110484 34245804 34352156 
2481.157 34429300 34478084 34499716 34496520 34471016 34425928 34363096 
2484.532 34284740 34192456 34088044 33973984 33852856 33727112 33598144 
2487.907 33466100 33329376 33186040 33033564 32870028 32694620 32507070 
2491.283 32307216 32094822 31868950 31628188 31371250 31097770 30807672 
2494.658 30502162 30182838 29850228 29504996 29146752 28774960 28389478 
2498.033 27991402 27582112 27164318 26740934 26314056 25886470 25459762 
2501.408 25036248 24617492 24205518 23802262 23408612 23025346 22652192 
2504.784 22288566 21934306 21589738 21255812 20934136 20626354 20333720 
2508.159 20056586 19795096 19548526 19316474 19098672 18894820 18704798 
2511.534 18528378 18364680 18212724 18071736 17940600 17819344 17708128 
2514.909 17607568 17518484 17441770 17378136 17328030 17292134 17270310 
2518.285 17262276 17267482 17284238 17311030 17346204 17388552 17437182 
2521.660 17492062 17552604 17618370 17688524 17761766 17836500 17911872 
2525.035 17986668 18059992 18131290 18198524 18259476 18311490 18351858 
2528.410 18378818 18391850 18391262 18378160 18353654 18318746 18273542 
2531.786 18218080 18153022 18079404 17999134 17914566 17827732 17740848 
2535.161 17654878 17569890 17486232 17403830 17323064 17244866 17170300 
2538.536 17100022 17034990 16975896 16922806 16876196 16835930 16800970 
2541.911 16769974 16740669 16710779 16678102 16642019 16602671 16561568 
2545.287 16520848 16481716 16445031 16410550 16377173 16343800 16309673 
2548.662 16275031 16240530 16207097 16175285 16144814 16115276 16085841 
2552.037 16055824 16025467 15995007 15964963 15936090 15908455 15881956 
2555.412 15856765 15832985 15811026 15791371 15774328 15759656 15746154 
2558.788 15732618 15717054 15698263 15675418 15647972 15616097 15580102 
2562.163 15540196 15496963 15451056 15403025 15354107 15305195 15256906 
2565.538 15209479 15163294 15118177 15074917 15034954 14999900 14971708 
2568.913 14952091 14941528 14939436 14944752 14955485 14970061 14987416 
2572.289 15006965 15028471 15052208 15078107 15105654 15135091 15165730 
2575.664 15197401 15229761 15261984 15293319 15323249 15351293 15377552 
2579.039 15403163 15429941 15459845 15494868 15536487 15584704 15639145 
2582.414 15698606 15761547 15827108 15894225 15962489 16031655 16101899 
2585.790 16173048 16245482 16319511 16395342 16473010 16552275 16632449 
2589.165 16712604 16792256 16870580 16947782 17024204 17100054 17175678 
2592.540 17251038 17325684 17398520 17468880 17536114 17599598 17659502 
2595.915 17715756 17768806 17819446 17868814 17918294 17969642 18024312 
2599.291 18083170 18146284 18212966 18281836 18351718 18421822 18492072 
2602.666 18563096 18636206 18712512 18792982 18878208 18968124 19062802 
2606.041 19162592 19267320 19377482 19492970 19613240 19737602 19865326 
2609.416 19995240 20126858 20259940 20394140 20528972 20663882 20797580 
2612.792 20928922 21056892 21180830 21300630 21416980 21530542 21642148 
2616.167 21752392 21860954 21967172 22070350 22168810 22261222 22346680 
2619.542 22424616 22495134 22559346 22618298 22673660 22727078 22779592 
2622.917 22831762 22883694 22935180 22985868 23035724 23084606 23132514 
2626.292 23179766 23226076 23271380 23315534 23358260 23399624 23439874 
2629.668 23479150 23517554 23555506 23593008 23629988 23666656 23702836 
2633.043 23738076 23771918 23803102 23830964 23854556 23873808 23889456 
2636.418 23902794 23916028 23930278 23947258 23967216 23990010 24015082 
2639.793 24042152 24071220 24102566 24137102 24175142 24216518 24261224 
2643.169 24308246 24357342 24408056 24460950 24516408 24575168 24637620 
2646.544 24703414 24772374 24843976 24917764 24993848 25072578 25154096 
2649.919 25238438 25324904 25412580 25500134 25586688 25671606 25754994 
2653.294 25837906 25921324 26006694 26095566 26188538 26286104 26388800 
2656.670 26495956 26607050 26721272 26837498 26954920 27072618 27189786 
2660.045 27306138 27421426 27535404 27648246 27760094 27871370 27982604 
2663.420 28094538 28207808 28322772 28439568 28557494 28675912 28793866 
2666.795 28910718 29026150 29140126 29253562 29367314 29482442 29599800 
2670.171 29720206 29844016 29971234 30101686 30235092 30370844 30508278 
2673.546 30647176 30787220 30928592 31071574 31216598 31363558 31512524 
2676.921 31663150 31815074 31968050 32122220 32277734 32435228 32595030 
2680.296 32757394 32922354 33090238 33261046 33435504 33614576 33799308 
2683.672 33990644 34189124 34395012 34607420 34826000 35050004 35279120 
2687.047 35513280 35752968 35998220 36249376 36506304 36768748 37036624 
2690.422 37309392 37586960 37868968 38155288 38445452 38739464 39037232 
2693.797 39339376 39646336 39959004 40278256 40604656 40938476 41279472 
2697.173 41627336 41981288 42340748 42704856 43072852 43443620 43816500 
2700.548 44190836 44566004 44942128 45319056 45696564 46074220 46451024 
2703.923 46825536 47196044 47561260 47919336 48269344 48610404 48941348 
2707.298 49261340 49569456 49864708 50146700 50415660 50671724 50915864 
2710.674 51148924 51371740 51584856 51789152 51984960 52172784 52352912 
2714.049 52525264 52688892 52842704 52984816 53113156 53226104 53321996 
2717.424 53399924 53459428 53500428 53523328 53529624 53521416 53501888 
2720.799 53475580 53447512 53422480 53405132 53399700 53408768 53434584 
2724.175 53478768 53542180 53625696 53729404 53853428 53997256 54159976 
2727.550 54340556 54537592 54749972 54976036 55214448 55463416 55721228 
2730.925 55986052 56256356 56530756 56808120 57087476 57367660 57646996 
2734.300 57923680 58195384 58460052 58715780 58961072 59194880 59416812 
2737.676 59626384 59824352 60011296 60189192 60360264 60526908 60691940 
2741.051 60857608 61025364 61196688 61372548 61554320 61743924 61943544 
2744.426 62155604 62381768 62622592 62877648 63145264 63422784 63707428 
2747.801 63995676 64284236 64568824 64844644 65106972 65350316 65570556 
2751.177 65764428 65930464 66068628 66179784 66265112 66325984 66363000 
2754.552 66376396 66366008 66331268 66270976 66183604 66067160 65919356 
2757.927 65738060 65521388 65268248 64978308 64652340 64291148 63896672 
2761.302 63470832 63016220 62536216 62034768 61517136 60988720 60455536 
2764.677 59923500 59398120 58884760 58388184 57912812 57462544 57040660 
2768.053 56649952 56292528 55969620 55682164 55430548 55214936 55034632 
2771.428 54888500 54774368 54689504 54630316 54593232 54574260 54570276 
2774.803 54577752 54593684 54614760 54637080 54656508 54668120 54667556 
2778.178 54650384 54612660 54551756 54465804 54354528 54218608 54060636 
2781.554 53884372 53694568 53496680 53295624 53095704 52899996 52710176 
2784.929 52526756 52349172 52176292 52006064 51836268 51664076 51486400 
2788.304 51299916 51102036 50890644 50664388 50423180 50167304 49898196 
2791.679 49617740 49328888 49035000 48741128 48452564 48174560 47912452 
2795.055 47670440 47451400 47257000 47088276 46945572 46829336 46740288 
2798.430 46678968 46645912 46641412 46664764 46714940 46790624 46890420 
2801.805 47012428 47155012 47315888 47492424 47682124 47882080 48089936 
2805.180 48303708 48522028 48743428 48966644 49189676 49409444 49622940 
2808.556 49826316 50015512 50187348 50338120 50464676 50564352 50634268 
2811.931 50672060 50676640 50647040 50583784 50488196 50362528 50209556 
2815.306 50033024 49837728 49628212 49410856 49192240 48979140 48778424 
2818.681 48597360 48441856 48317928 48230760 48184000 48180704 48221244 
2822.057 48304932 48428376 48586652 48773864 48983036 49207340 49439816 
2825.432 49673572 49902244 50119664 50319812 50497988 50649940 50773424 
2828.807 50867284 50931924 50969032 50980808 50970260 50940456 50894628 
2832.182 50836256 50768396 50693956 50615728 50536064 50457268 50381912 
2835.558 50312076 50249988 50197692 50156520 50127772 50112708 50112672 
2838.933 50130376 50169684 50236076 50336148 50477852 50669008 50918172 
2842.308 51234516 51627244 52107552 52688968 53385536 54213504 55188072 
2845.683 56319988 57612832 59058164 60632200 62290320 63970684 65595760 
2849.059 67073600 68314936 69238888 69781408 69908624 69615768 68929656 
2852.434 67899512 66593768 65091572 63468532 61799540 60149720 58569168 
2855.809 57096888 55757164 54560924 53507776 52588836 51790012 51093236 
2859.184 50480196 49934248 49439408 48982036 48550596 48134540 47725832 
2862.560 47317848 46906328 46488932 46065524 45638372 45210720 44788628 
2865.935 44379832 43992204 43635732 43319384 43050572 42834472 42673308 
2869.310 42566396 42509936 42498244 42524076 42578420 42652180 42735308 
2872.685 42817684 42890608 42946972 42982380 42995624 42988196 42963800 
2876.061 42926780 42881468 42831108 42777904 42723208 42667896 42612592 
2879.436 42558176 42505332 42454980 42407744 42364268 42324856 42290524 
2882.811 42261600 42239068 42223548 42215184 42214344 42221540 42237096 
2886.186 42262036 42297792 42345568 42406316 42480668 42567968 42667824 
2889.562 42779220 42901580 43034916 43179744 43337144 43508884 43697360 
2892.937 43904912 44134492 44389516 44672788 44987144 45334796 45716004 
2896.312 46129524 46571656 47035840 47511904 47987532 48447528 48875452 
2899.687 49256848 49580080 49838804 50033956 50172844 50268252 50336000 
2903.063 50392924 50454888 50534832 50643872 50790408 50981552 51223592 
2906.438 51521576 51880436 52304808 52798288 53365604 54011888 54743172 
2909.813 55565788 56485960 57507136 58629192 59845912 61145192 62507176 
2913.188 63904076 65304100 66668196 67955032 69125888 70144320 70983544 
2916.563 71628872 72078432 72343368 72443336 72403680 72247992 71994056 
2919.939 71651104 71218656 70688056 70045760 69279456 68380752 67350080 
2923.314 66198268 64947216 63628324 62275632 60926840 59615704 58369080 
2926.689 57207664 56142880 55179456 54315624 53545404 52860288 52249568 
2930.064 51702556 51209392 50761544 50352704 49979640 49641400 49339060 
2933.440 49075216 48852720 48673036 48536516 48441192 48382928 48355332 
2936.815 48350148 48358332 48370444 48377556 48372888 48351592 48312040 
2940.190 48255196 48184592 48105556 48023836 47945460 47875716 47818340 
2943.565 47774804 47744328 47722800 47702684 47675172 47629616 47556596 
2946.941 47450512 47310012 47139464 46948264 46749552 46558416 46388120 
2950.316 46250252 46151892 46095772 46080780 46101852 46152516 46224308 
2953.691 46308712 46397744 46483952 46561476 46625732 46673692 46703504 
2957.066 46715088 46709776 46689780 46659044 46621896 46582352 46544104 
2960.442 46509436 46479344 46454120 46433544 46417580 46407220 46403936 
2963.817 46409544 46425508 46452204 46488860 46533408 46583720 46637280 
2967.192 46692360 46748408 46805348 46863624 46924492 46989100 47059252 
2970.567 47136432 47222568 47318884 47426156 47543880 47670588 47804212 
2973.943 47942128 48081608 48220168 48355664 48484980 48604996 48711028 
2977.318 48798108 48860840 48894328 48894956 48860916 48792844 48693088 
2980.693 48566420 48419336 48258936 48093048 47929104 47772364 47625956 
2984.068 47490136 47361780 47235056 47102604 46956648 46790328 46598804 
2987.444 46379752 46133576 45862980 45571352 45262308 44938308 44599600 
2990.819 44244764 43871296 43476544 43059428 42622244 42169760 41710016 
2994.194 41251708 40802580 40367768 39948576 39541876 39141896 38742180 
2997.569 38336604 37921068 37494444 37058060 36614612 36167372 35719800 
3000.945 35274484 34833324 34398132 33970220 33551000 33142194 32744818 
3004.320 32360402 31989772 31633430 31291336 30963284 30648490 30346114 
3007.695 30055240 29774956 29504606 29243532 28991188 28746710 28509336 
3011.070 28277644 28050318 27826114 27603754 27382604 27162730 26944236 
3014.446 26727860 26514518 26305326 26101584 25904688 25715828 25535624 
3017.821 25364032 25200584 25043760 24892150 24744486 24599924 24458564 
3021.196 24321386 24189052 24062778 23942776 23829072 23721768 23621240 
3024.571 23528572 23445996 23376442 23322666 23286936 23270366 23272010 
3027.947 23288754 23315640 23345952 23372036 23385708 23379938 23348854 
3031.322 23289104 23199932 23083068 22942654 22782770 22608908 22425418 
3034.697 22235868 22043264 21850220 21658692 21470764 21288068 21111362 
3038.072 20940916 20776584 20617424 20462768 20312262 20165558 20022720 
3041.448 19884196 19749946 19619930 19494080 19372216 19254160 19139874 
3044.823 19029602 18922992 18820350 18721818 18627628 18539028 18457118 
3048.198 18382688 18316258 18256988 18202670 18151086 18099162 18045174 
3051.573 17988152 17928618 17867538 17806536 17746750 17688524 17632034 
3054.948 17577172 17524420 17474642 17429076 17388448 17353134 17322824 
3058.324 17296168 17272068 17250004 17229938 17212700 17199566 17191466 
3061.699 17188950 17191534 17198910 17210356 17225766 17245520 17269758 
3065.074 17298858 17331962 17367376 17403312 17437320 17467468 17492580 
3068.449 17512242 17525902 17533630 17534838 17528974 17515450 17494406 
3071.825 17466086 17431732 17392966 17351582 17309100 17267344 17226870 
3075.200 17189052 17154340 17123078 17094886 17069142 17044192 17018416 
3078.575 16990264 16958394 16922218 16882122 16838960 16793944 16748726 
3081.950 16704271 16661335 16620399 16581327 16543703 16507907 16473664 
3085.326 16441831 16413407 16389526 16371567 16360419 16356049 16357252 
3088.701 16362483 16369330 16375419 16379755 16381923 16382610 16383642 
3092.076 16386773 16393380 16404426 16419670 16438425 16459795 16483059 
3095.451 16507598 16533583 16561499 16591620 16624117 16658787 16694561 
3098.827 16730510 16765222 16797526 16826870 16853220 16877436 16900758 
3102.202 16924872 16950882 16979686 17011558 17046156 17082892 17121252 
3105.577 17160614 17200532 17240660 17280446 17319376 17356720 17392312 
3108.952 17425972 17458464 17490924 17524350 17559988 17598286 17639348 
3112.328 17682830 17728386 17775434 17823624 17872130 17919950 17965982 
3115.703 18008668 18046936 18080268 18109458 18135472 18160380 18185842 
3119.078 18212586 18240402 18268256 18294174 18317226 18336718 18353102 
3122.453 18367516 18381412 18395826 18411346 18428388 18446678 18466246 
3125.829 18487474 18510708 18536504 18565102 18596190 18628804 18662182 
3129.204 18695250 18727628 18759630 18791910 18825472 18861460 18900220 
3132.579 18941542 18985258 19030156 19075196 19119446 19162348 19203628 
3135.954 19243734 19283290 19323160 19364212 19406828 19450902 19496124 
3139.330 19541732 19586966 19631786 19676300 19720956 19767006 19815140 
3142.705 19865778 19918848 19973696 20029174 20084416 20138138 20189820 
3146.080 20239218 20286396 20331812 20376570 20421680 20468464 20518344 
3149.455 20572190 20630314 20692342 20757260 20823338 20888658 20951382 
3152.831 21010288 21065030 21115884 21163716 21210022 21256262 21303970 
3156.206 21354260 21407584 21464186 21523404 21584862 21647896 21711462 
3159.581 21775418 21839664 21904546 21970726 22039150 22110408 22184816 
3162.956 22262130 22341132 22420396 22497962 22572400 22642594 22708608 
3166.332 22771176 22831694 22892042 22953484 23016926 23082510 23149428 
3169.707 23216988 23284456 23350952 23416444 23480934 23544278 23606618 
3173.082 23667984 23728206 23787002 23844754 23901254 23956676 24011162 
3176.457 24064426 24116506 24167612 24217428 24266514 24315640 24365086 
3179.833 24415520 24467574 24521808 24578358 24637760 24700012 24764304 
3183.208 24830222 24895974 24960016 25021682 25080440 25136996 25192962 
3186.583 25250342 25310608 25374710 25442442 25512784 25584332 25656244 
3189.958 25727992 25800104 25873564 25948794 26026290 26105736 26186320 
3193.333 26267342 26348486 26429258 26509832 26589824 26668736 26746008 
3196.709 26820862 26893226 26963768 27033864 27105170 27179802 27258576 
3200.084 27341492 27427602 27515280 27603048 27689386 27773800 27855896 
3203.459 27935852 28014198 28091498 28168316 28245430 28323512 28403166 
3206.834 28484392 28566906 28649826 28732442 28813976 28893756 28971884 
3210.210 29048576 29123790 29197674 29270188 29341116 29411312 29482052 
3213.585 29555002 29632328 29715238 29803666 29896582 29991578 30085954 
3216.960 30177334 30264434 30347038 30425678 30501808 30576246 30649914 
3220.335 30723450 30797108 30871452 30947484 31025698 31106776 31191034 
3223.711 31277518 31365160 31453102 31540104 31625480 31709272 31791474 
3227.086 31872158 31951718 32029756 32105952 32180202 32252252 32322206 
3230.461 32390602 32457936 32524604 32590922 32657218 32722842 32787838 
3233.836 32851696 32914170 32975576 33036318 33097212 33158970 33222024 
3237.212 33286054 33350342 33413712 33475156 33534534 33592380 33649948 
3240.587 33709172 33771412 33836812 33904872 33974092 34042892 34110336 
3243.962 34176468 34242144 34309052 34378228 34449996 34523320 34597052 
3247.337 34669500 34740060 34809268 34878416 34949084 35022380 35098712 
3250.713 35176888 35255580 35333244 35408624 35481784 35553484 35624588 
3254.088 35696024 35768440 35841624 35915616 35990300 36065760 36142488 
3257.463 36221032 36301248 36383132 36466188 36549624 36633324 36717584 
3260.838 36802428 36888672 36976944 37066608 37156872 37246572 37334092 
3264.214 37418700 37500404 37579696 37658068 37737536 37819768 37906028 
3267.589 37997624 38094476 38196460 38302804 38412292 38523792 38636052 
3270.964 38747940 38858480 38967492 39074932 39181316 39288120 39396476 
3274.339 39507832 39623248 39743380 39868264 39997764 40131372 40268404 
3277.715 40408676 40551760 40696672 40843420 40991232 41139536 41288656 
3281.090 41439136 41591932 41748936 41911508 42080572 42256264 42437664 
3284.465 42623448 42811944 43002388 43194272 43388036 43584628 43784540 
3287.840 43988648 44197180 44409888 44626920 44848104 45073516 45303496 
3291.216 45538088 45776928 46019624 46265808 46515228 46768076 47025096 
3294.591 47286736 47553752 47826292 48104448 48387964 48676668 48970536 
3297.966 49269392 49573244 49881916 50194824 50511756 50832456 51156828 
3301.341 51485724 51820140 52161048 52508956 52864444 53227076 53597356 
3304.717 53975496 54361852 54757564 55162676 55576972 55999092 56427812 
3308.092 56861260 57299032 57740956 58188108 58641748 59103224 59573024 
3311.467 60051436 60538600 61034212 61538820 62052620 62575480 63105984 
3314.842 63642480 64182044 64722368 65262780 65803556 66346908 66895492 
3318.218 67451352 68015008 68585968 69162064 69740752 70320800 70900832 
3321.593 71481072 72061568 72642216 73222272 73801056 74378064 74952648 
3324.968 75525584 76097144 76666976 77233784 77794960 78347448 78888608 
3328.343 79416200 79929216 80427296 80910048 81376200 81824608 82253216 
3331.719 82660728 83046112 83409560 83750368 84068192 84361192 84627168 
3335.094 84864096 85070600 85246928 85394600 85515016 85608992 85675936 
3338.469 85713840 85720656 85694704 85636064 85545968 85426104 85277368 
3341.844 85098976 84888024 84640648 84353592 84024088 83652448 83239680 
3345.219 82787840 82298752 81773808 81213344 80618456 79991000 79334056 
3348.595 78651344 77947416 77225312 76487696 75736176 74971744 74195288 
3351.970 73407776 72610064 71803216 70988072 70165816 69338456 68509024 
3355.345 67681296 66860280 66050536 65255000 64475372 63711724 62962748 
3358.720 62227524 61505492 60796436 60101168 59420460 58754472 58102988 
3362.096 57466024 56843356 56235536 55643332 55067540 54508288 53966040 
3365.471 53439904 52929268 52434216 51954524 51490352 51041920 50607944 
3368.846 50186528 49775520 49372660 48976064 48585948 48202252 47825440 
3372.221 47456020 47092928 46734976 46381336 46031336 45685228 45344324 
3375.597 45009528 44680864 44357444 44036572 43715608 43392500 43066380 
3378.972 42737724 42408512 42080168 41754008 41429764 41106244 40781760 
3382.347 40455152 40125524 39792944 39457936 39121120 38783044 38444000 
3385.722 38104208 37763888 37423616 37084148 36746464 36411276 36079404 
3389.098 35751312 35427388 35107728 34792040 34479696 34169804 33861600 
3392.473 33554402 33248528 32945160 32645858 32352402 32066032 31786342 
3395.848 31512384 31242232 30974134 30707200 30441458 30177264 29915714 
3399.223 29657694 29402236 29148984 28896978 28645720 28395490 28147598 
3402.599 27903168 27663256 27428202 27196982 26968598 26742062 26516032 
3405.974 26290716 26066538 25843672 25622466 25403376 25186186 24971140 
3409.349 24758728 24549610 24344060 24142532 23944248 23748222 23553618 
3412.724 23359344 23165158 22971860 22780290 22591912 22408636 22231962 
3416.100 22062680 21901584 21747758 21599348 21453532 21306338 21153940 
3419.475 20994292 20827266 20655508 20484094 20318998 20165038 20024976 
3422.850 19898244 19781294 19669400 19557678 19442586 19323368 19200962 
3426.225 19077170 18954142 18833326 18714658 18598128 18483118 18369452 
3429.601 18257404 18147424 18039752 17933798 17828628 17722796 17615194 
3432.976 17505446 17394104 17282654 17172678 17065662 16962632 16864690 
3436.351 16771730 16683612 16600192 16520815 16444273 16369225 16293813 
3439.726 16215937 16134154 16047573 15955854 15860235 15761925 15662502 
3443.102 15563514 15465648 15368558 15271800 15174720 15076118 14976303 
3446.477 14876031 14776709 14680322 14589096 14503748 14424480 14350088 
3449.852 14278209 14206308 14132570 14055081 13973499 13888784 13801522 
3453.227 13713215 13625133 13537513 13450902 13365366 13280737 13197046 
3456.603 13114396 13032580 12951599 12871282 12791322 12711238 12630898 
3459.978 12549753 12467499 12384169 12300138 12215580 12131719 12049544 
3463.353 11969870 11893207 11819181 11746597 11674568 11601701 11526873 
3466.728 11450358 11372427 11293795 11215450 11137765 11060808 10984645 
3470.104 10909176 10834230 10760349 10687670 10616463 10546896 10478292 
3473.479 10410309 10342506 10274443 10205983 10137059 10067705 9998227 
3476.854 9928929 9860490 9793146 9726998 9662148 9597443 9531223 9462271 
3480.711 9389334 9312788 9234698 9158077 9086782 9023414 8969290 8922748 
3484.569 8881353 8841347 8799181 8752591 8700934 8644315 8583513 8519712 
3488.426 8453285 8385449 8317657 8252140 8191393 8138554 8094228 8058176 
3492.284 8027258 7997355 7964383 7925305 7879449 7828774 7776923 7727575 
3496.141 7683966 7647814 7619016 7596525 7579193 7565504 7554749 7546421 
3499.999 7539105 7531621 7521574 7507280 7487054 7461199 7430896 7398607 
3503.856 7367534 7340371 7319142 7305293 7298655 7298284 7303001 7310987 
3507.713 7319816 7328072 7334104 7337103 7338013 7337878 7338451 7342023 
3511.571 7349504 7361198 7376195 7393046 7409628 7424661 7437098 7446772 
3515.428 7454457 7461064 7467199 7473839 7481154 7488739 7496122 7502527 
3519.286 7506943 7509100 7508427 7504482 7497200 7486177 7471177 7451626 
3523.143 7427256 7398169 7364535 7327094 7286928 7244441 7199601 7151564 
3527.000 7098987 7040589 6975398 6903349 6825725 6744783 6662813 6582540 
3530.858 6505646 6433238 6365246 6301165 6239143 6177770 6114590 6047925 
3534.715 5976366 5899309 5816961 5730734 5643081 5556083 5471955 5392238 
3538.573 5316996 5245960 5178623 5113811 5051255 4991189 4933577 4878921 
3542.430 4827924 4779949 4734155 4689004 4641880 4590845 4534257 4471483 
3546.288 4403999 4335220 4268961 4209571 4160526 4122526 4093826 4070748 
3550.145 4047805 4019779 3983229 3936650 3881886 3822615 3763721 3709413 
3554.002 3661862 3621499 3586819 3555583 3525050 3493184 3458982 3421443 
3557.860 3379834 3333554 3282003 3224751 3162600 3097388 3032286 2970996 
3561.717 2917588 2874592 2843007 2821129 2805255 2789715 2767939 2734261 
3565.575 2685383 2620442 2543113 2459866 2379034 2307876 2251052 2209888 
3569.432 2181314 2160802 2142954 2122942 2097804 2066242 2028856 1987613 
3573.290 1944577 1901844 1860512 1820916 1782553 1744427 1706171 1667586 
3577.147 1628971 1590825 1553714 1517403 1482060 1446686 1410584 1373222 
3581.004 1334965 1296480 1259659 1226796 1199749 1180179 1168219 1162604 
3584.862 1160445 1157521 1148684 1129549 1097227 1051754 996256 937445 
3588.719 881265 834287 800228 779415 769921 768461 770353 771316 767731 
3593.059 757176 738091 710909 676626 637038 594632 551501 509867 471289 
3597.398 436694 406247 380213 358824 341845 330339 324337 324039 328913 
3601.738 337203 346256 354413 359155 359885 356900 351163 343669 335213 
3606.078 325597 313726 298375 278580 254676 228386 201899 177369 155923 
3610.417 137229 119298 100407 78567 52818 24321 -5069 -31840 -52944 -65434 
3615.239 -68118 -60763 -45093 -24485 -4241 9642 11431 -2849 -33066 -75638 
3620.061 -123241 -168553 -205548 -232141 -248699 -258269 -263600 -266647 
3623.918 -266945 -262971 -252109 -233598 -209157 -183457 -164446 -161299 
3627.776 -181106 -226147 -291018 -363328 -428344 -475147 -499407 -503411 
3631.633 -493118 -475378 -456545 -441121 -431555 -427682 -428874 -433210 
3635.490 -438903 -445027 -450753 -455652 -458862 -459657 -457108 -451117 
3639.348 -442511 -432912 -425100 -421790 -424736 -434004 -447277 -460716 
3643.205 -469719 -470447 -460252 -439201 -409740 -375378 -341345 -313103 
3647.063 -295190 -291879 -305620 -336114 -381602 -436487 -493052 -542396 
3650.920 -576513 -590312 -582933 -557188 -518966 -475974 -436222 -406364 
3654.778 -392527 -397525 -420300 -455817 -496196 -532468 -557420 -567612 
3658.635 -562979 -546764 -523831 -500201 -480939 -468957 -464919 -467005 
3662.492 -471837 -475511 -475279 -469057 -455453 -433177 -400637 -355846 
3666.350 -297375 -225451 -142188 -50824 46489 151448 272016 423427 624727 
3670.689 891756 1233940 1651421 2139491 2689150 3288380 3919464 4546143 
3674.547 5108950 5531249 5732279 5663893 5329843 4779781 4084260 3313454 
3678.404 2530348 1783884 1114400 553094 114095 -204090 -418844 -555037 
3682.262 -639314 -692578 -727444 -748746 -757743 -754535 -741502 -723111 
3686.119 -705645 -695456 -696978 -712426 -740642 -777423 -818401 -858912 
3689.977 -895517 -926234 -950436 -967694 -978471 -983728 -984620 -982868 
3693.834 -979661 -975727 -971760 -967694 -963297 -958635 -953147 -946303 
3697.691 -937872 -928053 -917406 -907917 -902329 -903354 -913339 -932351 
3701.549 -957875 -985281 -1009050 -1024190 -1028157 -1021248 -1005282 
3704.924 -983331 -957775 -930698 -902262 -872470 -840889 -807619 -773454 
3708.781 -739848 -709614 -685399 -670148 -666509 -676070 -698466 -730917 
3712.639 -768790 -806528 -838839 -862582 -876967 -883977 -886259 -887449 
3716.496 -889764 -894161 -899650 -904147 -905734 -903221 -897071 -889036 
3720.354 -881497 -875975 -872767 -871444 -870386 -868237 -864831 -860995 
3724.211 -858779 -859970 -866121 -876438 -889995 -903453 -913339 -916679 
3728.069 -911818 -898361 -877992 -853389 -828025 -804973 -786849 -773653 
3731.926 -764623 -757280 -749540 -741668 -736508 -738625 -752947 -781822 
3735.783 -823064 -869725 -912546 -943030 -956817 -953279 -935029 -905833 
3739.641 -868964 -826206 -779308 -730454 -683944 -647188 -630447 -642953 
3743.498 -690295 -767467 -856861 -933111 -975893 -977281 -942997 -886259 
3747.356 -821774 -763366 -720828 -698930 -698036 -714742 -743421 -778680 
3751.213 -816714 -853852 -886457 -910959 -923820 -923457 -911256 -890557 
3755.071 -866418 -843204 -824155 -810497 -802096 -797863 -797334 -800806 
3758.928 -809306 -823428 -841782 -860797 -875809 -882753 -879579 -867708 
3762.785 -850512 -833283 -820054 -813209 -811952 -813572 -813705 -810001 
3766.643 -801633 -790653 -780499 -774380 -774744 -781921 -794225 -808810 
3770.500 -822601 -833051 -838872 -840029 -836755 -830240 -821476 -811390 
3774.358 -800542 -789727 -778713 -767765 -756751 -746530 -738327 -734225 
3778.215 -736078 -744512 -758504 -774744 -788999 -797499 -798524 -792769 
3782.073 -783211 -774248 -769287 -770973 -779209 -792009 -806594 -820021 
3785.930 -830571 -838111 -843832 -848892 -854580 -860995 -867609 -873759 
3789.787 -878554 -881001 -880174 -875247 -865294 -850148 -830703 -808909 
3793.645 -787974 -771966 -763465 -764160 -772363 -783575 -791843 -791281 
3797.502 -778349 -753807 -722085 -690858 -669090 -664723 -682852 -721986 
3801.360 -773884 -824552 -859507 -870188 -854910 -819757 -774479 -731381 
3805.217 -701212 -691486 -704520 -735879 -775637 -812051 -836127 -844923 
3809.074 -840624 -827859 -811853 -795151 -777688 -756718 -729627 -694894 
3812.932 -654367 -613374 -579392 -560266 -560994 -580650 -611290 -640604 
3816.789 -656386 -651324 -626080 -588029 -548287 -519793 -512877 -533229 
3820.647 -579856 -642159 -703925 -750566 -772726 -769386 -746596 -714014 
3824.504 -681396 -656551 -643979 -643913 -653143 -665881 -676500 -681099 
3828.362 -678717 -670843 -660521 -650861 -643516 -638652 -634947 -629554 
3832.219 -620256 -605169 -584124 -558016 -529159 -499936 -473624 -453302 
3836.076 -441816 -441584 -453699 -476504 -506919 -539815 -569465 -591602 
3839.934 -604275 -607485 -603878 -597194 -591338 -590113 -595474 -607683 
3843.791 -624591 -643152 -659396 -669619 -671736 -665219 -650894 -630282 
3847.649 -604805 -574859 -540212 -499572 -452441 -400074 -346874 -300587 
3851.506 -271978 -272971 -312109 -389514 -492490 -599047 -686921 -742032 
3855.364 -762241 -754435 -728867 -695092 -660124 -628892 -602919 -582966 
3859.221 -568175 -557652 -549875 -543588 -537432 -530350 -522739 -516120 
3863.078 -513075 -516385 -527173 -543621 -560895 -572377 -571914 -557321 
3866.936 -530814 -499572 -472466 -459127 -465449 -491397 -529722 -568042 
3870.793 -595441 -606227 -601165 -587069 -572543 -564634 -566586 -577175 
3874.651 -590510 -599941 -599378 -586242 -562152 -531376 -499374 -472366 
3878.508 -455718 -453037 -465118 -489577 -520819 -551066 -572840 -580451 
3882.365 -572774 -552787 -526776 -503643 -491861 -496362 -517146 -547625 
3886.223 -576977 -594084 -592396 -571285 -536042 -494542 -456115 -428609 
3890.080 -417023 -422088 -440459 -466012 -492059 -512810 -525254 -528365 
3893.938 -522275 -508376 -487360 -460947 -430595 -398883 -368559 -342338 
3897.795 -322738 -310785 -306282 -307408 -311447 -316314 -320254 -323334 
3901.653 -327340 -334822 -347768 -367168 -392361 -420863 -448899 -472631 
3905.510 -489809 -499407 -502253 -500036 -494508 -487194 -478920 -469851 
3909.367 -460120 -449992 -439896 -430628 -422816 -416460 -411032 -405404 
3913.225 -398419 -389448 -378821 -367466 -357038 -348893 -343629 -341411 
3917.082 -341212 -341543 -341974 -342073 -341974 -342073 -342239 -341610 
3920.940 -339590 -335153 -327969 -319261 -310454 -303335 -299925 -300951 
3924.797 -305818 -313401 -321479 -327969 -331677 -332141 -329492 -324890 
3928.655 -320155 -316414 -315917 -319890 -328797 -342139 -358097 -373359 
3932.512 -385078 -390276 -388124 -378954 -364851 -348330 -332339 -318798 
3936.369 -308765 -302242 -298633 -297110 -297011 -297839 -299130 -300786 
3940.227 -303170 -306315 -310951 -317440 -326313 -336643 -347569 -356938 
3944.084 -362202 -362004 -355879 -344755 -330916 -317142 -305719 -298402 
3947.942 -295521 -296448 -299825 -304924 -311083 -318268 -326347 -334922 
3951.799 -342735 -348330 -350184 -347569 -340881 -331147 -320254 -310057 
3955.656 -301580 -295057 -290389 -287177 -284925 -284031 -284793 -287640 
3959.514 -292607 -299130 -306216 -313268 -319625 -325320 -330916 -336809 
3963.371 -343199 -349953 -355846 -359653 -360183 -356971 -349953 -340219 
3967.229 -329260 -318367 -308964 -301878 -296713 -293335 -290554 -287408 
3971.086 -282905 -276879 -269329 -261282 -254129 -248964 -246944 -248367 
3974.944 -252573 -258203 -263600 -266912 -266945 -263534 -256779 -247672 
3978.801 -237671 -227670 -218695 -210913 -204388 -199056 -194784 -191306 
3982.658 -189021 -188094 -188988 -191770 -196374 -202600 -209886 -217636 
3986.516 -225153 -231777 -237042 -240552 -242109 -241645 -239128 -234293 
3990.373 -227836 -219921 -211012 -201507 -191869 -182463 -173918 -166731 
3994.231 -161763 -159776 -161564 -166996 -175309 -184583 -192532 -196341 
3998.088 -194254 -185908 -172560 -157424 -143943 -135894 
##END=
