
##TITLE=mdmaHCL00420_3
##JCAMP-DX=5.01  $$ Nicolet v. 1
##DATATYPE=INFRARED SPECTRUM
##ORIGIN=UniL
##OWNER=Nicolet
##LONGDATE=2011/08/23
##TIME=09:50:18
##SPECTROMETER/DATA SYSTEM=Nicolet iS5
##DATA PROCESSING=
Ratio against background
%Transmittance->Absorbance
Truncated
ElementMultiply or ElementDivide
##COMMENTS=
Number of sample scans: 32
Collection length: 51.21 sec
Sample gain: 2.0
Background collected on: Mar Aout 23 09:48:48 2011 (GMT+02:00);
Number of background scans: 32
Background gain: 2.0
Sample spacing:  1.000
Number of scan points: 12415
Resolution points: 8192
Number of FFT points: 65536
Apodization: N-B fort;
Phase correction: Mertz;
Laser frequency: 15798.0 cm-1
Number of rejected sample scans: 0
Number of rejected background scans: 0
Bench serial number: ASB1000141;
##RESOLUTION=4.000
##XUNITS=1/CM
##YUNITS=ABSORBANCE
##FIRSTX=649.893372
##LASTX=4000.122314
##FIRSTY=0.074457
##MAXX=4000.122314
##MINX=649.893372
##MAXY=0.226667
##MINY=-0.000154
##XFACTOR=1.000000
##YFACTOR=1.000000E-009
##NPOINTS=6950
##DELTAX=0.482117
##ZPD=6100
##XYDATA=(X++(Y..Y))
649.893 74457464 74109880 73803416 73573152 73437792 73393496 73419624 
653.268 73493120 73599176 73737640 73919280 74154176 74443456 74774432 
656.643 75128608 75493528 75874696 76297552 76801080 77419312 78172200 
660.018 79057752 80059328 81159624 82351536 83641816 85041616 86551056 
663.393 88149568 89791224 91420088 92985672 94441552 95755664 96895768 
666.767 97819496 98476552 98825064 98855688 98599240 98101616 97394912 
670.142 96483000 95349056 93975456 92364080 90551320 88608240 86617792 
673.517 84664088 82803240 81058736 79432792 77919824 76518320 75235960 
676.892 74082568 73060952 72159328 71353160 70610776 69901544 69205736 
680.267 68516480 67836488 67172680 66529996 65909056 65306180 64717516 
683.642 64141756 63582056 63044764 62537364 62065044 61630684 61234192 
687.016 60873468 60545080 60244076 59963364 59693140 59421448 59135800 
690.391 58824316 58479236 58097152 57679464 57230608 56757068 56265900 
693.766 55764136 55259976 54763132 54284308 53835200 53425288 53061072 
697.141 52744332 52473548 52244488 52052116 51892496 51763956 51665904 
700.516 51598736 51561908 51553028 51567320 51598696 51640492 51688260 
703.890 51739620 51795204 51856800 51925396 52000460 52078596 52156268 
707.265 52231148 52305068 52384796 52482040 52610716 52787960 53031796 
710.640 53361928 53801556 54373716 55096088 55972824 56983836 58077192 
714.015 59165340 60145044 60907968 61366828 61479992 61257084 60759620 
717.390 60082636 59347180 58681988 58201972 58017624 58218340 58861688 
720.765 59964544 61480488 63292056 65197708 66945776 68277248 68958792 
724.139 68857936 67964296 66401184 64383520 62176708 60039604 58155528 
727.514 56628212 55477984 54665676 54122556 53775904 53570332 53463628 
730.889 53427316 53439792 53480864 53533224 53586112 53636456 53689696 
734.264 53754528 53838760 53944016 54065924 54195672 54325048 54449768 
737.639 54569936 54688412 54807824 54928016 55046888 55162148 55274348 
741.013 55388800 55514468 55660356 55830972 56024352 56231424 56439808 
744.388 56636704 56812880 56964416 57090992 57193944 57274308 57333024 
747.763 57371972 57395868 57412656 57432512 57464432 57513756 57580220 
751.138 57658920 57742620 57826268 57908456 57991796 58081096 58181020 
754.513 58293856 58419340 58556388 58703984 58863168 59035428 59222220 
757.888 59422660 59633760 59851884 60074836 60302888 60539896 60789804 
761.262 61055300 61334616 61622480 61912056 62199800 62489308 62796004 
764.637 63145228 63575880 64136416 64877808 65852060 67095564 68613168 
768.012 70359056 72225560 74050272 75620888 76734928 77246376 77108560 
771.387 76403496 75328960 74159360 73147648 72471992 72177832 72170904 
774.762 72244968 72144848 71663808 70682440 69213624 67377784 65370536 
778.136 63395828 61607776 60100408 58891472 57943404 57187404 56552644 
781.511 55984920 55450160 54937568 54451044 54003708 53610516 53286592 
784.886 53045048 52895208 52843264 52890980 53037560 53280340 53617412 
788.261 54050088 54583724 55228220 55996040 56901860 57961428 59189604 
791.636 60604008 62223436 64067984 66158212 68509728 71128288 74004136 
795.010 77108880 80393480 83786816 87209088 90573400 93799000 96832112 
798.385 99656176 102309368 104879440 107504104 110340256 113516888 117102400 
801.760 121050752 125186024 129174768 132578256 134932448 135801248 
804.653 134917968 132243632 127996088 122595160 116572944 110473560 
807.546 104693704 99449944 94754904 90463984 86348048 82184752 77844504 
810.920 73310720 68681976 64117216 59798720 55875248 52430816 49493064 
814.295 47037320 45011548 43350136 41992160 40885684 39985632 39255876 
817.670 38667528 38197184 37829528 37555312 37369084 37267116 37245128 
821.045 37297552 37419824 37609432 37868572 38202824 38620336 39128444 
824.420 39731616 40430968 41223580 42103496 43060708 44080760 45144024 
827.794 46223940 47292244 48324448 49307064 50246712 51174608 52150476 
831.169 53251944 54572080 56207744 58236224 60703756 63597172 66830560 
834.544 70219320 73481392 76283568 78247864 79043560 78466600 76471728 
837.919 73206664 68965080 64152168 59176616 54385808 50047748 46307424 
841.294 43210816 40729388 38791668 37309108 36192148 35367428 34771936 
844.669 34353408 34072672 33898136 33806940 33785304 33823632 33913612 
848.043 34047084 34213216 34401144 34603256 34816308 35043108 35289580 
851.418 35562868 35868036 36206808 36579540 36986400 37430368 37917164 
854.793 38453992 39047600 39703116 40422640 41208204 42063668 42996720 
858.168 44021024 45155052 46420528 47844936 49460576 51303608 53415212 
861.543 55831160 58569432 61611252 64884572 68255688 71517280 74425800 
864.917 76725360 78180176 78636016 78036240 76439496 74002056 70961424 
868.292 67598480 64172900 60919060 58011224 55549560 53580452 52100828 
871.667 51076388 50452468 50165924 50152612 50343440 50671164 51071996 
875.042 51483752 51857140 52160004 52379748 52527244 52631624 52735800 
878.417 52881960 53103756 53415736 53806916 54238956 54650532 54973332 
881.792 55138636 55096356 54828424 54351112 53714668 52987848 52250920 
885.166 51574072 51006632 50577976 50295892 50154880 50144280 50253896 
888.541 50477068 50808768 51243504 51772280 52380984 53054036 53774816 
891.916 54529736 55309876 56110116 56927208 57759428 58603256 59454880 
895.291 60309360 61160184 61997656 62807836 63569172 64255500 64839220 
898.666 65294512 65605200 65767392 65790528 65693884 65503516 65249032 
902.040 64957492 64655760 64369648 64122132 63936592 63835024 63835868 
905.415 63956328 64210972 64611660 65169640 65894716 66794620 67874640 
908.790 69136456 70579008 72198608 73991448 75954968 78086968 80385824 
912.165 82847584 85464592 88227016 91124096 94149832 97307136 100611160 
915.540 104088608 107771432 111691912 115871952 120313160 124985744 
918.432 129817040 134689616 139418512 143765040 147458000 150200656 
921.325 151744240 151939264 150780896 148441024 145261712 141742528 
924.218 138428816 135876176 134575904 134845840 136815600 140373200 
927.110 145190992 150717472 156252720 161096800 164580672 166220032 
930.003 165786432 163290576 158950384 153093440 146105328 138345472 
932.896 130123360 121721352 113378000 105307144 97711648 90755528 84569920 
936.271 79248432 74836424 71346248 68765072 67063816 66201432 66119552 
939.646 66739404 67938256 69544944 71356280 73126352 74611040 75607800 
943.020 75965224 75620928 74600648 73012816 71018040 68799088 66541740 
946.395 64393820 62460040 60801924 59436644 58353164 57522380 56910740 
949.770 56484036 56211816 56068944 56032076 56079616 56192808 56355712 
953.145 56557176 56791316 57056340 57351964 57677572 58030424 58406036 
956.520 58799276 59206008 59624448 60054632 60497088 60951772 61417204 
959.894 61891040 62371096 62857160 63351160 63856520 64376256 64911544 
963.269 65461136 66021828 66591060 67167952 67754448 68354144 68970632 
966.644 69605536 70257536 70923968 71601360 72288768 72987528 73700928 
970.019 74432064 75181912 75948528 76727856 77515904 78310512 79112696 
973.394 79925560 80753120 81597816 82460408 83340144 84236912 85152624 
976.768 86091200 87057512 88055488 89086024 90147640 91237192 92353264 
980.143 93497688 94676440 95896960 97166176 98487280 99859328 101277632 
983.518 102735688 104227040 105744032 107274864 108801960 110297496 
986.411 111725040 113046632 114225088 115233680 116060024 116706792 
989.304 117189888 117534160 117773880 117947440 118095224 118261336 
992.196 118484888 118797472 119220416 119761624 120417992 121179184 
995.089 122033960 122973128 123991560 125086976 126257168 127496960 
997.982 128799616 130156752 131562472 133013888 134510416 136049904 
1000.874 137625536 139221328 140814944 142381728 143898560 145351504 
1003.767 146737056 148060928 149335824 150577696 151806560 153043952 
1006.660 154315936 155651952 157079488 158620992 160288880 162082064 
1009.552 163988560 165988960 168063952 170194304 172362400 174549840 
1012.445 176730704 178872480 180941152 182903616 184739008 186440640 
1015.338 188013904 189469136 190812112 192037504 193128752 194062768 
1018.231 194817968 195383744 195764576 195981904 196069648 196075328 
1021.123 196058144 196081856 196220704 196548528 197127056 198004000 
1024.016 199201040 200713856 202515872 204566640 206821824 209232640 
1026.909 211749952 214318240 216865344 219307520 221549728 223490080 
1029.802 225039344 226119696 226666944 226633168 225978688 224674672 
1032.695 222711152 220102848 216896112 213163424 209001952 204517408 
1035.588 199807952 194969568 190087408 185238288 180501952 175953824 
1038.481 171662960 167694800 164099840 160915152 158166352 155861392 
1041.374 153988704 152504752 151329888 150333792 149334736 148131248 
1044.267 146506288 144273280 141319488 137614576 133225888 128294680 
1047.160 123023136 117630720 112317528 107262600 102592824 98383624 94668656 
1050.536 91443032 88675776 86319472 84322040 82632272 81202800 79995936 
1053.911 78979408 78123888 77402560 76785976 76241704 75738192 75243808 
1057.286 74730944 74179640 73576168 72915376 72199856 71441112 70659352 
1060.661 69881656 69143528 68482688 67935464 67535768 67308608 67270344 
1064.037 67428632 67782176 68320448 69021704 69853984 70770328 71709992 
1067.412 72608072 73395576 74012744 74419432 74595976 74546632 74293640 
1070.787 73873280 73326096 72689768 71997736 71274048 70533400 69784328 
1074.162 69030208 68273952 67521408 66782756 66074372 65417760 64834296 
1077.538 64343944 63960700 63690284 63530272 63471368 63499824 63597476 
1080.913 63743500 63914904 64085112 64226912 64317004 64338788 64289460 
1084.288 64181664 64045400 63922620 63861892 63916096 64131192 64545608 
1087.663 65187580 66070668 67193208 68534712 70058336 71708072 73413664 
1091.039 75105096 76713264 78183704 79482680 80592928 81512328 82245848 
1094.414 82800192 83180808 83391856 83441520 83346568 83136424 82858568 
1097.789 82571120 82336560 82212824 82232640 82394592 82650832 82913192 
1101.164 83055544 82932480 82416704 81410568 79873944 77831064 75367944 
1104.540 72616248 69722312 66841692 64108268 61620684 59448688 57625240 
1107.915 56155852 55025904 54208924 53672300 53378568 53291952 53375720 
1111.290 53591432 53901740 54266364 54642232 54988972 55267200 55444252 
1114.665 55499632 55424336 55222384 54907640 54501604 54028624 53512048 
1118.041 52974332 52434444 51907284 51404968 50935572 50503416 50110292 
1121.416 49755752 49438816 49158360 48913056 48700096 48512656 48339260 
1124.791 48162528 47960888 47714852 47409304 47040088 46614556 46152848 
1128.166 45683168 45234948 44836896 44509472 44262736 44097228 44003936 
1131.542 43967308 43966392 43979480 43985824 43968448 43917448 43831816 
1134.917 43719532 43595364 43478776 43390160 43345524 43355484 43422748 
1138.292 43542248 43701612 43882256 44062940 44218936 44326656 44366324 
1141.667 44322548 44186836 43957336 43637860 43236220 42762512 42229172 
1145.042 41649256 41037116 40408788 39779328 39163508 38573764 38018344 
1148.418 37501412 37023924 36584408 36180912 35812012 35477472 35177284 
1151.793 34911884 34680808 34482780 34316616 34181668 34078048 34006732 
1155.168 33968932 33964848 33993724 34053464 34141736 34256348 34396124 
1158.543 34560704 34749644 34962656 35198160 35454604 35730448 36024576 
1161.919 36336300 36664724 37006928 37357600 37707796 38046192 38361432 
1165.294 38641520 38876960 39060540 39186752 39252540 39256852 39201476 
1168.669 39091500 38935340 38744644 38532300 38310912 38092452 37886144 
1172.044 37700208 37542268 37419716 37341280 37315676 37350664 37452832 
1175.420 37626956 37876344 38204632 38616676 39118836 39719416 40426824 
1178.795 41248972 42193276 43266340 44475112 45828364 47335840 49008220 
1182.170 50855736 52885928 55103500 57508192 60094584 62847204 65736128 
1185.545 68715160 71711760 74628824 77355960 79765312 81734616 83161952 
1188.921 83968928 84116816 83607752 82484776 80823640 78723072 76299440 
1192.296 73663872 70920424 68161552 65457940 62865084 60423928 58158900 
1195.671 56084180 54203596 52512736 51001152 49653808 48454376 47384284 
1199.046 46425728 45562488 44778820 44060924 43396784 42775672 42189220 
1202.422 41632368 41103436 40605020 40142964 39725116 39359216 39050536 
1205.797 38801560 38611100 38475064 38388288 38345944 38343336 38376276 
1209.172 38440456 38530312 38639708 38763520 38898012 39043140 39202600 
1212.547 39383088 39593376 39842116 40137296 40485228 40889980 41354504 
1215.923 41878960 42461376 43096600 43777356 44494492 45238812 46003156 
1219.298 46783280 47577636 48387148 49214168 50061840 50934084 51836940 
1222.673 52778644 53768664 54818048 55935356 57125192 58386364 59710740 
1226.048 61084588 62487588 63896440 65283960 66619644 67874640 69022096 
1229.424 70041128 70921904 71666104 72288488 72813136 73274360 73713848 
1232.799 74177120 74717952 75394744 76266112 77394288 78835056 80633696 
1236.174 82825048 85427800 88446672 91872240 95683296 99845936 104308760 
1239.549 109007912 113862320 118775480 123651904 128394992 132916016 
1242.442 137142800 141010656 144462752 147450176 149925968 151847776 
1245.335 153179328 153887456 153943072 153323120 152011520 150007568 
1248.229 147329536 144018672 140132160 135735712 130895600 125667184 
1251.122 120097240 114230216 108113592 101809112 95398256 88972544 82638000 
1254.497 76503536 70664624 65207140 60194936 55662952 51622840 48061140 
1257.872 44946136 42232276 39867612 37801008 35979828 34358432 32897904 
1261.247 31565436 30337622 29198702 28138478 27151162 26233060 25380612 
1264.623 24590386 23859070 23183994 22563326 21995648 21478772 21009246 
1267.998 20581986 20191520 19833556 19506452 19212010 18954418 18740082 
1271.373 18574576 18462442 18407096 18411554 18479350 18615040 18823050 
1274.748 19106218 19463724 19889780 20371466 20888938 21417574 21925594 
1278.124 22377030 22737448 22974130 23064444 23000156 22789892 22457868 
1281.499 22037548 21568182 21083744 20608774 20157886 19735730 19342110 
1284.874 18976120 18639076 18334646 18068350 17844026 17663642 17526420 
1288.249 17430870 17375930 17361790 17389656 17460224 17572132 17722520 
1291.625 17906450 18118958 18356144 18614452 18890044 19176824 19465766 
1295.000 19746096 20008320 20246298 20461030 20660302 20857822 21069762 
1298.375 21312566 21601370 21948562 22364436 22855790 23423544 24058052 
1301.750 24736102 25421786 26064498 26608388 27002940 27206682 27197122 
1305.125 26973040 26552062 25967366 25260524 24479878 23671938 22878526 
1308.501 22136418 21471112 20897246 20419112 20032090 19726296 19490510 
1311.876 19315886 19196042 19126612 19103900 19122666 19176268 19258454 
1315.251 19364490 19492762 19643574 19817880 20013976 20226476 20446096 
1318.626 20663394 20871866 21069796 21261100 21452836 21651622 21860362 
1322.002 22076798 22294498 22505604 22703230 22883310 23045960 23194654 
1325.377 23336302 23480234 23639294 23828758 24063654 24357308 24715444 
1328.752 25134574 25600570 26092328 26587780 27068104 27523578 27953486 
1332.127 28363940 28762888 29156710 29547520 29933782 30312004 30679426 
1335.503 31035664 31382256 31722032 32057650 32391816 32727846 33070284 
1338.878 33426344 33803932 34209380 34645604 35111000 35600380 36107272 
1342.253 36627088 37157484 37698540 38251204 38815288 39389544 39972512 
1345.628 40563472 41163760 41774544 42392840 43005204 43586056 44092316 
1349.004 44469124 44661472 44618620 44308452 43723816 42884756 41836380 
1352.379 40640272 39373328 38112020 36926868 35879988 35013868 34351584 
1355.754 33894628 33625852 33514310 33521720 33613752 33761204 33943028 
1359.129 34146648 34364384 34592604 34832464 35091780 35386912 35740736 
1362.505 36179652 36723532 37377096 38125300 38934144 39756088 40532916 
1365.880 41205764 41718152 42016436 42061584 41832516 41332748 40590212 
1369.255 39655120 38591292 37459876 36316412 35203440 34147148 33166122 
1372.630 32275770 31492860 30840396 30341956 30014194 29860024 29866092 
1376.006 30008514 30260240 30602340 31029614 31551186 32188408 32971072 
1379.381 33936612 35125008 36580332 38344856 40443480 42865664 45540960 
1382.756 48338404 51054180 53438068 55244324 56235648 56237272 55170576 
1386.131 53082824 50165812 46722280 43129132 39722792 36734892 34279756 
1389.507 32359902 30912082 29843058 29062002 28489382 28059614 27725586 
1392.882 27451180 27212256 26997546 26805426 26642208 26515996 26431688 
1396.257 26388024 26378766 26395242 26430138 26480248 26548046 26640340 
1399.632 26766096 26933520 27146858 27405790 27705916 28040246 28401152 
1403.008 28780872 29174462 29579546 29996406 30425998 30868572 31322460 
1406.383 31784378 32251894 32725130 33208002 33707776 34232432 34788772 
1409.758 35380800 36009528 36674280 37373740 38104824 38860436 39623756 
1413.133 40369076 41062136 41666288 42156104 42524336 42787920 42983476 
1416.509 43163492 43386936 43705936 44162184 44774816 45534516 46402684 
1419.884 47320732 48227020 49065496 49797776 50406320 50895488 51295924 
1423.259 51662736 52071760 52595156 53282512 54146992 55164108 56286756 
1426.634 57461368 58648004 59820892 60969160 62093060 63199064 64299404 
1430.010 65413020 66570856 67813552 69180592 70704784 72399608 74259208 
1433.385 76262280 78387536 80627112 82988552 85495368 88171656 91024464 
1436.760 94023384 97109280 100216296 103288200 106283504 109160312 111867304 
1440.135 114321904 116411168 118014736 119005472 119276056 118757752 
1443.028 117419648 115280304 112406152 108919544 104983016 100775352 
1445.921 96492848 92314488 88394608 84865104 81810848 79260880 77179520 
1449.297 75482328 74059224 72808320 71671624 70644464 69774408 69131056 
1452.672 68779632 68745904 69006752 69490848 70096608 70720768 71265888 
1456.047 71675760 71956832 72190424 72498968 72994000 73755776 74817880 
1459.422 76186504 77853824 79797840 81978608 84326384 86751408 89128208 
1462.798 91297128 93093800 94359440 94994664 94999904 94488424 93651360 
1466.173 92684176 91755616 90974576 90394488 90036448 89895832 89949136 
1469.548 90147840 90417224 90654512 90728616 90515360 89933928 88986416 
1472.923 87764624 86415960 85088616 83882584 82854928 82035480 81443904 
1476.299 81103784 81034376 81236640 81683976 82321536 83080296 83885640 
1479.674 84678544 85427112 86127640 86805104 87500848 88265632 89146928 
1483.049 90189848 91443728 92962232 94804328 97023136 99646128 102649648 
1486.424 105933816 109327432 112571344 115340840 117300648 118119496 
1489.317 117549496 115498256 112062520 107525496 102268648 96691344 91101736 
1492.693 85681064 80520176 75633944 71014880 66679904 62681468 59114084 
1496.068 56093452 53713844 52017040 50981552 50545628 50628388 51152872 
1499.443 52057644 53288168 54791924 56516488 58400352 60376332 62377904 
1502.818 64320312 66103272 67601688 68635288 68977032 68374736 66623232 
1506.194 63695728 59832528 55493756 51143520 47081040 43401948 40069816 
1509.569 37010140 34167868 31521826 29086484 26891992 24959174 23293264 
1512.944 21878514 20687094 19687674 18852566 18157996 17580378 17095746 
1516.319 16683646 16330382 16035128 15807452 15659032 15593737 15602255 
1519.695 15660888 15741447 15821816 15900103 15997518 16148357 16378963 
1523.070 16692942 17074620 17498960 17946022 18407440 18891358 19416632 
1526.445 20004470 20666592 21400308 22192522 23027896 23896668 24797454 
1529.820 25737556 26727966 27778496 28896270 30083894 31339378 32657396 
1533.196 34027588 35435296 36860356 38282212 39681008 41040068 42340308 
1536.571 43560528 44681120 45677092 46525884 47208420 47711708 48027464 
1539.946 48151604 48090416 47861328 47494052 47022584 46471892 45848732 
1543.321 45139684 44322840 43382908 42329972 41203028 40061348 38958900 
1546.697 37920092 36935924 35970720 34982340 33944532 32864738 31784236 
1550.072 30764672 29856970 29080106 28419510 27839574 27304762 26795662 
1553.447 26317786 25894700 25553266 25303688 25131590 24997710 24849238 
1556.822 24622226 24248154 23668544 22855754 21848096 20755454 19714508 
1560.198 18820456 18099404 17527248 17058528 16646530 16249472 15837589 
1563.573 15395541 14927434 14454520 14007067 13613714 13286374 13019128 
1566.948 12790844 12576390 12355668 12120884 11879484 11650335 11454406 
1570.323 11304916 11204604 11147793 11126955 11135080 11166560 11214668 
1573.698 11268359 11312533 11332089 11316954 11271827 11217150 11182913 
1577.074 11192296 11251799 11351679 11475328 11606262 11734580 11858576 
1580.449 11981688 12109334 12244719 12386862 12531677 12675040 12814219 
1583.824 12949347 13080657 13206302 13319924 13412762 13475270 13503228 
1587.199 13500528 13479405 13457839 13454900 13487198 13565715 13696835 
1590.575 13884508 14130687 14434858 14789530 15178425 15573096 15936570 
1593.950 16232343 16428994 16510110 16477173 16348066 16152071 15920518 
1597.325 15684247 15468498 15292805 15175166 15130734 15171906 15307151 
1600.700 15538925 15864601 16278230 16773555 17344410 17982800 18677020 
1604.076 19406272 20139320 20839536 21464186 21971564 22328784 22511500 
1607.451 22510350 22329412 21986272 21506868 20920818 20261434 19562356 
1610.826 18855888 18175132 17545084 16981444 16488256 16058026 15675830 
1614.201 15323180 14983677 14645364 14304850 13969529 13656692 13388534 
1617.577 13184579 13055354 13000999 13012026 13072632 13164359 13269395 
1620.952 13373259 13470041 13563869 13669103 13803813 13982601 14210246 
1624.327 14480897 14782845 15105106 15442060 15792470 16156781 16533103 
1627.702 16914468 17289824 17648596 17985010 18300704 18603038 18900910 
1631.078 19198952 19495708 19781640 20042464 20262858 20427898 20527200 
1634.453 20557042 20522510 20437760 20323998 20203844 20092952 19997566 
1637.828 19914096 19832690 19739196 19619274 19462960 19267286 19039330 
1641.203 18792740 18545148 18309588 18090286 17881486 17669200 17435698 
1644.579 17163474 16842646 16473938 16072879 15666246 15286489 14963442 
1647.954 14714836 14545854 14449999 14413415 14415710 14429000 14420471 
1651.329 14348204 14171218 13871303 13478688 13076798 12755799 12562270 
1654.704 12484787 12481889 12509204 12535430 12544330 12530860 12498189 
1658.080 12452461 12399135 12339714 12272155 12191895 12094138 11975694 
1661.455 11836069 11677530 11505880 11329606 11158639 11002894 10869969 
1664.830 10762251 10677006 10605834 10536372 10453582 10343524 10196993 
1668.205 10012060 9795959 9562893 9330290 9113038 8920043 8754180 8613322 
1672.063 8491734 8380517 8268316 8142099 7990099 7807891 7603167 7396551 
1675.920 7212874 7071740 6978462 6925164 6896179 6875610 6853696 6828687 
1679.778 6807280 6798933 6810612 6841208 6879448 6905605 6898670 6843632 
1683.635 6743100 6620992 6514660 6455769 6453482 6499222 6575778 6667826 
1687.492 6764638 6860395 6952974 7041431 7125696 7206473 7286592 7371005 
1691.350 7464940 7572382 7693072 7821048 7945114 8051797 8129202 8173667 
1695.207 8193891 8211483 8250789 8324784 8429163 8543872 8642220 8694444 
1699.065 8676630 8581553 8427406 8256597 8113335 8023208 7983754 7975114 
1702.922 7971942 7952774 7902697 7814402 7689632 7537891 7374173 7212200 
1706.780 7061469 6925333 6802232 6687308 6575711 6464110 6351360 6239076 
1710.637 6130081 6027833 5935048 5851853 5777002 5708073 5642746 5579778 
1714.494 5518765 5459305 5399316 5335008 5261152 5175069 5079984 4986698 
1718.352 4910186 4863508 4852216 4873459 4917793 4973593 5029936 5080186 
1722.209 5122394 5158907 5194685 5234993 5283455 5340677 5405590 5475847 
1726.067 5549673 5624620 5697330 5763336 5816961 5853398 5870997 5872239 
1729.924 5862667 5848495 5832577 5810413 5769515 5691287 5558231 5363958 
1733.781 5124171 4874934 4660770 4511055 4429572 4400986 4401254 4408116 
1737.639 4404300 4380971 4336993 4279033 4217735 4163470 4123763 4101453 
1741.496 4095666 4104028 4123563 4151628 4185149 4221750 4259124 4296200 
1745.354 4332609 4368453 4403463 4436233 4463415 4481392 4486079 4474831 
1749.211 4446276 4401622 4343185 4275620 4204821 4138080 4082354 4042487 
1753.069 4020381 4013760 4016669 4020247 4015265 3994565 3956076 3903918 
1756.926 3848188 3800187 3767364 3750753 3744905 3740761 3728228 3700724 
1760.783 3656816 3600918 3541118 3486170 3442851 3413662 3397833 3392390 
1764.641 3393425 3396864 3397966 3392957 3378298 3353855 3322902 3292119 
1768.498 3269017 3258234 3259502 3266346 3269217 3257600 3225786 3176151 
1772.356 3119614 3070959 3041395 3034488 3046233 3068089 3091782 3112773 
1776.213 3130794 3148516 3168909 3192707 3217541 3239139 3252826 3256898 
1780.071 3252826 3245949 3241776 3243612 3250923 3260237 3267014 3267815 
1783.928 3262207 3252525 3242944 3237303 3237570 3244146 3256398 3273924 
1787.785 3296593 3324539 3356259 3388115 3414063 3426787 3420141 3391956 
1791.643 3345874 3290617 3236702 3193007 3163568 3147014 3139671 3137669 
1795.500 3138971 3142408 3147815 3154223 3159430 3160197 3153789 3139037 
1799.358 3117345 3092316 3068790 3050671 3040194 3037891 3042863 3054375 
1803.215 3072127 3095987 3125488 3158462 3192173 3223216 3249254 3269518 
1807.073 3284942 3297428 3308446 3317827 3324472 3325974 3321434 3311684 
1810.930 3299732 3290016 3285976 3289148 3297895 3309514 3320332 3328211 
1814.787 3333520 3338228 3345107 3356927 3374457 3397499 3424716 3454807 
1818.645 3487239 3522244 3560226 3600918 3644152 3688728 3733375 3777157 
1822.502 3818638 3856712 3889909 3917057 3938088 3954973 3971391 3991287 
1826.360 4018007 4051550 4088609 4123061 4147848 4158419 4154739 4142630 
1830.217 4131390 4131356 4148550 4183208 4231085 4285659 4341411 4395162 
1834.074 4447113 4499136 4553744 4611975 4673295 4736166 4799882 4865250 
1837.932 4935386 5014551 5106570 5213430 5334337 5465714 5603239 5741881 
1841.789 5877445 6006668 6128132 6242236 6351830 6461116 6575105 6696629 
1845.647 6825287 6956408 7082551 7194716 7284267 7345629 7376532 7378419 
1849.504 7354660 7308831 7243229 7158234 7053117 6929003 6788264 6636637 
1853.362 6480993 6326783 6177568 6033746 5893835 5756218 5621666 5492591 
1857.219 5372713 5264304 5166686 5076230 4987368 4895441 4798374 4698282 
1861.076 4599752 4508142 4426995 4357007 4296635 4244234 4198832 4160961 
1864.934 4132393 4113093 4100349 4089144 4072487 4045162 4006135 3960122 
1868.791 3915318 3880950 3862897 3861359 3872057 3888104 3904319 3917659 
1872.649 3927656 3935279 3941130 3944541 3943571 3936182 3921370 3899437 
1876.506 3871956 3840533 3805368 3765426 3719272 3666306 3608201 3549269 
1880.364 3494219 3447627 3410857 3382038 3356660 3330382 3300333 3266647 
1884.221 3231628 3198615 3169242 3143343 3118379 3091515 3061149 3027381 
1888.078 2992649 2960054 2932866 2912951 2901510 2899275 2907081 2926061 
1891.936 2956151 2996085 3041428 3086676 3125855 3155057 3173682 3184062 
1895.793 3190304 3195844 3201586 3206159 3207494 3204056 3196912 3189302 
1899.651 3184763 3185764 3191839 3199750 3205324 3205391 3199917 3191739 
1903.508 3185397 3184162 3189135 3198448 3208362 3215538 3219110 3220379 
1907.365 3221947 3226487 3234132 3243312 3251357 3256732 3259035 3260504 
1911.223 3263542 3269451 3277363 3284775 3288747 3288180 3284207 3279566 
1915.080 3276896 3276395 3275727 3270352 3256665 3233397 3205024 3179322 
1918.938 3162867 3158996 3164636 3172280 3172713 3159296 3130560 3091281 
1922.795 3050137 3015770 2994150 2986610 2990513 3002558 3020408 3043764 
1926.653 3073095 3108000 3145312 3179489 3205024 3218276 3219444 3212067 
1930.510 3201218 3191305 3183094 3174382 3162333 3145712 3126088 3108468 
1934.367 3097989 3097789 3106399 3118713 3127824 3129226 3122484 3111338 
1938.225 3101793 3097989 3100392 3105498 3107633 3102627 3090247 3074529 
1942.082 3062683 3060047 3068857 3086609 3108367 3129559 3148683 3167373 
1945.940 3188534 3214937 3245448 3277296 3306409 3330415 3349848 3367412 
1949.797 3385744 3405013 3422044 3430527 3425417 3405881 3376595 3346442 
1953.655 3324372 3315156 3316459 3320064 3315290 3293455 3253326 3200517 
1957.512 3145913 3100959 3073028 3063184 3068156 3082204 3100325 3120916 
1961.369 3143410 3165938 3185297 3195511 3190804 3169610 3134298 3090213 
1965.227 3045399 3004693 2969695 2937836 2906080 2873492 2843541 2822096 
1969.084 2814659 2823330 2844541 2871858 2897807 2919256 2936869 2955550 
1972.942 2979837 3009998 3041962 3069257 3087978 3100659 3116577 3149851 
1976.799 3210999 3302002 3412727 3524483 3619126 3682980 3712822 3714827 
1980.656 3699622 3676598 3650601 3621432 3586952 3546463 3502269 3459850 
1984.514 3425284 3402007 3388182 3379466 3369783 3356393 3340565 3326876 
1988.371 3319564 3320031 3325440 3330181 3328278 3318395 3304573 3294690 
1992.229 3297828 3317327 3351685 3393592 3434935 3469470 3496257 3518403 
1996.086 3540417 3564703 3589358 3608535 3616153 3608669 3586652 3555884 
1999.944 3522879 3492683 3466130 3439812 3408786 3371051 3327644 3284674 
2003.801 3250289 3231561 3231161 3247785 3276528 3312018 3350315 3388984 
2007.658 3427121 3462589 3492783 3513927 3525017 3527489 3524650 3522311 
2011.516 3524115 3530495 3539548 3548133 3554547 3561863 3576095 3603557 
2015.373 3648730 3710249 3780867 3850528 3910972 3957916 3993461 4023357 
2019.231 4052386 4082722 4112457 4136207 4149989 4152598 4146978 4138883 
2023.088 4132628 4129818 4129115 4127644 4123529 4118645 4118645 4129450 
2026.946 4154672 4193445 4239315 4283651 4320997 4350046 4374813 4402392 
2030.803 4438644 4484975 4538609 4593323 4644761 4691784 4737941 4788257 
2034.660 4846352 4912364 4981234 5046026 5100904 5143316 5175270 5201190 
2038.518 5225234 5250286 5276613 5302506 5327461 5352250 5378014 5406596 
2042.375 5437161 5466653 5489772 5503463 5507054 5504504 5502960 5510376 
2046.233 5533196 5574005 5632407 5705185 5789359 5880804 5974350 6063549 
2050.090 6138617 6190205 6212052 6203582 6172224 6130518 6095167 6079139 
2053.948 6088749 6121378 6166981 6213732 6251917 6277195 6291718 6300627 
2057.805 6308292 6316260 6322412 6322983 6315722 6301736 6284557 6269430 
2061.662 6259581 6254673 6250404 6241698 6224858 6200860 6175081 6155152 
2065.520 6147859 6156832 6180660 6214203 6251446 6286978 6316999 6339659 
2069.377 6352537 6353915 6341744 6315352 6277195 6232656 6189936 6157302 
2073.235 6139894 6138853 6150715 6170375 6192020 6212287 6230707 6248085 
2077.092 6265396 6281902 6295752 6305333 6310276 6313167 6317974 6329237 
2080.949 6349443 6377889 6410909 6443662 6471710 6493739 6510994 6525524 
2084.807 6539684 6553745 6565721 6572818 6572818 6565249 6552164 6536422 
2088.664 6520546 6505545 6490544 6474098 6455063 6434213 6413733 6396516 
2092.522 6384949 6379065 6377216 6376981 6375972 6373686 6371466 6371130 
2096.379 6374728 6382629 6394095 6408320 6424662 6444066 6467943 6498246 
2100.237 6534875 6576047 6619075 6660895 6700330 6738288 6777629 6821114 
2104.094 6870931 6926646 6985971 7046314 7105049 7161299 7215468 7268667 
2107.951 7321096 7372016 7419908 7463491 7502999 7540791 7579733 7622590 
2111.809 7670644 7721808 7772471 7817573 7853267 7878066 7892270 7898344 
2115.666 7899727 7899998 7901651 7907455 7919265 7939478 7968905 8007616 
2119.524 8053890 8104423 8156143 8206486 8254943 8302594 8351097 8400921 
2123.381 8451190 8498560 8539750 8572225 8596728 8616026 8635662 8660709 
2127.239 8693768 8734266 8778624 8821937 8859675 8889401 8910708 8925861 
2131.096 8937596 8948826 8963100 8983768 9014281 9058057 9116997 9189448 
2134.953 9270136 9351754 9426039 9486586 9531326 9561944 9582606 9597274 
2138.811 9608046 9613771 9612585 9602762 9584774 9563028 9542366 9526956 
2142.668 9517372 9509446 9495425 9468062 9422212 9357306 9277347 9188906 
2146.526 9097372 9007176 8919265 8832555 8746741 8661655 8578511 8498120 
2150.383 8419501 8339241 8253187 8156988 8047915 7926318 7793891 7652467 
2154.240 7502864 7345326 7180938 7016074 6865410 6748855 6691178 6711602 
2158.098 6816233 6992806 7212975 7440367 7639046 7785829 7871655 7901482 
2161.955 7887850 7846756 7792778 7737390 7687541 7647712 7618004 7596390 
2165.813 7577271 7554513 7520496 7470637 7404370 7324567 7237367 7149745 
2169.670 7067093 6992570 6926882 6868743 6816940 6770696 6730010 6694980 
2173.528 6664596 6637410 6611270 6584020 6554922 6522530 6486575 6446084 
2177.385 6398534 6342551 6278069 6207783 6138113 6076888 6031462 6005424 
2181.242 5998235 6005156 6018829 6033478 6046043 6056459 6066606 6077896 
2185.100 6089589 6099939 6105114 6103198 6095235 6083675 6072150 6063145 
2188.957 6056157 6048362 6036468 6018594 5996220 5973477 5956412 5949190 
2192.815 5954396 5970353 5993162 6019803 6047286 6074502 6102123 6129645 
2196.672 6155118 6175888 6189062 6192860 6189130 6181500 6174140 6170645 
2200.530 6171854 6175417 6177837 6176593 6170040 6159856 6148598 6138382 
2204.387 6130048 6122756 6114254 6103433 6090631 6077762 6067815 6063044 
2208.244 6063918 6069193 6077157 6086363 6096814 6110288 6128334 6151253 
2212.102 6178307 6206338 6232118 6254068 6272019 6287717 6304022 6322143 
2215.959 6341845 6361177 6377855 6390229 6398769 6405764 6413431 6422645 
2219.817 6433103 6442115 6446824 6445478 6438147 6427218 6415583 6404822 
2223.674 6395373 6385420 6372676 6356235 6336667 6316562 6299585 6288592 
2227.531 6284894 6287919 6296324 6308695 6324664 6344232 6367667 6393288 
2231.389 6418542 6439694 6453078 6457955 6455937 6450893 6447395 6449245 
2235.246 6457720 6471407 6487517 6503493 6517956 6531006 6543721 6557681 
2239.104 6573592 6591018 6609319 6628495 6648648 6671258 6697099 6725601 
2242.961 6755316 6783519 6807852 6827408 6843665 6859520 6878707 6904056 
2246.819 6936107 6973244 7012370 7049446 7081338 7106026 7122294 7130075 
2250.676 7130277 7124180 7114311 7104510 7098145 7099222 7109360 7127919 
2254.533 7151531 7175515 7194750 7205866 7207416 7200072 7185385 7165308 
2258.391 7140853 7113065 7082888 7052073 7023247 6999271 6982637 6974153 
2262.248 6973277 6977721 6985634 6995601 7007858 7023583 7044159 7070258 
2266.106 7100671 7133005 7163960 7191145 7213042 7229415 7240500 7247305 
2269.963 7249899 7248653 7244071 7237165 7229516 7223149 7219208 7218163 
2273.821 7219376 7221397 7223520 7225541 7228708 7234941 7245722 7261625 
2277.678 7281504 7302900 7323893 7342461 7358434 7372420 7385968 7400292 
2281.535 7415796 7432109 7448322 7463558 7476941 7487795 7496021 7501111 
2285.393 7502392 7499560 7493088 7483716 7473401 7464098 7457221 7453345 
2289.250 7452165 7452671 7453951 7455300 7457188 7460120 7464839 7471075 
2293.108 7478188 7485233 7490930 7495009 7497875 7500302 7503437 7507887 
2296.965 7513416 7519349 7524575 7527980 7528688 7526395 7520597 7511359 
2300.823 7498751 7483211 7465783 7447749 7430862 7416470 7405381 7397427 
2304.680 7391731 7387485 7383677 7380172 7377307 7375285 7374038 7372791 
2308.537 7370331 7365613 7357895 7347684 7336429 7325814 7317962 7313750 
2312.395 7313380 7316446 7321804 7328779 7336058 7342596 7346774 7346977 
2316.252 7341618 7329824 7312200 7290399 7267083 7245250 7227057 7213817 
2320.110 7205664 7201824 7201285 7203037 7205395 7205866 7200847 7185924 
2323.967 7156617 7110640 7047897 6972334 6890018 6808627 6735326 6674757 
2327.824 6628865 6596501 6574971 6561044 6552131 6546917 6544932 6546177 
2331.682 6549877 6555393 6561583 6568209 6575677 6584693 6596333 6610866 
2335.539 6627653 6645553 6662880 6678526 6692153 6704166 6715439 6726813 
2339.397 6739028 6752590 6768138 6786480 6808458 6834678 6864737 6897559 
2343.254 6931595 6965836 7000888 7039916 7087839 7149409 7228068 7324096 
2347.112 7433626 7549422 7662955 7765589 7849590 7910120 7944168 7951795 
2350.969 7935429 7899255 7849253 7791024 7729599 7668554 7609810 7554007 
2354.826 7501044 7451356 7406426 7368814 7340844 7325005 7322309 7331677 
2358.684 7351054 7376835 7406696 7438648 7472154 7507584 7545646 7586072 
2362.541 7628727 7672533 7716479 7760091 7803573 7847194 7891663 7937285 
2366.399 7983956 8031680 8080894 8132679 8188320 8249168 8315767 8387509 
2370.256 8463150 8540832 8618966 8696742 8774195 8852304 8931914 9014077 
2374.114 9099030 9187147 9278395 9372745 9470467 9571665 9676174 9783759 
2377.971 9893912 10005720 10119015 10233053 10347528 10461931 10575550 
2381.346 10687092 10795437 10899119 10997525 11090209 11177133 11258293 
2384.721 11333755 11403516 11467402 11525751 11579242 11628553 11674603 
2388.097 11717899 11758239 11795008 11827523 11855206 11878156 11897328 
2391.472 11913538 11927705 11940409 11951205 11959788 11965987 11970721 
2394.847 11975388 11982336 11993474 12010301 12033396 12061978 12095194 
2398.222 12132298 12172574 12216057 12262885 12312887 12365554 12419729 
2401.598 12474660 12529666 12585225 12642462 12703289 12769277 12842033 
2404.973 12922242 13010182 13105584 13207532 13315106 13426808 13540931 
2408.348 13655974 13770704 13885226 14000257 14117783 14239689 14367281 
2411.723 14500459 14637037 14773521 14905898 15029741 15142228 15241771 
2415.099 15328157 15402201 15465785 15520485 15568117 15610292 15647834 
2418.474 15681429 15711008 15736157 15756771 15772782 15784981 15795289 
2421.849 15805768 15818929 15836662 15859857 15888384 15921652 15959429 
2425.224 16001815 16049979 16106026 16172087 16250093 16340774 16444102 
2428.600 16559090 16684335 16818466 16960014 17108084 17262000 17421178 
2431.975 17585556 17755344 17930966 18113396 18303160 18500302 18704832 
2435.350 18916068 19133088 19355342 19582668 19814656 20051484 20292612 
2438.725 20537310 20784614 21033522 21283682 21534930 21787890 22043054 
2442.101 22300880 22561546 22824464 23089288 23355532 23623236 23892468 
2445.476 24163514 24436096 24709376 24982336 25253502 25521568 25785652 
2448.851 26045148 26299482 26548366 26791400 27028186 27258754 27483582 
2452.226 27702948 27917832 28128260 28334124 28534598 28728690 28915572 
2455.602 29094596 29264940 29426310 29577098 29715524 29839084 29944822 
2458.977 30030632 30095224 30138514 30161706 30166572 30154708 30128250 
2462.352 30088476 30037378 29976630 29908402 29835322 29760620 29687600 
2465.727 29620162 29562486 29518792 29493046 29488896 29508898 29554542 
2469.103 29626228 29723578 29845756 29992606 30163908 30359366 30578698 
2472.478 30819802 31079334 31353016 31635958 31923328 32211568 32497894 
2475.853 32780152 33056412 33324298 33580604 33821912 34045004 34246916 
2479.228 34425784 34580404 34709624 34812680 34888504 34936120 34955512 
2482.604 34947432 34913604 34857092 34781376 34690100 34586932 34475176 
2485.979 34357500 34235872 34111772 33985376 33856224 33722992 33584112 
2489.354 33437722 33282940 33118844 32945338 32761824 32567460 32360472 
2492.729 32139100 31901042 31644974 31370290 31077626 30768868 30445794 
2496.104 30110742 29764806 29409220 29044430 28670354 28287370 27896032 
2499.480 27497244 27092826 26684734 26274946 25866002 25460008 25058924 
2502.855 24663992 24276394 23896982 23526684 23166764 22818598 22483862 
2506.230 22164102 21860396 21572954 21301536 21045068 20802794 20573820 
2509.605 20357888 20155042 19965264 19788540 19624056 19471000 19328494 
2512.981 19195870 19073604 18962066 18862082 18773988 18697360 18631398 
2516.356 18575096 18527756 18489340 18460818 18443428 18438000 18445088 
2519.731 18463894 18492938 18530280 18574544 18624552 18680030 18740776 
2523.106 18806476 18876374 18949260 19023544 19097910 19171006 19241518 
2526.482 19308126 19368854 19421240 19462996 19491966 19506972 19507838 
2529.857 19495640 19471694 19437698 19394804 19343564 19284188 19217204 
2533.232 19142714 19062352 18977746 18891220 18804988 18721506 18642260 
2536.607 18568630 18501442 18440594 18385490 18335060 18287816 18242442 
2539.983 18197660 18152986 18108422 18064518 18021688 17980280 17940222 
2543.358 17901478 17863532 17826524 17790276 17755172 17721208 17688352 
2546.733 17656154 17624200 17591558 17558644 17525282 17492474 17460948 
2550.108 17431284 17404036 17379274 17356824 17336444 17317824 17300892 
2553.484 17285482 17271206 17257588 17244384 17230800 17216700 17202290 
2556.859 17187398 17172162 17156684 17140208 17121872 17100676 17075552 
2560.234 17045466 17010078 16969144 16923046 16872786 16819500 16764877 
2563.609 16710641 16658271 16609211 16564323 16524153 16489116 16459348 
2566.985 16434914 16415643 16401604 16392244 16387153 16385913 16388459 
2570.360 16394790 16405424 16420668 16440626 16464680 16491422 16518783 
2573.735 16545149 16569313 16590999 16611036 16631279 16653346 16678618 
2577.110 16707990 16741598 16778894 16819638 16863142 16908818 16956292 
2580.486 17004496 17052670 17100228 17146894 17193360 17240694 17290170 
2583.861 17342684 17398796 17458084 17519900 17583830 17649770 17718344 
2587.236 17790380 17866432 17946402 18029320 18113638 18197522 18280006 
2590.611 18360742 18439902 18518420 18596642 18674324 18750600 18824364 
2593.987 18894750 18961340 19024478 19085098 19144168 19202208 19259458 
2597.362 19315608 19370690 19424740 19478208 19532202 19587730 19645792 
2600.737 19707228 19772312 19841568 19914720 19991528 20071610 20154382 
2604.112 20238904 20324728 20411576 20500072 20591192 20686364 20786630 
2607.488 20892796 21005246 21123712 21247668 21376500 21509722 21646400 
2610.863 21785730 21926362 22066376 22204238 22338342 22467742 22592260 
2614.238 22712170 22827850 22939406 23046588 23149010 23246142 23337946 
2617.613 23424838 23507514 23586990 23663856 23738670 23811396 23881756 
2620.989 23949744 24015364 24078470 24139274 24197494 24252954 24304988 
2624.364 24353312 24397998 24439602 24478862 24516722 24553956 24591018 
2627.739 24628154 24665362 24702922 24740980 24780090 24820152 24861238 
2631.114 24902956 24944680 24985600 25025156 25063064 25099012 25132888 
2634.490 25164486 25193594 25219930 25243564 25264950 25284758 25304216 
2637.865 25324166 25345590 25369020 25394594 25422662 25453368 25487098 
2641.240 25524240 25565004 25609076 25655894 25704790 25754784 25805378 
2644.615 25856438 25908486 25962126 26018340 26078008 26141662 26210006 
2647.990 26283078 26360950 26443060 26528852 26617266 26706930 26796580 
2651.366 26885434 26972760 27058796 27143578 27228060 27312770 27398486 
2654.741 27486054 27576144 27669434 27766312 27867412 27972356 28080682 
2658.116 28191862 28305016 28419262 28534598 28650674 28767488 28884408 
2661.491 29001002 29116068 29229250 29339840 29447974 29554506 29660494 
2664.867 29767114 29875036 29984762 30095720 30207880 30320744 30434206 
2668.242 30548658 30664704 30782880 30903472 31026730 31152268 31279620 
2671.617 31408328 31537856 31668176 31799282 31931568 32065534 32201864 
2674.992 32340874 32482680 32626856 32772758 32919314 33065922 33212364 
2678.368 33358786 33506080 33655392 33807620 33963380 34122808 34285424 
2681.743 34450964 34619404 34790888 34966396 35146888 35333392 35526480 
2685.118 35726524 35933468 36147240 36367460 36593960 36826560 37064588 
2688.493 37307516 37554556 37805128 38058668 38315324 38575576 38840184 
2691.869 39109628 39384464 39664704 39950392 40241428 40537756 40839340 
2695.244 41146344 41458744 41776260 42098528 42425536 42756988 43092908 
2698.619 43433368 43778308 44127780 44480944 44837120 45195348 45554388 
2701.994 45913288 46271116 46627028 46980016 47329448 47674248 48013844 
2705.370 48347296 48673892 48992680 49302500 49601804 49889796 50165296 
2708.745 50428168 50678836 50918136 51147284 51366968 51577580 51779300 
2712.120 51971476 52154324 52327904 52492468 52648680 52796788 52936416 
2715.495 53066500 53185392 53291088 53381604 53455680 53512344 53551364 
2718.871 53573552 53580300 53573816 53557320 53534272 53508896 53485284 
2722.246 53467412 53458940 53462988 53482064 53518308 53573404 53648564 
2725.621 53743764 53858904 53992492 54142976 54308680 54488040 54679808 
2728.996 54883124 55097256 55321356 55554116 55793860 56039160 56288456 
2732.372 56540376 56793808 57047576 57300472 57550596 57796404 58036068 
2735.747 58268352 58492276 58707624 58914240 59112336 59301900 59482848 
2739.122 59655656 59821116 59980480 60135756 60289180 60442780 60598596 
2742.497 60758172 60923176 61095072 61275856 61467168 61670704 61887524 
2745.873 62117720 62360040 62612952 62873168 63137220 63401504 63661388 
2749.248 63912296 64149476 64368652 64565792 64738400 64885116 65005632 
2752.623 65100848 65172068 65220460 65247112 65252340 65235980 65197400 
2755.998 65135456 65048232 64934208 64791328 64618080 64413264 64176588 
2759.374 63908032 63607640 63276068 62913880 62521488 62100440 61653064 
2762.749 61183184 60696020 60197220 59693708 59191616 58696400 58212920 
2766.124 57745120 57296424 56870248 56469808 56098240 55758256 55452084 
2769.499 55181072 54945540 54745088 54578656 54444172 54339504 54261972 
2772.875 54208360 54175740 54160428 54159148 54168724 54185688 54206672 
2776.250 54228256 54246204 54256604 54255212 54237868 54201268 54143124 
2779.625 54062020 53958164 53832496 53687632 53526700 53353088 53170748 
2783.000 52982980 52792936 52603200 52416088 52233316 52056184 51885068 
2786.375 51719316 51557020 51395344 51230156 51056860 50871832 50671984 
2789.751 50456152 50224656 49979564 49723988 49460944 49193832 48925624 
2793.126 48658804 48396224 48140536 47895140 47663672 47449772 47256848 
2796.501 47087872 46944904 46829080 46740880 46679964 46645764 46637428 
2799.876 46654324 46695828 46761436 46850372 46961596 47093704 47244880 
2803.252 47412592 47594416 47787604 47989380 48196956 48408264 48620632 
2806.627 48831920 49039528 49241184 49434324 49616588 49785368 49938228 
2810.002 50072216 50184560 50272492 50333356 50365168 50366728 50337448 
2813.377 50277660 50188576 50071768 49929716 49765192 49582308 49385724 
2816.753 49180920 48974688 48773788 48585352 48416484 48273488 48161896 
2820.128 48086232 48049520 48053184 48096932 48178776 48295820 48443564 
2823.503 48617592 48812456 49023020 49243636 49468260 49690624 49904404 
2826.878 50103524 50282428 50436872 50564092 50662492 50732084 50774056 
2830.254 50790368 50783404 50756776 50713612 50657796 50593092 50522700 
2833.629 50449788 50377000 50306532 50240464 50180692 50128512 50085264 
2837.004 50052060 50029980 50020272 50025328 50047936 50092520 50164364 
2840.379 50269520 50414696 50606604 50852308 51159768 51537768 51997248 
2843.755 52551212 53213704 54001420 54929220 56008892 57245272 58631924 
2847.130 60148088 61753052 63388236 64980352 66440292 67680832 68621976 
2850.505 69199360 69377408 69148928 68537152 67587440 66364160 64942332 
2853.880 63394412 61792512 60200456 58667268 57232764 55922356 54748096 
2857.256 53711328 52804572 52014240 51323296 50713912 50169944 49676580 
2860.631 49221404 48794140 48385220 47987272 47593752 47199372 46800920 
2864.006 46396820 45987796 45576800 45169284 44772908 44396196 44048968 
2867.381 43740452 43478044 43266780 43109076 43004400 42949456 42938812 
2870.757 42965772 43021488 43096456 43180548 43263412 43336008 43391296 
2874.132 43425092 43436592 43427912 43403232 43367236 43324328 43277800 
2877.507 43229592 43180732 43131544 43082260 43033488 42985744 42939840 
2880.882 42896424 42856412 42820464 42789568 42765108 42748252 42740024 
2884.258 42741340 42752380 42773040 42802584 42841124 42888156 42944192 
2887.633 43009524 43085000 43171180 43268940 43378844 43501044 43635916 
2891.008 43783476 43944028 44118320 44307536 44514060 44740988 44992252 
2894.383 45271832 45583276 45928716 46308604 46720880 47160884 47621300 
2897.759 48091452 48558636 49008256 49424596 49794176 50106500 50356612 
2901.134 50545516 50680956 50775548 50843856 50902116 50964860 51043820 
2904.509 51149112 51288728 51469236 51697296 51979020 52319944 52725516 
2907.884 53200556 53749576 54377204 55088380 55887760 56779532 57766088 
2911.260 58846360 60014912 61261164 62567940 63910796 65260856 66582100 
2914.635 67834776 68981624 69986008 70820560 71469736 71931024 72214528 
2918.010 72339368 72330840 72212024 72000440 71705304 71325544 70852816 
2921.385 70273232 69574032 68746600 67790272 66714288 65538540 64291648 
2924.760 63005732 61716384 60456716 59253440 58127836 57092920 56154044 
2928.136 55310100 54555396 53880768 53275284 52728172 52230140 51773252 
2931.511 51352980 50966832 50614760 50298124 50018824 49778528 49578184 
2934.886 49417428 49294444 49205968 49147080 49111016 49090352 49076288 
2938.261 49060156 49034852 48994908 48937492 48863252 48775384 48679004 
2941.637 48580276 48486016 48401372 48330000 48273232 48229388 48193588 
2945.012 48158232 48114256 48052296 47964068 47845120 47695400 47520260 
2948.387 47328748 47133772 46949040 46786636 46656428 46564388 46512240 
2951.762 46498152 46517400 46563580 46628908 46705608 46786492 46864620 
2955.138 46934532 46991868 47033364 47057480 47063868 47054084 47030596 
2958.513 46997184 46958160 46917112 46877136 46840040 46806416 46775976 
2961.888 46748152 46723244 46701952 46685684 46676124 46674836 46683136 
2965.263 46700848 46727524 46762248 46803908 46850928 46902124 46955904 
2968.639 47010956 47066120 47121144 47176508 47234060 47296528 47366548 
2972.014 47446668 47537892 47639968 47751208 47868576 47988936 48108704 
2975.389 48224428 48332596 48429932 48512544 48577236 48620668 48640088 
2978.764 48633564 48599992 48539184 48452120 48341184 48210284 48064288 
2982.140 47909272 47751652 47596712 47447924 47305988 47169156 47032480 
2985.515 46889868 46735348 46563432 46370572 46155652 45919252 45663328 
2988.890 45390376 45102592 44800600 44483700 44149748 43796156 43420844 
2992.265 43023572 42606564 42175312 41737556 41301260 40873708 40459408 
2995.641 40059092 39669784 39286160 38902220 38512428 38113288 37704180 
2999.016 37286360 36862880 36436932 36011976 35590740 35175164 34766372 
3002.391 34365244 33972300 33587836 33212618 32847262 32492820 32150444 
3005.766 31821136 31505506 31203710 30915000 30637932 30370988 30112448 
3009.142 29860980 29615906 29376780 29143386 28915324 28692228 28473246 
3012.517 28257736 28044698 27833780 27624660 27417650 27213280 27012318 
3015.892 26815894 26625580 26442428 26267730 26102182 25945524 25797010 
3019.267 25655436 25519496 25387990 25260560 25136892 25017154 24901344 
3022.643 24789142 24680266 24574608 24472692 24376092 24287572 24210526 
3026.018 24148802 24105332 24081796 24077664 24090342 24114686 24144212 
3029.393 24170834 24186214 24183166 24155912 24100710 24016974 23906436 
3032.768 23772616 23619876 23452990 23276030 23092642 22906224 22719432 
3036.144 22535022 22355504 22182514 22016910 21858654 21706550 21559268 
3039.519 21415380 21273940 21134354 20996832 20861610 20729214 20600122 
3042.894 20475168 20355422 20242132 20136266 20038404 19947780 19863038 
3046.269 19781918 19702478 19623570 19545200 19468574 19395602 19327732 
3049.645 19265624 19208650 19155146 19103206 19050962 18997686 18943342 
3053.020 18888418 18833708 18779662 18726660 18674738 18624342 18575960 
3056.395 18530384 18488028 18449304 18413800 18381306 18351444 18324380 
3059.770 18300878 18281974 18268566 18261032 18258924 18261238 18266734 
3063.146 18274822 18285706 18300154 18319332 18343978 18373910 18408098 
3066.521 18444604 18481320 18516310 18548400 18576410 18599754 18617080 
3069.896 18627076 18628286 18619328 18599960 18570912 18534118 18492142 
3073.271 18447612 18403118 18360360 18320648 18284324 18251322 18221294 
3076.646 18193238 18165838 18137752 18107662 18073982 18036608 17995578 
3080.022 17951686 17906518 17861668 17818618 17778436 17741848 17708886 
3083.397 17679208 17651806 17625822 17600220 17574548 17548706 17523522 
3086.772 17500650 17481506 17467674 17460118 17458532 17462258 17469536 
3090.147 17478676 17488370 17497684 17506412 17514796 17523488 17533286 
3093.523 17544774 17558850 17576100 17597010 17622026 17650770 17682728 
3096.898 17716962 17751824 17785858 17817754 17846822 17872750 17896230 
3100.273 17918226 17940290 17963632 17989500 18018166 18049318 18082306 
3103.648 18115848 18149118 18181664 18213658 18245896 18279416 18314738 
3107.024 18351996 18390640 18429600 18467870 18504728 18540412 18575510 
3110.399 18611340 18648832 18688782 18731192 18775682 18821528 18868104 
3113.774 18914546 18960094 19003950 19045216 19083126 19117160 19147388 
3117.149 19174712 19200026 19224754 19249414 19274110 19298182 19320632 
3120.525 19340688 19358184 19373254 19387146 19400866 19415420 19431394 
3123.900 19448754 19467708 19488118 19510298 19534662 19561316 19590294 
3127.275 19621422 19654008 19687464 19721512 19755978 19790864 19825752 
3130.650 19860088 19893110 19923602 19951248 19976298 19999854 20023900 
3134.026 20050374 20080738 20115926 20155666 20199192 20245604 20293966 
3137.401 20343582 20394246 20445750 20497744 20549574 20600852 20650920 
3140.776 20699394 20746174 20791148 20834566 20876630 20917620 20958372 
3144.151 20999544 21042182 21087152 21135224 21186538 21240606 21296490 
3147.527 21353322 21410124 21466448 21522186 21577514 21632676 21687600 
3150.902 21741940 21795554 21848130 21899318 21949468 21998682 22047308 
3154.277 22096148 22145692 22196706 22249958 22306042 22365028 22426850 
3157.652 22490668 22555682 22620916 22685916 22750714 22815488 22881076 
3161.028 22947650 23015354 23083662 23152086 23219996 23286936 23352770 
3164.403 23417774 23482192 23546272 23610220 23674422 23739440 23805830 
3167.778 23874158 23944738 24016800 24089188 24160572 24229166 24294336 
3171.153 24356116 24415276 24472972 24530150 24587196 24643652 24698644 
3174.529 24751256 24801174 24848852 24895412 24942222 24990338 25040320 
3177.904 25092130 25145422 25199740 25254800 25310748 25367790 25426210 
3181.279 25485764 25545850 25605808 25664646 25721806 25776968 25830696 
3184.654 25883342 25935990 25990056 26046730 26107458 26172770 26243056 
3188.030 26317330 26394222 26471692 26547872 26621386 26691638 26759260 
3191.405 26825126 26890582 26956788 27024484 27094236 27166398 27241112 
3194.780 27318664 27398628 27480724 27563788 27646728 27728484 27808240 
3198.155 27886278 27963202 28040068 28117832 28196706 28276584 28356972 
3201.531 28437092 28516624 28595464 28673894 28752162 28830300 28908346 
3204.906 28985842 29062570 29138460 29213764 29288866 29364230 29439644 
3208.281 29514962 29589336 29662448 29734044 29804694 29874894 29945782 
3211.656 30017886 30091636 30166748 30242940 30319856 30397318 30475328 
3215.031 30554168 30634054 30714846 30796396 30878212 30959758 31040468 
3218.407 31120018 31198156 31274776 31349986 31424108 31497564 31570818 
3221.782 31644296 31718146 31792328 31866704 31941090 32015704 32090790 
3225.157 32167214 32245576 32325882 32408200 32491286 32573744 32654430 
3228.532 32732312 32807130 32879464 32949984 33019516 33088590 33157642 
3231.908 33226744 33295530 33363760 33430852 33496310 33559808 33620700 
3235.283 33679236 33736136 33792432 33849812 33909600 33972264 34037408 
3238.658 34103672 34169372 34233076 34293848 34352260 34409252 34466280 
3242.033 34523932 34582192 34640648 34698392 34755100 34811136 34867720 
3245.409 34926496 34988872 35055464 35126156 35199956 35275672 35352296 
3248.784 35428932 35505768 35582652 35659580 35736420 35812840 35888588 
3252.159 35963848 36038972 36114440 36190600 36267280 36344044 36420172 
3255.534 36495272 36569232 36642480 36715920 36790424 36866704 36944656 
3258.910 37024064 37104104 37184300 37263976 37343336 37422424 37501452 
3262.285 37580528 37659768 37738876 37818212 37897712 37977948 38059392 
3265.660 38143024 38229240 38318836 38412216 38509240 38609504 38712008 
3269.035 38815252 38917872 39018672 39116952 39212896 39307708 39402496 
3272.411 39499016 39598528 39701624 39808416 39918756 40032244 40148528 
3275.786 40267600 40389296 40513676 40640784 40770588 40903192 41038720 
3279.161 41177164 41318352 41461660 41606152 41751052 41896076 42041656 
3282.536 42189328 42341588 42500508 42667972 42844236 43028148 43216784 
3285.912 43407404 43597416 43785456 43971892 44158260 44347240 44540856 
3289.287 44741024 44948044 45161856 45381140 45604808 45831716 46060884 
3292.662 46292196 46525776 46761984 47001316 47244292 47491652 47743588 
3296.037 48000484 48262680 48530772 48804964 49085640 49372360 49664544 
3299.413 49960940 50260104 50560780 50862404 51165844 51472856 51786092 
3302.788 52108108 52440988 52785752 53141988 53508336 53882796 54263548 
3306.163 54648504 55036548 55426784 55819140 56213588 56611224 57013192 
3309.538 57420976 57835964 58259108 58690480 59129648 59575836 60028420 
3312.914 60487220 60952460 61424760 61904488 62391292 62884308 63382068 
3316.289 63883388 64387476 64894468 65404468 65918312 66435740 66955680 
3319.664 67476584 67996728 68514536 69029752 69542648 70054328 70565912 
3323.039 71078416 71592296 72107648 72624320 73141760 73658992 74174096 
3326.415 74684416 75186952 75678152 76155376 76617288 77063616 77494992 
3329.790 77911976 78314712 78702256 79073056 79425160 79756992 80067136 
3333.165 80355088 80619976 80860712 81076192 81265280 81427752 81564504 
3336.540 81677336 81768368 81838568 81887936 81914104 81914152 81884376 
3339.916 81822088 81726408 81597496 81436184 81243712 81020560 80766448 
3343.291 80480408 80161928 79810224 79424680 79004928 78550128 78059912 
3346.666 77534520 76974984 76384496 75767424 75128728 74473504 73805376 
3350.041 73126232 72436448 71735320 71022256 70296680 69559680 68812560 
3353.417 68057760 67298000 66536060 65774912 65017252 64266248 63524372 
3356.792 62793708 62075704 61370716 60679100 60000796 59335668 58683692 
3360.167 58044776 57418824 56805328 56203896 55614220 55036624 54472004 
3363.542 53921732 53387372 52870096 52370444 51887868 51421492 50969964 
3366.917 50532304 50107652 49695748 49296300 48908788 48532884 48167416 
3370.293 47811236 47462928 47120996 46784168 46451060 46120312 45791288 
3373.668 45463028 45135608 44809200 44484364 44161820 43842448 43526280 
3377.043 43213380 42903592 42596216 42290708 41986396 41682372 41377720 
3380.418 41071752 40763852 40454096 40142496 39829660 39515744 39200388 
3383.794 38882980 38562680 38238644 37910764 37580168 37248848 36919692 
3387.169 36595400 36278300 35969680 35669364 35376020 35087396 34801372 
3390.544 34515572 34228380 33939048 33647584 33355314 33063706 32774866 
3393.919 32490070 32210142 31934812 31662970 31393438 31125214 30858326 
3397.295 30593986 30333606 30079208 29831098 29589124 29351822 29117236 
3400.670 28883520 28650144 28417458 28186700 27959138 27735194 27514468 
3404.045 27295376 27076074 26854910 26631674 26407356 26183892 25963498 
3407.420 25748208 25538752 25334772 25134996 24937802 24741468 24545366 
3410.796 24349316 24154476 23962104 23773562 23590280 23412738 23240654 
3414.171 23073284 22909192 22747328 22586816 22427094 22268268 22110546 
3417.546 21954206 21798900 21643926 21488904 21333064 21177006 21021558 
3420.921 20868772 20720594 20578824 20444152 20316326 20194298 20076262 
3424.297 19960652 19846112 19731602 19616846 19501496 19385380 19268880 
3427.672 19152202 19036006 18921676 18809694 18700854 18595188 18491830 
3431.047 18389328 18286814 18183216 18078954 17974996 17872820 17774052 
3434.422 17679690 17589558 17503134 17418902 17335652 17252346 17168644 
3437.798 17084374 16999740 16914468 16828350 16740462 16650524 16558573 
3441.173 16465196 16371738 16280191 16191587 16106747 16024848 15944166 
3444.548 15862092 15775841 15683662 15585117 15481442 15375562 15270907 
3447.923 15170946 15077901 14992628 14914299 14840819 14769990 14699549 
3451.299 14627989 14554626 14479425 14402558 14324334 14244688 14163481 
3454.674 14080818 13996562 13911809 13827312 13744712 13664522 13587628 
3458.049 13513449 13441196 13369125 13295837 13219726 13140179 13057198 
3461.424 12971672 12885071 12799307 12715912 12636185 12560667 12489391 
3464.800 12421706 12356623 12292912 12229008 12163748 12095740 12024437 
3468.175 11949741 11872265 11793544 11715346 11639716 11567672 11499552 
3471.550 11434029 11369229 11303045 11233471 11160304 11084396 11007550 
3474.925 10931907 10859097 10790036 10724110 10660163 10596769 10533080 
3478.301 10468923 10404709 10341081 10278751 10217992 10158562 10100261 
3481.676 10042815 9985919 9929573 9873642 9817750 9761223 9703585 9644464 
3485.533 9583860 9522418 9461323 9401693 9344136 9288753 9235308 9183221 
3489.391 9131818 9081335 9031770 8983801 8937631 8893460 8850545 8808548 
3493.248 8766858 8725646 8685080 8645532 8607374 8570502 8534749 8499674 
3497.105 8465312 8432711 8402677 8376869 8356095 8340423 8328465 8318164 
3500.963 8306985 8292902 8275239 8254707 8233026 8212868 8196153 8183896 
3504.820 8175794 8170189 8164820 8158068 8148142 8134941 8119480 8103342 
3508.678 8088928 8078633 8074008 8076404 8085957 8101688 8122484 8146555 
3512.535 8172248 8198349 8223875 8248391 8271591 8293239 8313267 8330898 
3516.393 8345929 8357784 8366499 8372140 8375653 8377511 8378423 8378220 
3520.250 8376194 8371295 8362243 8348022 8328365 8303506 8274563 8242584 
3524.107 8208579 8172248 8133186 8089604 8040253 7983788 7920379 7850939 
3527.965 7777328 7702144 7627243 7554176 7483278 7414212 7346673 7279684 
3531.822 7212975 7146209 7078779 7010114 6939406 6865882 6789005 6708675 
3535.680 6625669 6541535 6457921 6376275 6297971 6223581 6153538 6087909 
3539.537 6026893 5970453 5918253 5869720 5823678 5778513 5732346 5683398 
3543.395 5630292 5572227 5509168 5441724 5371371 5299856 5230164 5164406 
3547.252 5104961 5052797 5007411 4967191 4929052 4889912 4847190 4799647 
3551.109 4747521 4692956 4638766 4587931 4542628 4503488 4470178 4440652 
3554.967 4412969 4385121 4355401 4322904 4287198 4248183 4205992 4161396 
3558.824 4115100 4068039 4021050 3975203 3931501 3890946 3854606 3822883 
3562.682 3795875 3772445 3750185 3725688 3694409 3652071 3595839 3525485 
3566.539 3443853 3356893 3272756 3197647 3136368 3089947 3056043 3031118 
3570.396 3010532 2990780 2969062 2944508 2916554 2885900 2853080 2818728 
3574.254 2783245 2746665 2708788 2669313 2628309 2585909 2542580 2499321 
3578.111 2457433 2418282 2383065 2352215 2325665 2302846 2282428 2263809 
3581.969 2246656 2231335 2218680 2209555 2203860 2200696 2196567 2187209 
3585.826 2167328 2133064 2082555 2017871 1945475 1873657 1810501 1761793 
3589.684 1728925 1709830 1699485 1692001 1682521 1667520 1645601 1617763 
3593.541 1586170 1553448 1521992 1493430 1468661 1448382 1432690 1421221 
3597.398 1412977 1406263 1399116 1388977 1374784 1356503 1335763 1315456 
3601.256 1298308 1286743 1281425 1281525 1285579 1291528 1298208 1304821 
3605.113 1310538 1313994 1313662 1307148 1292891 1270725 1243077 1214003 
3608.971 1188552 1170412 1159913 1154531 1149614 1139615 1121011 1093473 
3612.828 1059758 1025349 995824 975168 964508 961852 963213 963612 958763 
3617.168 945049 921075 886942 845375 800427 757773 722823 699193 687910 
3621.507 687611 694713 705499 716717 727569 738854 753093 772145 796078 
3625.847 821373 841856 847334 829075 781539 707059 617726 531297 465617 
3630.187 430657 425914 443327 471853 501408 524364 537368 540487 537103 
3634.526 531165 526686 525857 528511 533520 539060 543605 546989 549378 
3638.866 551866 554587 557506 559629 559464 556212 550373 543970 539657 
3643.205 540620 548880 564506 585508 608037 627581 639692 641053 630003 
3647.545 606444 571640 527316 476198 421901 369634 325995 297778 289422 
3651.885 302420 333953 378290 426976 471654 504593 520217 516435 495935 
3656.224 465484 433742 409431 398221 402102 419911 447705 480742 514014 
3660.564 543274 565701 580399 587897 589987 589290 588361 589523 595395 
3664.903 608568 631994 667434 715887 775797 843251 914102 985795 1061718 
3669.243 1153402 1280860 1468129 1733349 2084553 2517450 3020041 3575594 
3673.100 4165277 4767018 5344066 5842484 6197397 6344366 6249631 5923023 
3676.958 5411159 4775393 4074594 3362036 2679748 2064577 1545899 1138651 
3680.815 842919 643177 516668 437921 386945 352092 328582 315418 312234 
3685.155 315782 320391 319198 305304 274900 228519 171303 110980 55436 10470 
3689.977 -21934 -42608 -53475 -57318 -56423 -52713 -47842 -42906 -38831 
3694.316 -35783 -33298 -30714 -26970 -21238 -13087 -2054 11862 28164 45594 
3699.138 61998 74624 80224 76446 62694 41021 16269 -6096 -20907 -25413 
3703.960 -19316 -4605 15440 37940 60838 83240 105544 127982 150388 171568 
3708.781 188838 199247 199380 187413 162519 126955 85195 43440 8117 -15208 
3713.603 -23491 -17328 397 25215 51559 74624 91360 100672 103390 102131 
3718.425 99148 95966 92851 88476 81417 71045 57822 44335 33201 26839 25679 
3723.729 28628 32638 34427 31511 23393 12127 1789 -2783 2253 18688 45429 
3729.033 78667 112968 142168 161525 167889 161889 146576 127054 107665 90233 
3733.855 73563 54376 29755 -265 -31940 -58610 -73451 -72723 -56788 -29289 
3738.677 5268 43474 84168 127916 175181 224176 269496 300961 305636 272082 
3743.498 196661 89404 -24485 -112939 -153648 -142718 -92367 -22431 48345 
3747.838 104517 138124 148465 140908 123872 104848 87979 72801 57590 42380 
3752.660 29457 23956 29755 48510 78137 114393 151747 184894 209888 224839 
3757.481 229149 223281 208065 185059 157382 129507 107533 97126 101832 
3761.821 121154 150951 184164 212606 230773 235481 228486 214662 200905 
3766.161 192385 191225 195833 202396 206971 206739 201369 193214 185888 
3770.500 182673 185623 194175 206275 218938 229281 235713 237834 236939 
3774.840 235282 235613 239625 247813 258124 266844 269496 262136 243139 
3779.179 214827 182441 153437 133782 127054 133119 148300 167458 185656 
3783.519 199347 207137 209656 208993 207369 206308 206308 207634 209921 
3787.859 213236 217247 221955 226828 230873 233724 235381 236707 239525 
3792.198 245029 253549 263595 271784 273906 266711 249305 224275 198319 
3796.538 180054 176507 190894 220596 258422 293501 314224 312002 283454 
3800.877 233724 175115 125529 99943 105113 138190 188971 244200 290119 
3805.217 316379 317308 294495 256135 214728 183700 170441 175645 194407 
3809.557 219634 244664 266081 283918 300928 320259 343901 370497 395469 
3813.896 412250 414240 397956 366119 328184 297678 285842 298341 332030 
3818.236 377925 422133 451619 455666 429695 377328 311173 249106 206175 
3822.575 190164 200076 228088 264026 298143 324171 338994 343537 341381 
3826.915 337568 336175 339458 347582 358525 370364 380711 388372 393213 
3831.255 395933 398089 401272 407209 416495 429530 444787 460077 471654 
3835.594 475501 468337 448435 417258 378887 340453 308620 288295 281200 
3839.934 285278 296949 311074 323575 331500 333356 329410 321220 311107 
3844.273 301922 296816 298143 307294 324735 349771 380910 416661 455467 
3848.613 496698 539425 582190 621873 652667 666206 652933 604155 517364 
3852.953 400377 274105 164243 91592 63887 75684 114029 165270 219137 269363 
3857.774 313196 350732 383032 410957 434604 453709 467308 475070 477425 
3862.114 474838 468038 457324 443228 427075 411719 401505 400974 412880 
3866.454 436395 466778 495404 513251 511990 488670 446644 397392 355640 
3870.793 333091 333920 353883 383530 411554 428999 432249 423128 408635 
3875.133 397160 395833 407408 430226 458850 486580 506716 514080 506948 
3879.472 486680 459082 431719 412880 409099 422001 448999 483296 515871 
3883.812 537037 539657 521411 486846 447142 415135 402068 412051 441868 
3888.152 482268 522407 551899 563345 554520 528444 492783 456727 428402 
3892.491 412549 409796 418286 434969 457192 483097 511128 539724 566829 
3896.831 589987 606610 614640 613810 605250 591779 577280 564639 555283 
3901.170 548947 542875 534184 520582 501872 479913 458916 443228 437059 
3905.510 441702 456130 476729 499418 519819 535278 545098 550108 552430 
3909.850 554885 559430 567227 578740 593206 609829 627647 645300 661826 
3914.189 675598 684956 688374 685056 675033 660233 642977 626320 612417 
3918.529 602463 596888 595429 597917 604553 615171 629406 645599 661096 
3922.868 672312 675830 669989 655289 634748 613246 596059 586868 587300 
3927.208 595827 609265 623864 635909 642977 644305 640223 632326 622869 
3931.548 613810 607440 605349 608203 615801 626884 639294 650643 658673 
3935.887 662357 661627 658142 654061 651539 652236 656151 662324 668496 
3940.227 672843 673407 669591 661826 651472 640887 632326 627382 627116 
3944.566 631131 638564 647756 657014 664912 670222 673009 673806 673208 
3948.906 672611 672412 673407 675199 678120 681903 686914 692987 699957 
3953.246 707258 713829 718741 720732 719604 715721 709946 703342 697268 
3957.585 692324 688872 686781 685520 684857 684292 683330 681604 678551 
3961.925 674137 668662 663186 659403 659105 663518 673308 687511 704205 
3966.264 720567 734207 743003 746322 744629 739584 733112 727171 723321 
3970.604 722392 724616 729528 736265 743667 750537 756080 759964 762221 
3974.944 763847 765673 768727 773307 779415 786452 793755 800626 806833 
3979.283 812344 817191 821506 825058 827083 827183 825191 821008 815199 
3983.623 808294 801257 794120 786917 779614 772411 765772 760694 758039 
3987.962 758503 762420 769324 778552 788709 798900 808128 815697 821207 
3992.302 824328 824726 822469 817987 812244 806734 802883 801655 803282 
3996.642 807165 811680 815597 817224 816162 812045 805771 798070 790136 
##END=
