
##TITLE=mdmaHCL00420_7
##JCAMP-DX=5.01  $$ Nicolet v. 1
##DATATYPE=INFRARED SPECTRUM
##ORIGIN=UniL
##OWNER=Nicolet
##LONGDATE=2011/08/23
##TIME=10:09:41
##SPECTROMETER/DATA SYSTEM=Nicolet iS5
##DATA PROCESSING=
Ratio against background
%Transmittance->Absorbance
Truncated
ElementMultiply or ElementDivide
##COMMENTS=
Number of sample scans: 32
Collection length: 51.19 sec
Sample gain: 2.0
Background collected on: Mar Aout 23 10:07:07 2011 (GMT+02:00);
Number of background scans: 32
Background gain: 2.0
Sample spacing:  1.000
Number of scan points: 12415
Resolution points: 8192
Number of FFT points: 65536
Apodization: N-B fort;
Phase correction: Mertz;
Laser frequency: 15798.0 cm-1
Number of rejected sample scans: 0
Number of rejected background scans: 0
Bench serial number: ASB1000141;
##RESOLUTION=4.000
##XUNITS=1/CM
##YUNITS=ABSORBANCE
##FIRSTX=649.893372
##LASTX=4000.122314
##FIRSTY=0.082168
##MAXX=4000.122314
##MINX=649.893372
##MAXY=0.253400
##MINY=0.002817
##XFACTOR=1.000000
##YFACTOR=1.000000E-009
##NPOINTS=6950
##DELTAX=0.482117
##ZPD=6100
##XYDATA=(X++(Y..Y))
649.893 82167736 81911344 81702416 81558872 81479032 81441304 81415560 
653.268 81382360 81344232 81329968 81379800 81529448 81796568 82173424 
656.643 82636720 83164152 83750088 84408752 85166736 86046928 87056064 
660.018 88182200 89404728 90709424 92101032 93598456 95223992 96980224 
663.393 98838928 100741712 102620520 104417000 106086120 107601816 108938288 
666.767 110052040 110878888 111351208 111433472 111145896 110543776 
669.660 109677512 108568584 107209672 105586696 103701520 101593072 99338552 
673.035 97031792 94769944 92620240 90612056 88747392 87015248 85407432 
676.410 83924544 82572440 81353104 80257736 79266608 78353008 77491424 
679.785 76665504 75868464 75099184 74358600 73642504 72942536 72249200 
683.159 71555608 70862416 70178080 69515432 68888072 68303264 67763240 
686.534 67265544 66806056 66381648 65990896 65631100 65296592 64975648 
689.909 64651952 64306096 63922040 63490816 63013160 62497576 61958104 
693.284 61409188 60861652 60322112 59794692 59282644 58792028 58331484 
696.659 57911904 57543148 57231700 56978168 56777496 56620548 56497356 
700.034 56399248 56321120 56261260 56219660 56196428 56190320 56198692 
703.408 56218716 56248056 56286344 56333644 56391024 56457696 56532116 
706.783 56612696 56699940 56797132 56911720 57053396 57231480 57456680 
710.158 57740772 58099052 58554756 59135232 59866452 60761908 61807904 
713.533 62954396 64109304 65159364 65984384 66485704 66614972 66380568 
716.908 65848552 65120944 64329684 63613936 63100240 62909892 63142120 
720.282 63860432 65081300 66749140 68729096 70792872 72661448 74052032 
723.657 74717280 74524528 73477544 71723088 69502008 67102520 64798676 
727.032 62779276 61146832 59916692 59044156 58456188 58078864 57856744 
730.407 57748640 57725668 57764840 57842016 57935072 58027504 58110260 
733.782 58183408 58251948 58322124 58396676 58474796 58553924 58632376 
737.156 58711568 58795708 58887416 58986764 59088232 59184512 59268592 
740.531 59339432 59403172 59472168 59560596 59678348 59827468 60001748 
743.906 60189608 60377168 60553612 60712368 60850672 60968168 61064832 
747.281 61141112 61198748 61242052 61278600 61317864 61368124 61434340 
750.656 61515992 61608732 61705420 61801528 61895016 61987912 62084036 
754.031 62187988 62302364 62428096 62565268 62714384 62876232 63051932 
757.405 63240804 63440576 63647120 63856444 64067176 64280888 64501896 
760.780 64735136 64983196 65245180 65517308 65795884 66081128 66381104 
764.155 66714636 67109360 67605104 68250648 69097336 70196888 71584560 
767.530 73260624 75169544 77188352 79136864 80785040 81920312 82399000 
770.905 82192320 81411976 80290304 79132288 78205288 77682208 77582096 
774.279 77771496 77997808 77965856 77446520 76318488 74613952 72484328 
777.654 70161720 67880224 65812700 64061908 62644796 61518892 60609684 
781.029 59842224 59160556 58529656 57937384 57384672 56880144 56433620 
784.404 56055676 55757428 55549256 55440108 55436836 55542404 55757580 
787.779 56081612 56516224 57065980 57740808 58553392 59519404 60655860 
791.154 61979312 63509716 65269636 67284464 69582080 72185888 75107816 
794.528 78339600 81847976 85570736 89415192 93275752 97038760 100599880 
797.903 103891464 106895480 109663312 112308088 115004640 117950176 
800.796 121307184 125166760 129483952 134059560 138509728 142326352 
803.689 144973296 145950848 144960160 141970224 137245648 131274896 
806.581 124663016 118013736 111754952 106107776 101067584 96463424 92040944 
809.956 87563152 82900520 78048488 73123408 68299344 63767828 59677400 
813.331 56106084 53071072 50537964 48447084 46727928 45316956 44161304 
816.706 43215024 42441720 41812228 41303156 40899660 40592356 40375220 
820.081 40243068 40189632 40208168 40293740 40445696 40669420 40973864 
823.455 41370720 41869984 42477088 43193396 44015524 44936248 45943156 
826.830 47017748 48134688 49259780 50357240 51396876 52363376 53266964 
830.205 54148492 55082812 56165092 57506228 59218652 61388312 64060876 
833.580 67210648 70728408 74392888 77877640 80807232 82768800 83416944 
836.955 82557608 80183328 76495800 71845520 66687360 61459420 56516072 
840.329 52114164 48375964 45321152 42896932 41015884 39580164 38497256 
843.704 37693444 37106560 36685164 36390340 36191500 36068316 36009452 
847.079 36008048 36057728 36150196 36274088 36417940 36574168 36741524 
850.454 36924888 37133304 37375076 37654672 37972272 38325312 38712368 
853.829 39135516 39601688 40119088 40695836 41336940 42044284 42819296 
857.204 43667280 44599196 45634320 46798708 48120620 49633676 51374460 
860.578 53381116 55695724 58353352 61368464 64714328 68304512 71983624 
863.953 75513712 78619104 81013896 82441624 82744464 81879936 79938104 
867.328 77115136 73690600 69981952 66272140 62806772 59759216 57221120 
870.703 55225732 53756328 52766744 52192396 51961544 52004044 52243816 
874.078 52607912 53027452 53436308 53784488 54041160 54199804 54278488 
877.452 54315136 54360460 54461072 54651620 54942868 55317024 55727028 
880.827 56103708 56374764 56471732 56350580 56002224 55454752 54768620 
884.202 54018832 53286896 52638920 52116776 51739880 51507440 51408140 
887.577 51428876 51561088 51801808 52150776 52606564 53162396 53804820 
890.952 54517004 55281464 56083272 56913532 57768060 58645236 59544256 
894.327 60462388 61394496 62333420 63268132 64183356 65059164 65867564 
897.701 66576772 67155384 67575680 67822928 67897264 67815216 67604240 
901.076 67298936 66936924 66551356 66172912 65829276 65543428 65336988 
904.451 65229780 65237560 65374732 65653800 66085136 66679364 67446624 
907.826 68395912 69534872 70867872 72396480 74119512 76035520 78142496 
911.201 80439016 82923096 85590144 88431072 91435096 94590744 97893048 
914.575 101347384 104974240 108808344 112890584 117263408 121956816 
917.468 126977232 132293776 137824816 143435888 148913056 153978688 
920.361 158316080 161576480 163465776 163803904 162579984 159989792 
923.254 156428752 152475536 148760512 145924288 144530688 144943600 
926.146 147310480 151502592 157144752 163603648 170071408 175735568 
929.039 179813600 181734496 181224960 178294032 173199424 166334592 
931.932 158168928 149147328 139658240 130057696 120640408 111659392 
934.824 103339360 95846392 89298504 83765832 79266128 75785368 73288168 
938.199 71730240 71059128 71205688 72077600 73532096 75370616 77360392 
941.574 79225288 80699488 81573064 81703696 81053624 79683264 77740704 
944.949 75421192 72931872 70471352 68187376 66176160 64484372 63114224 
948.324 62040696 61223736 60623476 60202588 59929704 59780812 59733932 
951.698 59769556 59871280 60025564 60223176 60459992 60734200 61045040 
955.073 61389952 61763596 62158892 62568940 62989100 63417652 63855984 
958.448 64306436 64770556 65248184 65737984 66238524 66750148 67275328 
961.823 67817424 68379240 68961232 69560848 70174032 70796776 71427600 
965.198 72067864 72720792 73389576 74075144 74776200 75489504 76212640 
968.573 76945832 77692400 78457632 79246208 80059568 80895760 81750368 
971.947 82618608 83498296 84390248 85298296 86226232 87176040 88147416 
975.322 89138744 90149104 91180496 92237944 93328080 94456624 95625896 
978.697 96834760 98079888 99359424 100674648 102031296 103437312 104899480 
982.072 106421400 108001288 109633288 111309552 113021920 114760784 
984.964 116511896 118254376 119955880 121574512 123067608 124393784 
987.857 125524464 126449000 127173336 127719120 128117248 128407600 
990.750 128633488 128839152 129071816 129372936 129775568 130302104 
993.643 130960224 131745888 132647408 133652168 134750160 135935712 
996.535 137207232 138562736 139998128 141506704 143080048 144711472 
999.428 146397008 148134608 149919600 151741936 153581776 155412048 
1002.321 157204384 158933344 160584304 162155600 163656720 165104592 
1005.213 166520128 167927808 169353344 170826416 172380000 174043952 
1008.106 175842240 177786656 179874640 182091088 184412976 186817632 
1010.999 189283056 191789008 194313904 196827696 199292848 201669984 
1013.891 203922128 206026112 207976336 209781104 211453280 212999664 
1016.784 214412848 215671232 216744336 217603728 218234464 218640768 
1019.677 218847872 218896864 218845760 218766160 218734704 218839136 
1022.570 219166096 219787264 220757584 222101264 223812432 225858944 
1025.462 228192992 230762416 233510576 236381376 239311840 242220096 
1028.355 245010896 247574688 249793312 251562064 252789264 253399664 
1031.249 253337984 252560016 251035984 248758656 245749600 242066480 
1034.142 237795520 233049648 227949600 222606208 217126352 211604064 
1037.035 206123568 200772608 195634224 190785168 186298160 182229344 
1039.928 178620256 175497712 172867872 170712032 168973776 167555360 
1042.821 166302240 165005408 163439680 161369984 158604672 155039776 
1045.714 150668768 145592304 139986416 134086224 128135536 122346176 
1048.607 116899392 111915400 107457304 103543992 100156040 97250848 94771392 
1051.982 92660064 90862568 89330320 88025256 86914744 85968648 85158432 
1055.357 84451936 83813736 83209784 82606464 81975488 81297440 80560616 
1058.733 79762208 78908240 78013912 77103144 76206992 75364312 74615440 
1062.108 73998400 73547520 73287384 73233208 73390672 73756296 74316880 
1065.483 75047112 75910920 76856128 77816872 78723704 79505048 80100800 
1068.858 80473592 80608368 80515024 80220432 79763608 79185888 78523136 
1072.234 77806056 77055816 76285144 75501928 74710472 73915512 73125176 
1075.609 72351776 71613432 70932672 70331512 69829704 69440496 69168552 
1078.984 69009504 68951872 68979752 69072512 69206552 69357272 69495872 
1082.359 69594104 69628752 69584800 69462352 69278752 69070144 68884968 
1085.735 68777736 68806920 69022168 69463632 70158920 71118800 72336432 
1089.110 73783704 75414960 77164048 78951160 80698488 82332600 83797984 
1092.485 85063792 86119000 86968416 87623800 88097536 88398664 88533520 
1095.860 88511824 88352368 88087592 87769120 87458944 87222336 87116312 
1099.236 87169480 87371256 87660280 87934896 88055328 87866864 87239792 
1102.611 86081504 84364536 82129304 79480736 76566928 73545512 70578032 
1105.986 67798016 65300092 63146144 61361176 59943320 58872388 58117648 
1109.361 57644048 57412548 57385772 57525404 57791068 58142724 58537544 
1112.737 58929496 59276112 59536616 59678348 59682304 59542468 59266960 
1116.112 58873944 58389584 57841752 57256272 56656940 56062760 55487660 
1119.487 54942196 54432864 53962852 53533184 53143560 52793460 52482784 
1122.862 52211116 51976032 51770676 51582652 51393260 51179604 50921232 
1126.238 50602956 50221124 49784772 49315416 48842896 48397668 48008032 
1129.613 47693476 47462484 47313044 47233688 47207016 47210564 47221940 
1132.988 47221092 47192392 47128564 47031300 46911316 46785308 46673468 
1136.363 46595816 46566712 46594708 46680076 46816160 46988988 47179168 
1139.739 47365144 47522148 47626216 47657976 47602072 47450328 47201364 
1143.114 46859676 46433432 45933540 45372900 44765120 44124884 43468816 
1146.489 42812312 42170308 41555064 40974484 40432712 39930448 39466248 
1149.864 39038536 38646192 38288908 37966740 37679496 37425780 37203796 
1153.240 37011908 36849532 36717472 36617424 36551064 36518988 36520252 
1156.615 36552256 36612160 36698004 36808776 36944908 37107460 37296720 
1159.990 37512324 37752932 38016752 38302008 38607224 38929796 39265232 
1163.365 39606660 39943600 40264148 40556196 40808800 41013376 41164268 
1166.740 41257500 41290732 41263148 41176472 41035224 40847532 40625280 
1170.116 40381368 40129444 39881524 39647280 39434608 39250976 39103684 
1173.491 39001164 38953064 38967636 39052564 39213296 39453472 39776748 
1176.866 40187744 40692560 41299476 42017200 42854108 43818184 44916588 
1180.241 46156976 47549132 49103744 50833388 52750880 54866316 57187288 
1183.617 59716292 62449096 65370648 68448936 71634456 74848464 77986040 
1186.992 80928016 83536488 85679496 87247160 88154480 88358664 87861352 
1190.367 86707840 84979128 82781672 80241240 77478320 74605848 71724224 
1193.742 68909080 66219376 63696572 61364076 59233048 57303572 55567220 
1197.118 54009976 52614268 51362152 50235072 49215876 48289484 47441788 
1200.493 46660336 45934316 45253740 44611352 44002656 43426996 42887352 
1203.868 42389808 41942164 41551092 41220956 40952784 40744056 40589812 
1207.243 40483848 40420716 40395368 40402892 40438532 40496504 40571188 
1210.619 40657884 40754500 40862820 40987920 41138332 41323308 41551600 
1213.994 41830616 42165488 42559528 43014204 43529208 44102108 44727764 
1217.369 45398904 46106828 46843068 47601516 48378444 49173424 49988076 
1220.744 50825344 51689196 52584572 53518908 54502204 55546056 56663284 
1224.120 57863936 59153112 60528700 61981144 63493840 65043308 66602336 
1227.495 68139464 69619536 71008832 72275616 73394360 74351880 75147720 
1230.870 75795784 76320976 76760192 77159376 77569384 78051544 78673424 
1234.245 79502616 80611712 82066024 83918672 86210840 88965840 92190664 
1237.621 95876752 100002760 104533080 109413400 114575304 119931560 
1240.514 125376776 130806744 136115088 141203424 145991104 150404000 
1243.407 154375216 157844560 160751216 163038272 164655856 165558128 
1246.300 165707424 165076880 163652336 161440240 158470400 154798976 
1249.193 150498400 145647392 140322752 134586416 128489808 122081840 
1252.086 115415648 108562032 101614296 94676768 87868856 81310832 75104736 
1255.461 69339976 64079196 59352912 55165908 51496656 48306152 45540848 
1258.836 43142492 41053868 39217760 37584756 36113824 34771072 33533782 
1262.212 32387282 31322780 30335704 29421950 28577276 27796582 27074770 
1265.587 26407850 25793388 25230114 24716812 24250992 23828758 23445086 
1268.962 23096136 22779592 22496670 22250760 22047098 21890398 21784476 
1272.337 21732360 21736820 21801478 21931240 22131396 22404800 22750890 
1275.713 23163164 23628028 24124316 24625874 25100556 25512960 25830520 
1279.088 26024074 26075158 25980100 25750810 25412826 24998516 24544174 
1282.463 24079100 23623376 23187770 22775088 22385228 22018898 21679486 
1285.838 21373230 21106596 20884140 20707110 20573684 20481142 20427654 
1289.214 20412756 20437344 20502120 20606168 20746346 20918210 21117204 
1292.589 21339538 21581450 21838478 22103994 22367680 22618298 22845872 
1295.964 23045226 23218178 23373854 23527664 23696328 23896528 24142776 
1299.339 24446472 24817276 25261334 25779466 26363026 26990106 27626460 
1302.715 28223968 28728690 29092434 29275538 29256754 29035150 28628378 
1306.090 28068238 27394780 26654362 25890972 25144158 24448330 23826552 
1309.465 23291796 22846674 22485816 22198974 21975294 21806808 21688194 
1312.840 21616308 21588344 21599872 21645110 21718288 21815204 21934378 
1316.216 22076486 22242216 22429326 22632120 22841262 23047148 23243380 
1319.591 23428580 23606722 23784726 23968862 24161868 24361196 24560618 
1322.966 24752870 24931802 25093992 25239982 25373410 25500838 25631676 
1326.341 25778654 25957200 26182660 26468382 26820052 27233846 27694932 
1329.717 28181714 28671734 29145866 29594266 30016040 30416936 30804756 
1333.092 31185126 31560234 31928822 32288298 32637142 32976042 33307266 
1336.467 33634052 33958936 34284452 34613628 34950988 35303668 35679476 
1339.842 36084264 36520644 36986688 37477248 37986736 38511740 39051368 
1343.218 39606844 40179200 40767636 41369336 41980740 42599436 43224944 
1346.593 43857220 44491700 45113216 45693328 46186640 46536436 46687564 
1349.968 46591352 46219956 45572272 44674880 43579060 42350536 41068256 
1353.343 39808776 38639748 37619588 36786132 36157256 35730160 35484088 
1356.719 35385544 35395464 35479232 35608832 35764588 35935880 36117496 
1360.094 36308848 36514664 36746824 37025800 37376700 37826816 38393540 
1363.469 39076960 39855700 40689392 41526192 42304768 42965736 43453288 
1366.844 43716120 43718212 43442376 42896240 42111856 41142996 40055896 
1370.219 38912584 37768552 36664940 35626564 34670436 33810808 33063992 
1373.595 32451190 31993624 31704460 31582470 31610728 31763524 32013778 
1376.970 32344696 32753892 33254322 33870124 34634080 35586644 36771020 
1380.345 38236256 40029480 42178744 44673484 47437428 50328220 53125920 
1383.720 55563680 57382860 58340316 58264680 57089180 54880416 51851908 
1387.096 48324372 44685496 41272292 38308124 35894632 34021712 32615676 
1390.471 31576734 30810838 30238678 29797100 29442480 29143244 28879378 
1393.846 28642288 28431642 28252890 28111610 28010098 27945430 27911790 
1397.221 27902178 27912072 27941506 27994442 28077784 28198154 28360296 
1400.597 28565632 28811710 29093782 29405924 29741672 30095294 30462780 
1403.972 30842460 31234506 31639666 32058366 32489572 32931362 33383078 
1407.347 33847020 34328276 34834724 35374148 35951572 36568296 37221772 
1410.722 37907908 38621748 39357836 40106916 40851208 41563740 42209816 
1414.098 42752860 43168984 43453800 43629540 43739320 43843584 44009624 
1417.473 44296272 44748740 45383676 46182956 47093892 48043968 48962896 
1420.848 49793580 50502604 51081424 51544744 51931816 52302676 52732960 
1424.223 53290004 54014668 54910684 55947004 57074024 58240316 59410432 
1427.599 60564656 61697824 62814040 63921852 65034420 66169864 67357816 
1430.974 68636408 70041944 71603272 73330448 75217368 77247400 79410512 
1434.349 81715936 84193952 86889440 89838360 93041832 96443896 99948952 
1437.724 103459600 106905016 110245176 113448264 116471728 119232624 
1440.617 121605464 123448848 124609024 124955216 124406312 122931040 
1443.510 120560808 117383432 113549424 109250808 104692600 100094488 
1446.404 95651128 91524592 87845240 84688696 82068976 79933408 78184976 
1449.779 76707608 75400144 74209632 73137096 72233432 71567448 71199952 
1453.154 71152096 71398616 71871784 72480256 73135056 73753896 74288176 
1456.529 74737472 75158824 75644192 76284240 77153912 78295592 79730912 
1459.905 81467368 83494688 85781256 88264456 90860520 93449936 95876096 
1463.280 97972224 99566272 100533680 100844312 100582664 99922800 99058136 
1466.655 98166536 97371112 96739288 96304368 96070256 96019160 96106096 
1470.030 96256312 96363848 96289688 95900592 95107544 93912024 92415528 
1473.406 90784320 89187816 87743448 86520000 85552616 84860024 84459864 
1476.781 84362392 84558728 85013856 85667744 86450496 87289416 88128944 
1480.156 88939488 89718256 90488096 91287360 92163704 93164048 94335856 
1483.531 95734888 97423272 99469320 101933744 104847216 108182576 111827560 
1486.906 115591160 119186368 122255672 124431992 125354664 124756144 
1489.800 122539272 118813504 113891088 108189936 102146312 96097496 90243112 
1493.175 84686112 79447192 74521344 69926800 65714888 61976944 58822224 
1496.550 56337528 54556336 53451036 52957076 52993908 53486900 54377284 
1499.925 55612376 57139744 58905248 60844040 62884772 64956644 66971368 
1503.301 68826224 70395488 71498960 71910072 71374992 69682944 66797792 
1506.676 62951908 58602840 54220000 50112336 46385504 43011100 39920712 
1510.051 37062640 34416424 31995084 29825172 27923272 26290504 24908080 
1513.426 23746474 22774702 21965744 21297742 20748782 20296952 19922664 
1516.802 19612028 19362306 19179904 19072392 19041026 19074918 19151856 
1520.177 19247406 19344706 19447748 19580552 19776264 20056898 20421542 
1523.552 20851494 21321476 21813114 22320588 22853728 23431728 24075212 
1526.927 24794086 25584578 26433728 27326460 28253776 29214506 30215410 
1530.302 31266980 32379642 33562488 34821764 36159448 37571860 39045892 
1533.678 40558232 42077248 43572320 45017612 46396048 47690780 48884612 
1537.053 49961420 50899808 51681580 52292252 52725216 52977476 53047444 
1540.428 52939448 52665476 52249420 51721220 51105464 50411460 49629996 
1543.803 48744132 47742292 46636248 45464132 44281856 43139304 42057644 
1547.179 41026920 40012188 38974448 37891420 36774160 35665336 34626400 
1550.554 33705624 32919672 32252144 31667572 31132332 30628222 30160748 
1553.929 29750508 29418084 29166560 28974646 28797442 28579116 28255260 
1557.304 27760764 27046028 26100246 24984092 23825116 22762970 21880746 
1560.680 21187826 20646368 20203220 19809590 19424704 19020844 18585816 
1564.055 18126108 17663712 17228904 16847950 16530659 16268633 16039494 
1567.430 15818620 15587521 15341647 15091967 14860910 14671239 14535473 
1570.805 14453459 14415745 14410333 14426740 14456609 14491757 14521221 
1574.181 14532287 14513820 14463153 14392077 14326561 14297385 14322896 
1577.556 14402626 14520125 14654138 14786718 14908332 15018593 15122980 
1580.931 15228800 15340926 15460120 15583709 15709188 15835734 15964825 
1584.306 16097670 16232172 16360557 16471634 16553169 16598091 16608110 
1587.682 16594201 16573651 16565561 16587351 16650902 16764017 16932108 
1591.057 17158512 17443598 17780232 18151984 18530176 18877136 19156288 
1594.432 19336498 19401872 19354442 19212804 19005890 18764474 18518594 
1597.807 18292066 18103896 17971610 17910490 17933348 18049250 18261310 
1601.183 18567454 18961928 19438358 19989758 20606550 21274636 21970902 
1604.558 22661792 23309732 23872302 24310560 24595576 24708814 24646178 
1607.933 24416538 24040226 23543684 22955266 22306566 21628358 20951416 
1611.308 20305770 19713848 19188182 18729290 18326488 17962804 17618956 
1614.684 17279308 16934828 16586835 16247891 15939148 15684247 15500087 
1618.059 15392863 15358363 15383937 15452601 15545656 15646873 15743749 
1621.434 15832502 15919281 16019966 16152862 16331621 16559400 16828592 
1624.809 17126076 17440148 17765250 18100820 18448856 18809140 19176788 
1628.185 19542356 19896718 20233696 20554436 20864114 21169038 21471600 
1631.560 21767998 22047516 22296206 22499984 22647096 22731754 22754590 
1634.935 22724424 22655510 22565454 22469556 22377100 22289892 22203506 
1638.310 22110128 21999170 21860326 21686800 21478006 21240988 20988276 
1641.686 20734842 20491042 20259526 20034032 19801268 19545650 19253120 
1645.061 18917420 18543938 18151950 17770602 17431560 17160130 16967386 
1648.436 16851222 16798422 16790880 16805862 16815816 16789502 16690532 
1651.811 16488394 16177176 15799962 15443502 15188582 15066169 15051899 
1655.187 15099068 15163397 15216068 15244036 15244653 15222862 15185186 
1658.562 15137287 15080920 15014065 14932749 14833379 14714014 14575835 
1661.937 14423143 14262630 14103237 13953893 13822215 13712806 13625441 
1665.312 13554981 13491744 13423014 13334615 13214124 13054808 12857835 
1668.688 12633695 12399135 12173733 11971812 11800931 11660954 11546268 
1672.063 11447738 11353889 11252071 11129300 10976184 10791836 10588383 
1675.438 10389505 10220468 10097989 10023792 9986293 9967679 9951914 9930285 
1679.295 9902861 9877268 9862896 9865100 9879878 9893877 9886352 9838086 
1683.153 9740281 9605336 9466741 9366684 9333066 9366379 9448150 9554492 
1687.010 9667162 9774236 9871540 9959237 10039628 10116269 10193262 10275630 
1690.868 10368668 10476119 10598365 10730732 10863378 10981859 11071752 
1694.243 11123556 11139261 11135589 11141164 11182845 11270025 11391066 
1697.618 11518164 11620010 11666127 11637095 11533407 11383617 11236089 
1700.993 11133243 11091908 11099659 11129844 11154321 11152213 11111862 
1704.369 11030626 10915462 10780015 10640842 10510879 10396598 10297514 
1707.744 10208934 10124409 10038068 9946659 9849271 9747804 9644904 9544264 
1711.601 9448218 9358017 9273454 9193848 9118452 9046758 8977882 8909829 
1715.459 8838676 8758778 8665880 8560330 8450278 8351467 8282060 8253693 
1719.316 8268418 8317861 8388456 8465042 8535526 8593212 8637048 8671559 
1723.174 8703064 8738526 8782038 8834314 8893460 8956335 9020200 9081841 
1727.031 9138145 9185488 9219874 9238794 9242517 9234495 9219942 9202749 
1730.888 9182443 9151140 9094293 8993950 8836647 8624441 8382172 8152160 
1734.746 7977274 7878571 7849995 7866932 7900841 7928848 7935664 7916228 
1738.603 7874725 7822161 7771897 7734085 7713510 7709025 7716242 7730577 
1742.461 7748656 7768996 7790552 7812985 7835892 7859071 7882654 7906914 
1746.318 7931008 7953482 7970963 7978726 7972381 7947881 7903608 7840582 
1750.176 7763127 7678232 7595007 7522957 7469087 7436896 7424829 7427357 
1754.033 7436222 7440873 7432615 7405853 7361636 7306607 7252561 7210314 
1757.890 7185486 7175952 7173224 7166588 7145771 7105015 7045708 6975163 
1761.748 6904898 6845180 6802939 6779379 6771066 6772715 6778706 6784125 
1765.605 6784461 6776619 6758850 6732836 6702450 6674623 6655680 6648143 
1769.463 6649388 6651138 6642692 6614230 6562794 6493874 6422308 6365616 
1773.320 6335793 6335255 6357815 6392851 6430076 6463874 6493033 6519301 
1777.177 6545033 6570127 6591959 6606391 6609823 6602355 6588124 6574130 
1781.035 6567133 6570396 6582170 6597107 6608511 6611640 6605113 6591522 
1784.892 6575946 6563702 6558051 6560203 6569790 6586375 6609520 6638521 
1788.750 6671594 6703930 6728697 6738120 6725736 6689831 6635560 6573659 
1792.607 6516712 6474804 6451666 6444806 6448270 6455803 6463403 6469390 
1796.465 6473257 6475376 6475107 6471038 6461856 6447328 6428630 6408891 
1800.322 6392078 6381318 6377989 6381856 6391439 6405427 6422745 6443124 
1804.179 6465757 6489670 6513314 6535446 6554956 6572549 6589604 6607636 
1808.037 6626745 6645014 6659582 6666379 6663418 6651339 6633474 6615105 
1811.894 6601177 6594785 6596165 6603397 6613490 6624121 6634921 6646495 
1815.752 6660659 6678728 6701238 6727755 6757167 6788298 6820508 6853225 
1819.609 6885608 6917253 6946746 6973007 6996005 7015771 7033248 7049682 
1823.467 7065746 7082315 7100300 7121014 7146040 7176525 7211762 7248384 
1827.324 7281234 7303742 7310347 7299598 7275742 7248417 7229652 7229652 
1831.181 7252561 7295386 7350178 7407977 7462176 7509708 7551512 7590860 
1835.039 7631459 7674961 7721774 7770615 7821486 7875941 7937757 8010991 
1838.896 8098819 8201151 8315024 8434872 8554450 8669091 8776223 8875705 
1842.754 8969966 9063538 9161698 9269053 9388522 9519234 9657337 9795281 
1846.611 9924556 10036169 10122645 10179456 10205983 10204354 10178710 
1849.986 10133022 10069706 9989513 9892047 9778302 9651171 9516321 9380159 
1853.844 9247830 9121903 9001493 8883855 8765742 8646647 8528160 8414028 
1857.701 8307559 8210031 8119885 8034178 7949400 7864401 7780432 7700660 
1861.559 7628727 7566347 7513146 7467468 7427256 7391968 7362479 7340237 
1865.416 7325140 7314660 7303406 7284604 7253370 7209202 7157021 7106430 
1869.273 7066823 7045270 7042913 7055912 7077735 7102759 7126504 7147017 
1873.131 7163152 7173763 7176559 7169619 7151059 7121384 7083225 7040522 
1876.988 6997588 6956712 6918128 6880424 6842185 6802332 6762114 6723683 
1880.846 6688654 6657631 6629201 6600706 6570228 6537465 6504233 6473560 
1884.703 6448135 6428630 6413263 6398534 6380141 6356000 6326009 6292491 
1888.561 6259009 6229328 6206372 6192154 6188087 6195179 6214203 6244522 
1892.418 6283885 6327589 6370289 6406773 6434482 6453718 6467574 6479681 
1896.275 6492562 6505881 6517081 6522968 6521791 6514895 6506722 6502047 
1900.133 6505511 6518023 6537734 6559901 6579950 6594651 6602960 6605248 
1903.990 6602119 6593810 6580017 6560203 6535615 6508740 6483447 6463504 
1907.848 6450287 6443225 6439559 6436466 6432363 6428294 6426882 6430682 
1911.705 6440804 6456005 6473190 6489737 6504233 6517552 6531410 6546378 
1915.563 6560574 6569555 6568344 6553442 6526903 6495219 6468313 6454121 
1919.420 6454929 6466195 6479210 6484255 6475275 6452675 6422577 6394095 
1923.277 6374526 6366221 6365985 6367667 6365750 6358050 6347224 6338113 
1927.135 6334952 6339525 6349174 6360068 6368474 6373786 6378292 6386429 
1930.992 6401628 6424360 6451969 6479446 6503022 6521050 6534269 6544495 
1934.850 6552770 6557883 6557176 6548834 6533227 6514895 6500567 6495959 
1938.707 6502921 6516947 6529224 6529560 6510388 6471407 6419181 6366019 
1942.564 6324160 6302476 6303249 6323017 6355630 6394499 6434784 6473291 
1946.422 6507092 6534000 6551929 6561044 6563735 6565115 6570161 6581699 
1950.279 6598149 6614297 6622439 6617527 6599663 6573525 6548228 6531377 
1954.137 6524750 6524649 6521992 6507664 6477360 6433338 6384513 6341475 
1957.994 6310813 6292828 6281700 6268657 6247446 6218539 6187449 6163385 
1961.852 6153236 6158042 6173467 6193734 6212421 6227648 6241631 6256825 
1965.709 6272926 6285801 6287247 6269834 6230673 6174409 6110759 6050680 
1969.566 6001930 5965683 5937735 5911435 5882651 5852760 5827674 5814779 
1973.424 5819547 5842215 5879594 5927658 5984428 6051486 6132434 6227043 
1977.281 6328834 6424595 6496632 6532554 6527710 6489131 6430883 6370054 
1981.139 6320092 6286944 6269901 6264186 6264589 6267716 6272220 6277128 
1984.996 6280154 6277128 6264758 6242269 6213799 6187718 6173501 6176661 
1988.854 6195986 6222371 6244454 6252723 6245261 6228085 6214102 6215951 
1992.711 6239849 6283045 6335289 6385454 6424696 6451162 6468952 6484558 
1996.568 6502282 6520647 6534606 6537330 6525019 6499457 6466901 6435154 
2000.426 6409799 6389489 6368743 6339760 6298139 6244790 6187314 6135089 
2004.283 6095974 6073595 6064691 6062809 6062607 6062406 6064791 6074872 
2008.141 6096108 6127225 6164360 6200053 6229160 6250975 6268254 6285533 
2011.998 6306644 6332128 6359395 6385185 6407412 6427083 6448101 6474131 
2015.855 6507328 6546648 6587452 6625332 6657867 6685592 6711602 6739365 
2019.713 6769586 6800818 6828956 6850027 6861809 6866286 6867329 6868811 
2023.570 6873591 6881198 6889884 6897660 6903854 6909443 6915940 6924087 
2027.428 6933144 6941594 6947351 6951729 6958732 6973344 6999642 7038367 
2031.285 7085144 7134453 7180803 7223655 7268228 7323017 7396349 7490121 
2035.143 7599424 7712431 7815380 7897399 7954428 7988917 8007176 8016154 
2039.000 8020204 8020676 8016526 8008593 7999313 7994014 7998064 8014736 
2042.857 8042380 8076472 8110195 8138959 8162052 8182715 8206654 8240084 
2046.715 8285067 8340794 8403150 8466867 8526436 8576923 8614572 8636339 
2050.572 8640665 8628632 8604940 8577869 8556916 8551442 8566548 8601053 
2054.430 8647662 8697283 8740623 8773214 8796307 8814532 8833366 8855246 
2058.287 8878106 8896808 8906379 8904248 8893223 8878816 8867657 8863598 
2062.145 8865999 8869855 8869212 8860420 8843849 8823899 8807600 8800365 
2066.002 8804017 8816798 8833840 8850646 8865391 8878579 8891702 8906481 
2069.859 8922005 8935669 8944598 8946898 8943279 8936852 8931205 8928533 
2073.717 8928904 8929987 8929648 8927247 8925015 8926740 8937022 8957045 
2077.574 8985324 9015938 9042495 9059952 9066955 9066380 9063640 9064282 
2081.432 9071760 9086443 9106372 9128164 9149211 9167654 9182882 9194152 
2085.289 9200481 9201124 9195777 9185353 9172459 9160378 9151851 9147486 
2089.146 9145895 9143898 9138518 9129111 9117573 9107962 9105527 9112666 
2093.004 9129415 9152392 9176453 9196183 9208265 9211649 9207250 9197232 
2096.861 9183289 9167349 9151816 9139262 9133442 9137672 9153983 9181190 
2100.719 9216218 9253923 9289363 9320845 9348673 9376164 9406975 9443410 
2104.576 9485638 9531529 9578507 9624645 9670109 9716088 9764306 9815344 
2108.434 9867744 9918522 9965170 10005652 10040611 10072283 10103245 
2111.809 10135804 10170129 10204796 10238108 10268913 10297582 10325031 
2115.184 10353093 10382073 10411259 10439123 10463798 10484504 10501679 
2118.559 10516853 10531348 10546183 10561087 10575957 10591031 10607804 
2121.935 10629263 10658737 10697654 10745812 10799819 10855598 10909244 
2125.310 10958921 11005749 11052209 11100984 11152553 11205420 11256321 
2128.685 11302127 11341612 11376542 11410285 11446956 11489039 11536333 
2132.060 11586762 11636891 11684779 11729950 11774206 11818840 11864842 
2135.436 11910133 11951649 11986287 12012958 12032647 12048999 12065214 
2138.811 12082725 12100169 12114137 12120578 12117443 12105348 12087563 
2142.186 12069268 12053768 12041776 12031455 12017999 11997119 11965714 
2145.561 11922802 11869065 11807638 11739549 11667352 11592343 11516428 
2148.937 11441445 11369705 11301651 11236803 11172917 11106797 11034331 
2152.312 10952601 10858860 10750669 10626785 10487015 10335007 10179117 
2155.687 10033796 9918353 9853168 9852660 9920217 10044544 10199063 10351328 
2159.544 10474218 10550393 10577960 10566655 10530805 10483722 10434948 
2162.920 10388928 10347392 10312137 10285163 10268641 10262907 10263993 
2166.295 10266199 10261177 10242620 10208425 10161072 10104975 10045223 
2169.670 9984359 9921369 9852728 9775693 9690472 9600932 9514289 9438229 
2173.528 9378229 9335943 9308895 9291834 9278430 9263976 9244886 9218249 
2177.385 9181732 9134018 9074094 9004368 8929547 8857748 8796780 8754145 
2181.242 8732374 8730109 8741941 8760637 8779199 8792757 8796713 8789173 
2185.100 8768481 8734604 8689914 8640124 8592199 8554416 8533971 8533127 
2188.957 8549618 8577801 8610415 8641341 8668652 8692855 8716214 8740826 
2192.815 8765269 8786502 8800500 8804625 8799316 8788361 8776358 8768109 
2196.672 8765912 8769562 8777339 8787820 8800703 8817136 8837965 8862482 
2200.530 8887473 8908374 8919908 8919603 8908815 8892073 8876348 8866845 
2204.387 8866237 8873304 8884498 8895050 8901881 8904384 8902795 8898465 
2208.244 8892310 8884193 8873541 8860691 8847468 8836173 8830222 8830898 
2212.102 8837762 8848854 8861096 8872797 8883957 8896639 8913177 8935330 
2215.959 8962593 8992563 9021418 9046723 9066955 9082925 9095849 9106982 
2219.817 9116320 9122817 9125355 9123054 9116523 9106982 9095545 9082315 
2223.674 9066075 9044558 9016411 8981772 8944226 8907969 8878546 8858966 
2227.531 8849903 8849159 8853047 8858357 8863159 8867048 8870835 8875299 
2231.389 8880339 8885039 8888557 8890653 8892276 8895218 8901611 8912061 
2235.246 8926604 8943752 8962559 8981873 9002102 9023109 9045370 9066854 
2239.104 9085259 9098421 9105425 9107760 9109586 9115373 9128773 9150700 
2242.961 9178686 9208062 9234258 9254430 9268715 9279648 9290582 9304122 
2246.819 9320845 9338482 9354766 9367632 9376536 9382970 9389233 9397257 
2250.676 9407991 9421162 9436231 9452553 9470907 9491497 9514052 9536914 
2254.533 9556694 9569802 9573122 9565840 9549513 9527667 9503960 9480355 
2258.391 9456853 9431490 9402302 9368309 9330933 9293628 9260964 9236729 
2262.248 9222412 9217775 9220957 9230366 9244886 9264416 9289092 9318273 
2266.106 9349857 9380498 9406061 9423702 9432066 9431930 9425362 9415304 
2269.963 9403759 9392619 9382597 9374844 9369664 9368275 9370510 9375453 
2273.821 9381107 9384763 9384595 9379888 9372101 9364551 9360963 9364111 
2277.678 9375588 9394414 9418081 9443308 9466640 9486010 9499727 9507888 
2281.535 9510496 9509142 9505551 9501758 9499862 9501691 9507041 9515272 
2285.393 9524213 9531969 9536677 9538133 9537151 9535288 9533730 9533459 
2289.250 9533865 9533967 9532613 9529462 9524822 9519742 9515136 9511884 
2293.108 9509717 9508261 9506906 9505586 9505179 9506534 9510394 9516762 
2296.965 9524653 9532206 9537625 9539589 9537218 9530648 9520453 9507312 
2300.823 9491836 9474530 9456142 9437619 9420181 9404740 9392009 9381886 
2304.680 9373693 9366752 9360725 9355681 9352329 9351381 9352905 9355783 
2308.537 9358356 9358897 9356189 9350298 9342579 9335030 9329477 9326803 
2312.395 9326295 9326228 9324671 9319931 9311569 9300026 9286012 9270712 
2316.252 9254227 9236695 9218046 9198247 9178077 9158483 9140277 9123968 
2320.110 9109654 9096594 9083602 9069154 9051696 9029199 8999633 8961408 
2323.967 8913482 8856362 8792182 8725105 8659526 8599870 8549178 8507953 
2327.824 8474874 8447440 8423251 8400989 8381700 8366600 8357784 8355893 
2331.682 8359845 8367073 8375349 8382375 8387848 8393016 8399941 8410042 
2335.539 8423960 8440852 8459129 8476867 8493153 8507683 8521098 8534073 
2339.397 8547219 8561107 8576078 8592638 8611327 8632350 8655469 8679706 
2343.254 8703774 8727708 8753098 8784033 8826503 8886155 8966990 9068443 
2347.112 9185894 9310419 9431829 9540030 9626271 9685119 9713952 9713410 
2350.969 9686610 9638771 9576340 9505382 9431659 9359472 9291563 9229587 
2354.826 9174286 9125964 9084684 9050884 9024598 9006364 8996385 8994389 
2358.684 9000039 9012724 9031533 9055418 9083567 9115339 9149482 9185523 
2362.541 9222784 9261031 9300500 9341834 9385644 9432404 9481879 9533629 
2366.399 9586637 9640465 9694979 9750582 9807922 9867269 9928319 9989954 
2370.256 10050580 10109079 10165211 10220163 10276003 10335991 10402299 
2373.631 10476730 10559525 10650112 10746967 10848464 10953451 11061012 
2377.007 11170164 11280397 11391032 11501423 11610924 11719397 11826637 
2380.382 11932950 12038540 12143542 12247888 12351100 12452563 12551220 
2383.757 12645976 12735668 12818963 12895106 12963752 13024897 13079154 
2387.132 13127543 13170439 13208283 13241076 13268575 13290541 13307453 
2390.508 13320265 13330549 13339911 13350127 13361949 13375994 13391883 
2393.883 13409106 13427047 13444921 13462248 13478654 13494171 13509005 
2397.258 13524353 13541752 13563117 13590227 13623800 13664009 13709454 
2400.633 13758529 13809833 13862750 13917693 13975551 14037832 14105221 
2404.009 14177551 14253864 14333273 14414889 14498917 14586320 14678334 
2407.384 14775715 14878021 14984157 15092310 15200901 15309382 15418062 
2410.759 15527868 15639968 15754778 15871715 15989266 16105268 16217416 
2414.134 16323330 16421322 16509870 16587935 16654827 16710812 16756751 
2417.510 16794598 16826114 16853462 16877816 16899484 16918086 16933346 
2420.885 16945164 16954950 16964320 16975690 16990886 17010698 17035060 
2424.260 17063248 17094644 17129042 17167164 17210356 17260414 17318478 
2427.635 17385172 17460912 17545878 17640142 17744472 17859426 17985252 
2431.010 18122032 18268980 18425000 18588824 18759906 18937320 19120622 
2434.386 19309130 19502084 19698558 19898174 20100970 20307506 20518864 
2437.761 20735886 20958476 21186258 21417574 21651136 21886146 22122542 
2441.136 22361402 22603952 22851110 23102776 23358120 23615432 23873074 
2444.511 24130168 24386256 24641582 24896640 25151988 25407838 25664120 
2447.887 25920726 26177098 26432744 26686600 26937574 27184316 27425836 
2451.262 27661736 27892604 28119670 28344416 28567330 28788024 29004472 
2454.637 29213906 29413474 29600970 29775454 29937156 30087198 30226458 
2458.012 30355244 30472698 30577240 30666446 30737676 30788892 30818484 
2461.388 30826132 30812224 30778328 30727220 30662038 30586768 30505540 
2464.763 30421910 30339788 30262444 30193816 30137376 30097674 30078178 
2468.138 30082296 30111950 30168028 30250224 30357734 30489616 30645184 
2471.513 30823786 31024952 31247326 31488620 31745344 32013528 32288440 
2474.889 32566066 32842260 33113800 33377178 33629252 33867368 34089408 
2478.264 34293812 34480020 34647176 34794588 34920536 35022672 35098388 
2481.639 35145776 35163916 35153860 35118076 35060456 34985032 34895328 
2485.014 34794728 34685940 34571072 34452364 34331144 34208448 34083748 
2488.390 33955784 33822376 33681564 33531528 33371848 33202172 33022768 
2491.765 32833040 32631892 32417520 32188124 31942158 31679582 31401060 
2495.140 31108092 30802052 30483750 30153430 29810692 29455456 29088502 
2498.515 28711838 28327900 27940164 27551186 27163612 26779310 26399502 
2501.891 26025552 25658458 25299194 24948680 24607184 24274994 23951846 
2505.266 23637964 23333924 23040790 22760106 22493216 22240890 22003386 
2508.641 21780122 21570550 21373924 21190016 21018498 20858934 20710690 
2512.016 20572918 20444428 20325144 20214986 20115198 20026850 19950972 
2515.392 19887526 19836018 19794956 19763434 19740548 19726990 19723384 
2518.767 19730494 19748004 19774878 19808760 19847290 19888496 19931510 
2522.142 19976298 20023380 20073346 20126026 20181040 20237028 20292922 
2525.517 20347506 20399698 20448110 20490866 20526020 20551066 20564234 
2528.893 20564928 20553568 20531822 20501218 20463496 20419318 20368548 
2532.268 20311082 20246818 20176976 20103156 20027300 19950902 19874692 
2535.643 19798390 19721270 19642706 19563326 19484272 19407554 19335770 
2539.018 19270404 19212458 19161622 19117228 19078174 19043658 19012502 
2542.394 18983666 18955838 18927456 18897070 18864126 18828484 18791218 
2545.769 18753644 18717180 18682520 18649660 18617670 18585642 18552824 
2549.144 18519248 18485434 18452588 18421994 18394166 18369726 18348470 
2552.519 18330324 18314772 18301604 18290476 18280834 18271918 18262760 
2555.895 18252636 18240990 18227548 18212240 18195068 18175512 18153264 
2559.270 18127388 18097400 18062686 18023690 17981280 17936906 17891810 
2562.645 17847030 17803048 17759556 17715756 17670924 17624476 17576688 
2566.020 17528386 17481368 17437664 17399380 17367998 17343996 17327030 
2569.396 17315962 17309376 17306168 17305754 17308238 17314134 17324202 
2572.771 17338512 17356720 17377688 17399966 17422420 17444460 17465844 
2576.146 17487198 17509102 17532286 17557296 17584208 17613020 17643836 
2579.521 17676412 17711062 17747924 17786928 17827940 17870886 17915220 
2582.896 17960870 18007424 18054950 18103516 18153366 18205018 18259028 
2586.272 18316258 18377506 18443150 18512784 18585610 18660384 18735274 
2589.647 18809176 18881254 18951544 19019978 19087072 19152894 19216926 
2593.022 19278994 19338678 19396120 19451976 19507284 19562876 19619204 
2596.397 19676162 19733094 19788714 19842088 19893006 19941362 19987852 
2599.773 20033338 20078690 20124984 20173090 20224290 20279626 20340282 
2603.148 20406816 20479614 20557910 20641190 20728414 20818888 20912266 
2606.523 21008794 21108684 21211936 21318658 21428538 21541060 21656290 
2609.898 21774024 21894264 22016840 22141090 22265896 22389658 22510734 
2613.274 22627862 22740134 22847478 22950272 23049174 23144990 23238522 
2616.649 23330080 23419872 23507340 23591958 23672464 23748084 23817662 
2620.024 23881196 23939102 23992952 24044288 24095000 24145964 24197214 
2623.399 24248048 24297314 24343744 24386956 24426912 24464104 24499510 
2626.775 24533762 24567594 24601292 24635342 24670166 24706464 24744590 
2630.150 24784896 24826820 24869342 24911134 24951102 24988620 25023962 
2633.525 25057344 25089674 25121128 25151286 25179550 25205464 25228886 
2636.900 25250378 25271062 25292520 25315982 25341902 25370424 25400670 
2640.276 25432254 25464542 25497640 25531934 25568026 25606474 25647738 
2643.651 25691748 25738646 25788360 25841034 25896880 25955794 26017918 
2647.026 26082722 26150108 26219684 26291386 26365316 26441968 26521244 
2650.401 26603422 26687800 26773638 26859740 26945260 27029350 27111836 
2653.777 27193102 27274278 27356878 27442602 27532650 27627944 27728342 
2657.152 27833180 27940692 28049648 28158310 28265976 28372464 28478202 
2660.527 28583928 28690460 28798220 28907532 29018498 29130630 29243746 
2663.902 29357636 29471732 29585648 29698600 29810016 29919478 30027294 
2667.278 30133898 30240206 30347536 30456562 30567926 30681772 30797926 
2670.653 30916528 31037372 31160776 31286884 31415452 31546232 31678796 
2674.028 31812578 31947118 32082658 32219384 32357794 32498464 32641322 
2677.403 32786120 32932434 33079508 33227172 33375282 33524118 33674296 
2680.779 33826352 33980860 34138512 34300160 34466748 34639036 34817816 
2684.154 35003420 35195608 35393848 35597572 35806328 36020036 36238968 
2687.529 36463668 36694432 36931704 37174916 37423468 37676896 37934556 
2690.904 38196424 38462392 38732836 39008340 39288844 39574684 39866124 
2694.280 40163284 40466320 40775316 41089924 41409972 41735148 42065164 
2697.655 42399960 42739624 43084232 43433952 43788532 44147144 44508992 
2701.030 44873088 45238404 45604068 45969340 46333560 46695680 47054708 
2704.405 47409084 47757640 48099116 48432340 48756476 49070652 49373956 
2707.781 49665772 49945404 50212564 50467428 50710264 50941944 51162940 
2711.156 51373640 51574336 51765224 51946680 52119356 52283844 52440876 
2714.531 52590260 52731424 52862460 52980620 53083688 53168500 53233704 
2717.906 53278464 53303300 53309896 53300792 53279404 53250000 53216476 
2721.281 53183480 53154908 53134460 53125212 53129404 53149104 53185540 
2724.657 53240184 53313564 53406184 53517892 53648228 53796192 53961048 
2728.032 54141584 54336840 54545704 54766736 54998340 55238376 55484872 
2731.407 55735880 55990348 56247528 56507320 56769416 57033176 57297256 
2734.782 57559756 57818244 58070376 58314356 58548956 58773248 58986916 
2738.158 59189944 59382468 59564852 59738836 59905852 60068672 60229880 
2741.533 60391864 60556924 60726884 60903392 61087828 61282072 61487664 
2744.908 61706032 61937696 62182484 62438576 62703708 62974856 63248432 
2748.283 63521036 63788668 64046704 64290800 64515852 64717440 64892464 
2751.659 65039500 65158480 65251692 65321660 65371112 65402000 65415220 
2755.034 65410288 65385864 65339720 65269560 65172992 65047620 64891464 
2758.409 64702944 64480872 64224876 63935324 63613364 63260772 62880136 
2761.784 62474464 62046884 61601284 61141720 60672088 60196496 59719828 
2765.160 59246032 58779852 58325648 57887748 57470444 57077236 56711152 
2768.535 56374804 56069512 55796724 55556340 55348452 55172460 55027108 
2771.910 54910908 54821808 54756892 54713332 54687548 54676012 54675412 
2775.285 54682400 54693936 54706900 54718176 54723852 54720244 54703068 
2778.661 54668120 54611980 54532144 54427380 54298388 54147588 53978648 
2782.036 53796152 53605452 53411052 53216552 53025132 52838136 52656684 
2785.411 52480692 52309776 52142668 51977528 51811516 51641428 51463752 
2788.786 51275120 51072888 50855216 50622020 50374284 50114048 49844232 
2792.162 49568748 49291552 49016936 48749656 48493464 48252124 48028460 
2795.537 47824592 47641748 47480928 47342936 47228628 47138944 47074908 
2798.912 47037500 47027052 47043520 47086316 47154012 47245248 47358012 
2802.287 47490172 47639340 47802804 47977688 48161564 48351888 48546780 
2805.663 48744760 48944536 49144928 49343888 49539484 49728440 49907376 
2809.038 50072588 50220824 50348760 50454144 50534572 50587956 50612748 
2812.413 50607648 50571800 50505392 50409412 50285808 50137660 49968896 
2815.788 49784436 49589660 49390288 49192904 49003140 48827028 48670368 
2819.164 48538180 48435120 48365108 48331036 48334928 48377444 48457604 
2822.539 48573236 48720260 48893656 49087680 49296076 49512780 49731972 
2825.914 49948004 50155996 50350992 50528508 50684644 50816072 50920264 
2829.289 50996160 51044080 51065732 51064280 51043784 51008640 50963256 
2832.665 50911728 50857264 50802472 50749552 50699912 50655080 50616696 
2836.040 50586168 50565208 50555756 50559624 50578908 50616620 50675932 
2839.415 50761504 50878088 51031932 51229672 51478752 51787400 52165460 
2842.790 52623508 53174528 53833736 54617204 55542444 56625532 57877148 
2846.166 59299468 60881052 62593812 64386940 66191628 67923952 69485176 
2849.541 70781560 71730088 72266616 72358936 72007048 71242888 70121688 
2852.916 68719000 67120464 65407896 63660740 61947708 60319448 58813956 
2856.291 57452520 56242024 55178252 54248908 53437656 52725480 52094476 
2859.667 51528888 51013820 50536956 50087424 49655184 49231908 48811080 
2863.042 48387628 47959188 47525212 47088128 46651924 46223240 45810472 
2866.417 45422268 45068408 44757516 44495996 44288312 44135372 44035804 
2869.792 43984944 43976180 44001592 44051424 44115384 44183608 44246452 
2873.167 44296272 44328196 44340304 44333260 44310032 44274880 44231808 
2876.543 44184268 44134640 44084428 44034632 43986044 43939372 43895340 
2879.918 43854324 43816828 43782928 43753276 43728692 43710696 43700476 
2883.293 43699484 43708136 43726344 43753496 43789012 43832808 43885080 
2886.668 43946812 44019192 44102256 44196044 44299284 44410840 44529956 
2890.044 44656520 44791788 44938012 45097632 45273084 45466708 45680440 
2893.419 45916232 46176840 46465000 46783904 47135992 47522328 47941280 
2896.794 48388368 48855612 49331304 49801680 50251512 50665020 51029920 
2900.169 51336944 51582876 51770416 51908480 52010620 52092272 52169716 
2903.545 52258280 52369656 52514828 52701948 52938136 53229772 53582852 
2906.920 54002396 54493152 55059340 55705364 56436376 57258316 58177460 
2910.295 59199780 60329044 61565128 62901504 64325424 65815276 67340944 
2913.670 68867344 70351848 71749312 73018224 74120216 75028296 75728880 
2917.046 76223384 76525784 76659104 76650368 76522864 76291856 75961912 
2920.421 75526840 74972568 74281336 73439048 72439224 71287600 70002040 
2923.796 68613512 67162112 65689260 64237780 62844144 61534736 60327480 
2927.171 59230272 58243008 57359644 56570420 55864280 55229008 54653240 
2930.547 54127360 53643280 53195800 52782648 52404088 52062688 51762052 
2933.922 51505872 51296036 51131888 51010096 50924248 50865760 50824264 
2937.297 50789364 50750744 50699576 50629800 50538144 50424856 50292952 
2940.672 50148448 49999044 49852256 49715700 49594376 49491060 49405100 
2944.048 49332860 49267980 49201516 49124224 49027288 48904044 48751580 
2947.423 48571940 48371924 48162228 47956744 47769996 47614420 47500188 
2950.798 47432848 47413224 47437800 47499448 47589244 47696140 47809980 
2954.173 47921632 48022980 48108408 48173820 48216728 48236316 48232612 
2957.549 48206988 48161748 48100376 48027428 47947568 47865800 47786156 
2960.924 47711300 47642708 47580776 47525436 47476604 47434764 47400584 
2964.299 47375120 47359044 47352728 47355388 47365920 47382512 47403504 
2967.674 47427376 47453208 47480636 47510244 47543292 47581848 47628360 
2971.050 47685416 47755124 47838204 47934024 48040380 48154124 48271304 
2974.425 48388036 48501316 48608104 48706136 48792472 48863916 48916392 
2977.800 48945428 48946876 48917352 48855504 48762184 48640312 48495056 
2981.175 48333520 48163452 47992600 47828028 47674208 47532940 47402872 
2984.551 47279572 47156228 47025428 46880048 46714464 46525516 46312436 
2987.926 46076836 45821224 45548172 45259844 44956864 44638412 44302768 
2991.301 43948208 43573860 43180768 42772276 42354228 41934136 41518972 
2994.676 41114548 40723892 40346312 39978040 39612828 39244596 38867612 
2998.052 38478792 38077732 37666920 37250616 36833664 36421148 36016548 
3001.427 35622212 35239192 34867720 34507176 34156900 33816500 33485822 
3004.802 33164978 32854158 32553814 32263886 31984314 31715010 31455420 
3008.177 31205452 30964706 30733124 30510162 30294986 30086240 29882562 
3011.552 29681958 29482902 29284364 29085668 28887382 28690034 28494724 
3014.928 28302364 28113802 27929740 27750664 27577416 27410662 27250674 
3018.303 27097764 26951780 26812228 26678636 26550726 26428342 26311380 
3021.678 26200292 26094758 25994628 25899272 25808614 25722720 25643134 
3025.053 25571822 25511802 25465840 25435976 25422592 25424208 25437276 
3028.429 25456390 25475434 25487520 25486044 25465946 25422944 25355250 
3031.804 25262702 25147072 25011784 24860780 24698818 24529940 24357972 
3035.179 24186072 24016554 23851090 23690868 23536162 23386722 23241878 
3038.554 23100888 22963126 22828410 22697260 22570306 22448272 22331436 
3041.930 22219444 22111280 22006070 21902768 21801128 21701430 21604606 
3045.305 21511324 21422446 21338078 21258106 21182154 21110352 21043084 
3048.680 20980834 20923948 20872110 20824344 20778740 20733488 20687094 
3052.055 20638342 20587440 20534878 20481872 20429392 20378306 20329068 
3055.431 20282300 20238000 20196450 20157854 20122036 20088996 20058426 
3058.806 20030320 20005302 19984382 19968942 19959922 19957944 19962628 
3062.181 19972690 19986566 20002804 20020674 20040174 20062208 20087610 
3065.556 20117036 20149834 20184786 20219326 20250708 20276606 20295112 
3068.932 20305110 20306220 20298860 20283618 20261366 20233176 20200130 
3072.307 20163060 20123146 20081084 20038022 19995102 19953608 19914652 
3075.682 19879582 19848782 19821834 19797870 19774912 19750846 19724010 
3079.057 19693532 19659626 19623294 19586134 19549810 19515462 19483442 
3082.433 19453466 19425190 19397852 19370758 19343806 19317236 19291498 
3085.808 19267632 19246470 19229014 19216200 19208164 19204666 19204944 
3089.183 19207750 19211628 19215992 19220252 19224822 19230400 19237846 
3092.558 19247820 19260324 19274940 19291152 19308540 19326866 19346370 
3095.934 19367746 19391686 19418642 19448754 19481432 19515602 19549982 
3099.309 19582876 19613240 19640142 19663264 19683200 19700812 19717526 
3102.684 19734862 19754210 19776334 19801614 19830226 19861858 19896578 
3106.059 19934216 19974390 20016198 20058634 20100068 20139180 20174930 
3109.435 20207280 20237100 20266572 20297680 20332402 20371500 20414874 
3112.810 20460892 20507854 20553672 20597064 20637474 20674930 20710064 
3116.185 20743602 20776030 20807764 20839016 20869608 20899366 20927878 
3119.560 20954824 20979896 21003056 21024410 21044788 21064822 21085448 
3122.936 21107256 21130180 21153626 21176796 21199166 21220598 21241580 
3126.311 21263118 21286328 21312010 21340094 21369818 21400272 21430278 
3129.686 21459242 21487196 21514562 21542138 21570516 21599976 21630448 
3133.061 21661792 21694010 21727692 21763608 21802662 21844786 21890190 
3136.437 21937550 21985436 22032528 22077742 22120866 22162498 22203716 
3139.812 22245842 22289684 22335760 22383484 22432188 22480862 22528496 
3143.187 22574704 22619136 22661968 22703928 22745932 22788706 22833754 
3146.562 22881774 22933678 22989188 23047952 23108996 23170748 23231634 
3149.938 23290784 23347560 23402144 23454914 23506886 23558656 23610254 
3153.313 23661966 23713368 23764356 23814688 23864742 23914838 23965290 
3156.688 24016238 24067684 24119412 24171360 24223664 24276884 24331584 
3160.063 24388708 24448716 24511674 24577308 24644776 24713304 24782160 
3163.438 24850746 24919028 24986934 25054640 25122358 25190330 25258594 
3166.814 25327396 25396526 25465630 25533938 25600676 25664856 25725602 
3170.189 25782876 25836992 25888792 25939580 25990408 26042052 26094616 
3173.564 26147998 26201594 26254916 26307824 26360352 26412674 26464506 
3176.939 26515854 26566470 26615610 26663452 26709926 26755770 26801584 
3180.315 26848848 26898160 26950196 27005162 27063132 27123686 27186294 
3183.690 27250180 27314254 27377876 27440204 27501020 27560752 27620032 
3187.065 27679676 27740526 27802976 27866884 27931966 27997342 28062620 
3190.440 28127518 28192004 28256322 28320966 28385694 28450710 28515528 
3193.816 28579928 28643950 28707840 28771880 28836460 28902254 28969688 
3197.191 29038940 29110504 29184456 29260794 29339238 29419326 29500208 
3200.566 29580930 29660388 29737840 29812856 29885330 29955438 30023886 
3203.941 30091176 30157978 30225036 30292854 30362282 30433212 30505362 
3207.317 30577988 30649914 30719860 30786900 30850644 30911478 30970542 
3210.692 31029150 31089084 31151768 31218022 31288236 31362276 31439710 
3214.067 31519580 31601072 31683322 31765162 31845846 31924612 32000936 
3217.442 32074418 32145306 32213602 32279946 32344978 32409810 32475396 
3220.818 32543066 32613638 32687760 32765326 32845582 32928034 33010900 
3224.193 33093310 33174380 33253248 33329446 33403296 33474584 33543806 
3227.568 33611500 33678520 33745412 33812920 33881196 33949764 34017984 
3230.943 34085072 34150340 34213464 34274560 34334224 34392788 34450712 
3234.319 34507752 34564184 34619512 34674060 34728216 34782704 34837884 
3237.694 34894180 34951312 35008916 35066492 35123968 35181596 35239588 
3241.069 35298384 35357724 35416928 35475096 35531728 35586748 35641200 
3244.444 35696452 35754408 35815752 35880744 35948332 36017372 36086424 
3247.820 36154768 36222904 36291700 36362348 36435164 36509904 36585380 
3251.195 36660216 36733264 36803908 36872292 36939028 37004652 37069424 
3254.570 37133520 37196648 37258524 37319684 37380672 37442648 37506688 
3257.945 37572944 37641624 37712308 37784232 37856968 37930468 38004564 
3261.321 38079212 38154344 38229564 38304360 38378340 38451568 38524336 
3264.696 38597552 38672128 38749028 38828844 38912076 38998408 39087332 
3268.071 39178084 39269764 39361720 39453040 39543436 39632652 39721088 
3271.446 39809180 39897684 39987228 40078244 40171276 40266184 40363444 
3274.822 40463336 40566492 40673388 40784528 40900064 41019380 41141976 
3278.197 41266900 41393392 41520976 41649220 41778048 41907644 42038260 
3281.572 42170088 42303928 42440732 42581820 42728508 42881648 43041756 
3284.947 43208252 43379796 43554412 43730008 43904616 44077428 44248464 
3288.323 44418992 44590936 44766772 44948524 45137444 45333948 45537388 
3291.698 45746852 45960832 46178460 46399216 46623116 46850740 47082108 
3295.073 47317368 47556268 47798292 48043820 48293044 48547184 48807448 
3298.448 49074472 49348488 49628696 49913620 50202116 50493220 50787388 
3301.823 51085936 51390500 51702296 52022456 52350708 52685896 53026780 
3305.199 53372344 53722016 54076244 54435836 54801808 55175092 55556640 
3308.574 55946928 56346016 56753896 57169712 57592780 58021596 58455276 
3311.949 58893408 59336616 59786328 60244340 60712176 61190320 61678308 
3315.324 62174072 62675416 63180788 63689432 64201520 64718208 65239980 
3318.700 65766856 66297956 66831760 67366680 67902032 68437960 68975208 
3322.075 69514296 70055728 70599040 71143856 71689480 72235656 72782888 
3325.450 73331312 73880400 74428832 74973744 75512096 76041480 76560016 
3328.825 77067176 77563120 78047544 78519200 78975760 79413856 79831448 
3332.201 80226808 80600104 80952488 81285336 81599016 81892576 82164056 
3335.576 82410936 82631552 82825248 82992168 83133256 83249072 83339064 
3338.951 83402016 83436016 83439712 83412256 83353560 83263880 83143168 
3342.326 82991280 82807336 82590312 82339160 82053248 81731896 81374480 
3345.702 80980432 80549488 80082072 79579216 79043760 78479064 77888864 
3349.077 77276616 76644432 75994072 75326400 74642280 73942968 73230232 
3352.452 72505624 71770424 71025728 70272256 69511192 68744504 67975376 
3355.827 67207680 66445388 65691612 64948560 64217196 63497796 62790684 
3359.203 62096692 61417204 60753752 60107180 59477412 58863432 58263240 
3362.578 57675452 57098812 56533472 55980172 55440072 54914592 54404544 
3365.953 53910664 53433124 52972124 52527504 52098884 51685240 51284516 
3369.328 50894780 50513320 50138072 49767272 49400204 49036632 48677336 
3372.704 48323000 47974764 47633980 47302256 46980200 46668304 46365152 
3376.079 46068176 45773836 45478372 45179320 44875732 44568500 44260096 
3379.454 43953264 43649912 43350508 43053792 42757280 42458748 42156468 
3382.829 41849880 41539824 41227296 40913680 40599416 40284616 39969248 
3386.205 39652908 39336144 39019616 38703892 38389740 38077732 37768368 
3389.580 37462008 37158968 36859488 36564148 36272792 35985228 35700984 
3392.955 35419372 35140136 34863084 34588832 34317764 34050704 33787920 
3396.330 33529702 33275928 33026130 32780260 32537494 32297436 32059114 
3399.706 31821954 31585462 31349562 31115068 30882908 30654358 30430048 
3403.081 30209978 29993318 29778896 29565358 29351786 29137894 28924460 
3406.456 28712584 28502896 28296140 28092380 27891474 27692918 27497066 
3409.831 27303490 27112436 26923472 26735790 26548330 26360386 26171080 
3413.207 25980768 25790154 25601168 25415496 25235066 25061238 24894992 
3416.582 24736068 24583514 24435746 24290340 24144808 23997224 23846610 
3419.957 23693842 23541374 23392562 23251176 23119898 22999318 22887920 
3423.332 22782770 22679842 22575262 22466694 22353412 22236008 22116160 
3426.708 21995544 21875972 21758732 21644658 21534338 21428260 21325792 
3430.083 21225990 21126912 21026148 20921654 20812282 20698526 20582578 
3433.458 20467526 20356950 20253104 20157228 20068558 19985144 19904764 
3436.833 19825266 19745820 19666004 19586204 19506660 19427132 19347304 
3440.208 19266212 19183750 19100090 19016204 18933270 18852290 18773400 
3443.584 18695562 18616942 18535052 18447992 18354864 18256298 18154542 
3446.959 18052944 17954760 17862532 17777642 17699360 17626236 17556056 
3450.334 17486644 17416142 17343960 17269620 17193568 17115840 17036612 
3453.709 16956224 16874680 16792394 16710332 16629076 16549349 16471634 
3457.085 16395858 16321782 16248614 16175903 16103068 16029593 15955132 
3460.460 15879378 15801920 15722793 15642544 15562209 15483193 15407488 
3463.835 15336463 15270976 15210509 15153550 15097970 15041060 14981139 
3467.210 14916562 14847196 14773247 14695916 14616647 14536946 14458254 
3470.586 14381357 14306801 14234759 14164508 14095193 14025854 13955637 
3473.961 13884132 13811407 13738181 13665582 13594534 13525925 13460402 
3477.336 13397624 13337246 13278380 13219692 13159748 13097594 13032682 
3480.711 12965698 12898315 12832511 12770915 12715059 12664977 12619334 
3484.087 12575470 12530074 12480695 12425593 12364634 12298401 12228530 
3487.462 12156116 12082316 12008564 11936424 11869030 11809273 11760281 
3490.837 11723856 11699041 11682703 11669156 11652377 11627464 11591867 
3494.212 11546677 11495265 11442703 11393787 11351882 11318553 11293557 
3497.588 11275636 11263462 11255267 11249384 11243842 11236021 11223203 
3500.963 11202870 11174005 11137527 11096260 11054350 11016693 10987126 
3504.338 10967213 10957120 10954912 10958106 10963474 10968572 10971189 
3507.713 10969966 10964189 10954198 10941184 10927898 10916822 10910807 
3511.089 10911419 10918826 10931670 10947844 10964868 10981044 10995758 
3514.464 11009487 11023490 11038988 11056287 11074914 11093982 11111964 
3517.839 11127804 11140824 11150887 11157924 11161936 11162548 11159012 
3521.214 11150819 11137527 11118593 11094492 11065328 11031442 10993583 
3524.590 10952092 10907206 10859301 10808514 10754711 10697688 10637141 
3527.965 10572698 10504734 10434269 10362832 10292526 10224979 10161276 
3531.340 10101584 10044884 9989412 9933099 9873946 9810532 9742483 9669737 
3535.198 9593107 9513748 9432642 9351110 9269967 9189989 9111685 9035694 
3539.055 8962119 8891228 8823831 8760130 8700663 8645735 8594801 8547117 
3542.912 8500486 8452508 8400144 8341031 8273720 8198787 8118703 8038498 
3546.770 7963910 7899998 7850264 7815110 7791361 7773213 7753243 7724472 
3550.627 7681942 7624006 7553299 7476570 7401506 7335789 7284300 7248080 
3554.485 7224160 7206978 7190640 7169957 7141763 7105689 7062715 7014997 
3558.342 6963984 6910688 6855380 6798058 6739735 6682934 6631085 6588427 
3562.199 6557714 6540223 6533529 6532554 6529896 6516644 6486475 6435356 
3566.057 6364271 6278876 6189130 6106390 6038954 5991281 5962190 5946737 
3569.914 5937500 5927457 5911703 5888226 5857361 5821663 5784456 5747757 
3573.772 5712739 5678631 5643484 5605924 5565279 5522155 5478867 5437798 
3577.629 5400792 5368453 5339872 5312803 5284998 5254847 5222015 5187643 
3581.487 5153978 5123098 5097049 5076833 5061647 5049345 5037378 5021858 
3585.344 4998931 4965717 4921244 4867026 4808057 4751139 4704311 4673262 
3589.201 4660200 4663348 4677247 4694631 4708129 4711914 4702636 4679927 
3593.059 4645665 4604039 4559235 4515541 4475801 4441355 4411932 4386728 
3596.916 4363533 4341311 4318754 4295396 4272307 4251595 4235769 4227438 
3600.774 4228140 4237676 4253871 4273780 4293957 4312229 4327054 4338064 
3604.631 4344557 4345427 4337964 4319156 4287098 4241791 4187557 4131624 
3608.489 4083090 4050012 4035598 4037972 4050079 4063290 4069243 4062821 
3612.346 4043122 4013525 3979951 3948854 3924513 3909100 3901343 3897966 
3616.203 3894255 3885663 3867878 3838059 3796476 3746442 3694308 3648964 
3620.061 3618592 3608268 3618692 3645990 3683715 3725120 3764690 3800320 
3623.918 3832343 3862496 3892149 3920066 3941298 3948119 3931267 3883490 
3627.776 3803329 3699421 3589959 3496591 3437574 3419673 3437574 3479156 
3631.633 3531464 3582977 3626109 3658019 3678335 3689530 3694709 3696447 
3635.490 3696347 3694475 3690699 3684250 3675629 3665905 3656582 3648730 
3639.348 3643116 3639341 3636400 3633360 3629751 3626544 3625942 3630587 
3643.205 3642448 3662329 3688694 3718035 3745406 3764657 3770840 3759343 
3647.063 3727760 3675996 3606597 3525084 3440379 3364206 3308679 3284441 
3650.920 3297528 3346142 3421978 3511889 3601485 3676130 3724953 3741496 
3654.778 3725120 3681376 3621566 3560794 3512524 3485435 3481661 3497426 
3658.635 3525718 3558322 3588523 3611342 3624372 3628081 3625207 3620029 
3662.492 3616654 3619294 3630186 3650601 3680741 3719973 3767966 3823351 
3666.350 3884025 3946513 4006101 4059109 4105366 4152665 4217501 4325280 
3670.207 4503689 4771239 5132922 5578838 6091673 6649556 7229382 7806035 
3674.065 8340996 8780788 9063876 9133612 8966111 8580674 8030533 7379565 
3677.922 6686164 6000822 5362448 4802361 4343587 3994330 3748648 3587621 
3681.780 3487305 3424583 3383039 3355391 3340131 3337761 3346943 3362303 
3685.637 3374224 3372788 3349213 3299565 3226854 3140739 3054475 2980838 
3689.494 2928696 2900543 2894839 2907681 2935034 2973565 3019607 3069858 
3693.352 3119814 3165571 3203655 3231995 3250522 3260938 3266279 3270185 
3697.209 3274759 3281202 3288013 3292353 3290317 3278598 3256131 3224584 
3701.067 3188701 3155425 3131795 3122951 3130060 3150819 3180457 3213135 
3704.924 3243545 3268817 3287779 3300767 3309113 3313420 3313854 3308946 
3708.781 3296627 3274058 3240207 3195177 3142108 3086543 3036323 2999688 
3712.639 2982873 2988779 3015703 3058946 3110503 3162934 3208862 3243312 
3716.496 3264644 3273390 3272656 3266480 3258701 3251457 3244981 3238171 
3720.354 3229592 3218042 3203956 3188534 3173448 3160331 3149484 3140606 
3724.211 3132329 3124320 3116811 3111705 3112172 3121416 3142008 3174416 
3728.069 3216506 3263542 3309781 3348345 3373522 3381770 3372254 3347911 
3731.926 3313955 3276695 3240107 3204857 3168208 3126823 3079769 3030517 
3735.783 2987010 2959087 2954316 2974199 3014536 3067489 3125521 3183728 
3739.641 3240407 3295558 3348880 3396564 3430627 3438409 3406015 3324605 
3743.498 3197780 3048268 2912518 2829067 2816694 2868889 2960321 3061349 
3747.356 3146280 3197313 3207694 3180223 3127323 3064953 3008530 2967961 
3751.213 2946076 2941973 2954016 2980972 3022376 3076598 3139405 3205024 
3755.071 3266680 3318929 3357561 3380668 3388482 3382338 3363972 3335958 
3758.928 3301468 3265244 3233998 3215004 3213802 3231628 3264677 3305407 
3762.785 3344071 3372421 3386011 3385678 3376928 3367445 3363972 3369348 
3766.643 3380769 3392123 3395863 3387080 3365074 3334155 3301835 3277296 
3770.500 3267214 3273924 3295158 3326141 3360500 3393024 3420007 3440546 
3774.358 3455074 3465562 3474246 3482295 3489276 3492917 3489844 3476951 
3778.215 3452837 3419339 3381837 3347945 3324939 3316893 3323470 3340065 
3782.073 3359765 3375626 3382672 3379667 3368246 3352886 3337961 3327009 
3785.930 3321434 3320966 3324405 3330482 3338228 3347277 3356760 3365775 
3789.787 3373155 3378331 3382071 3385778 3391755 3401907 3415933 3431429 
3793.645 3443753 3448061 3441314 3423948 3401039 3381370 3374524 3386613 
3797.502 3417636 3460819 3504708 3535239 3539982 3512090 3452536 3373255 
3801.360 3293855 3236702 3217074 3237970 3290183 3356560 3419239 3461687 
3805.217 3473110 3450332 3399503 3334522 3273324 3232763 3220846 3236368 
3809.074 3271688 3317193 3365108 3410723 3452937 3492516 3529827 3563433 
3812.932 3589291 3601252 3593300 3562732 3512390 3452503 3399202 3368647 
3816.789 3369849 3401606 3453304 3508783 3550472 3563934 3541319 3483398 
3820.647 3401640 3316592 3251891 3222849 3234232 3277997 3340632 3406382 
3824.504 3462623 3502436 3523614 3529627 3527222 3524015 3525384 3533001 
3828.362 3544960 3557320 3566006 3568044 3563467 3554146 3543957 3537176 
3832.219 3537143 3546196 3564235 3589692 3619294 3648362 3671184 3681777 
3836.076 3675161 3648295 3602555 3543223 3479723 3422545 3379600 3355324 
3839.934 3349013 3356560 3372120 3389952 3405914 3417469 3424315 3428356 
3843.791 3432431 3440145 3454507 3477385 3508683 3546930 3588890 3632124 
3847.649 3674392 3714793 3753862 3792466 3829502 3861593 3880415 3874431 
3851.506 3830571 3738555 3598846 3427488 3257332 3124687 3055209 3053340 
3855.364 3105864 3191438 3288914 3383974 3467666 3536542 3590160 3629851 
3859.221 3656883 3672621 3677901 3674459 3663766 3647861 3628214 3605060 
3863.078 3577598 3546229 3512758 3482763 3463224 3460953 3478321 3511990 
3866.936 3552576 3586752 3601953 3589592 3549302 3490111 3429492 3386178 
3870.793 3371319 3384809 3416567 3453071 3481394 3494821 3494420 3487806 
3874.651 3485869 3498161 3529193 3576896 3633694 3689663 3734912 3761983 
3878.508 3766395 3748314 3712454 3667809 3624873 3594236 3583110 3592699 
3882.365 3618525 3651403 3680574 3695244 3688527 3659957 3617222 3573923 
3886.223 3544693 3540283 3561997 3603423 3651904 3694442 3720207 3722714 
3890.080 3702429 3665470 3623370 3587153 3566106 3563667 3578567 3606029 
3893.938 3641011 3679171 3717902 3755533 3791229 3823217 3849458 3867477 
3897.795 3874431 3869483 3852701 3826560 3794371 3759410 3723883 3688160 
3901.653 3652004 3614349 3575460 3537510 3504674 3481527 3472375 3478955 
3905.510 3499965 3531598 3568845 3606597 3641078 3670215 3692938 3709680 
3909.367 3721644 3729665 3735347 3739791 3744571 3751322 3760613 3772779 
3913.225 3786683 3800086 3810315 3814894 3812688 3804264 3792198 3779764 
3917.082 3770506 3766429 3768033 3774216 3783006 3792766 3802426 3811819 
3920.940 3820978 3829568 3836822 3841469 3842204 3838360 3830738 3821178 
3924.797 3812253 3806471 3805234 3808510 3814693 3821847 3827763 3831073 
3928.655 3830672 3826694 3819507 3809847 3798415 3786416 3775352 3766997 
3932.512 3762819 3763922 3770473 3781135 3794170 3807005 3817601 3825089 
3936.369 3829201 3831039 3831942 3833413 3836354 3840834 3845982 3850194 
3940.227 3851899 3849492 3842271 3830504 3815663 3800253 3787151 3778628 
3944.084 3776589 3780834 3789758 3801056 3811785 3819540 3823217 3822983 
3947.942 3820476 3817936 3817769 3821446 3829435 3840967 3854740 3868714 
3951.799 3881418 3891681 3898669 3902146 3902647 3900574 3896529 3891548 
3955.656 3886499 3882287 3879144 3877707 3877640 3878676 3880348 3882454 
3959.514 3883992 3884594 3883357 3879579 3872759 3862630 3849826 3835318 
3963.371 3820844 3808309 3799284 3794772 3795006 3799451 3806872 3816064 
3967.229 3825891 3835652 3845112 3854473 3863900 3873695 3883758 3893687 
3971.086 3902814 3910036 3914750 3916622 3915887 3913379 3910136 3907528 
3974.944 3906459 3907328 3909969 3913613 3917191 3920266 3922407 3923978 
3978.801 3925984 3928893 3933072 3938489 3944106 3948854 3951529 3951931 
3982.658 3950459 3948419 3947450 3949222 3954572 3962898 3972595 3981188 
3986.516 3985970 3985067 3977811 3965172 3949590 3934276 3922507 3916756 
3990.373 3918160 3926252 3939626 3956143 3973431 3989481 4002690 4011920 
3994.231 4016201 4014963 4008342 3996771 3981991 3966610 3953167 3944407 
3998.088 3941766 3945276 3953435 3963533 3972595 3977444 
##END=
