
##TITLE=mdmaHCL00420_6
##JCAMP-DX=5.01  $$ Nicolet v. 1
##DATATYPE=INFRARED SPECTRUM
##ORIGIN=UniL
##OWNER=Nicolet
##LONGDATE=2011/08/23
##TIME=10:02:56
##SPECTROMETER/DATA SYSTEM=Nicolet iS5
##DATA PROCESSING=
Ratio against background
%Transmittance->Absorbance
Truncated
ElementMultiply or ElementDivide
##COMMENTS=
Number of sample scans: 32
Collection length: 51.20 sec
Sample gain: 2.0
Background collected on: Mar Aout 23 10:00:59 2011 (GMT+02:00);
Number of background scans: 32
Background gain: 2.0
Sample spacing:  1.000
Number of scan points: 12415
Resolution points: 8192
Number of FFT points: 65536
Apodization: N-B fort;
Phase correction: Mertz;
Laser frequency: 15798.0 cm-1
Number of rejected sample scans: 0
Number of rejected background scans: 0
Bench serial number: ASB1000141;
##RESOLUTION=4.000
##XUNITS=1/CM
##YUNITS=ABSORBANCE
##FIRSTX=649.893372
##LASTX=4000.122314
##FIRSTY=0.072536
##MAXX=4000.122314
##MINX=649.893372
##MAXY=0.233573
##MINY=0.000821
##XFACTOR=1.000000
##YFACTOR=1.000000E-009
##NPOINTS=6950
##DELTAX=0.482117
##ZPD=6100
##XYDATA=(X++(Y..Y))
649.893 72536248 72274560 72090864 72001608 72006576 72086136 72207136 
653.268 72338272 72463808 72587504 72729176 72913960 73159408 73467184 
656.643 73829376 74234984 74683552 75188880 75775672 76466832 77276416 
660.018 78203496 79236224 80363736 81583936 82904288 84333312 85867936 
663.393 87486944 89148960 90808040 92425280 93967760 95409480 96715432 
666.767 97822112 98643144 99093472 99136728 98808176 98188464 97350712 
670.142 96329520 95122880 93712616 92090584 90276472 88324512 86306176 
673.517 84301440 82369600 80541592 78828104 77228288 75742256 74374288 
676.892 73129840 72008336 70999112 70081656 69232192 68429072 67660232 
680.267 66922008 66216020 65543428 64900584 64278856 63667760 63059748 
683.642 62453728 61856272 61278984 60733860 60228012 59763284 59335404 
687.016 58937316 58561204 58202200 57856476 57521320 57193868 56868132 
690.391 56535812 56188020 55816316 55415528 54985324 54529852 54057144 
693.766 53576852 53099524 52634244 52188212 51766684 51373156 51009944 
697.141 50678948 50381652 50119440 49893328 49703368 49549956 49432096 
700.516 49348936 49298416 49277224 49280120 49300940 49332900 49371468 
703.890 49415312 49466924 49531128 49612984 49714472 49833268 49963428 
707.265 50098056 50232952 50368296 50510380 50670012 50862180 51104864 
710.640 51419104 51831712 52370292 53059128 53909616 54907336 56003352 
714.015 57109324 58116928 58910940 59396180 59526316 59309380 58809212 
717.390 58124052 57379496 56706960 56223656 56041540 56252244 56915728 
720.765 58050720 59609588 61469800 63419180 65193900 66523084 67167760 
724.139 66997276 66012228 64351552 62245996 59972000 57792016 55885608 
727.514 54348668 53192132 52371152 51814540 51451220 51229336 51110196 
730.889 51067928 51081460 51130436 51197124 51270308 51346456 51429776 
734.264 51526352 51639784 51768324 51904300 52038180 52163292 52278088 
737.639 52385956 52492172 52599008 52705240 52805920 52896668 52976764 
741.013 53051412 53131464 53228688 53351216 53500840 53672336 53856200 
744.388 54041232 54218048 54380624 54524216 54645272 54740728 54808236 
747.763 54848684 54867560 54874588 54881696 54899400 54933508 54983896 
751.138 55045804 55112304 55178852 55244472 55312136 55387260 55474408 
754.513 55577008 55696328 55832928 55987524 56160264 56351148 56557588 
757.888 56774624 56995660 57214956 57430432 57644612 57863408 58093252 
761.262 58338612 58599196 58871516 59151404 59438656 59740240 60073352 
764.637 60463532 60947120 61568560 62375036 63415156 64723328 66302748 
768.012 68104968 70018240 71874952 73458552 74566344 75057672 74898936 
771.387 74189072 73141488 72041152 71140232 70604424 70456240 70575584 
774.762 70730632 70649176 70119824 69031608 67415672 65413944 63242184 
778.136 61117960 59201376 57585856 56285056 55256888 54428844 53729516 
781.511 53105252 52523244 51972784 51455884 50981664 50561264 50205612 
784.886 49926408 49734500 49639652 49649352 49767496 49994844 50330824 
788.261 50775920 51333328 52010544 52818492 53770652 54881732 56166600 
791.636 57642684 59329972 61251588 63433556 65897912 68657328 71705112 
795.010 75010928 78516264 82133312 85761960 89294304 92632792 95715024 
798.385 98526648 101118024 103596856 106126560 108889744 112035768 115646936 
801.760 119679816 123949376 128100384 131663232 134141536 135069888 
804.653 134165688 131391328 126983312 121389824 115173552 108903672 
807.546 102989888 97649704 92887096 88544896 84382200 80169176 75776216 
810.920 71191136 66519380 61924588 57591604 53666976 50230608 47304732 
814.295 44860156 42841640 41182736 39822104 38709108 37799564 37058744 
817.670 36458584 35976984 35599264 35316856 35124684 35018756 34994048 
821.045 35044076 35162984 35347444 35598940 35922776 36327724 36823024 
824.420 37415592 38109488 38905332 39798648 40779172 41829264 42923524 
827.794 44027476 45105424 46126468 47074056 47956260 48809748 49704220 
831.169 50728548 51987836 53589296 55616140 58114428 61064412 64367300 
834.544 67819440 71117792 73911312 75810736 76485600 75744776 73567968 
837.919 70132168 65758528 60872172 55889268 51153060 46917516 43308584 
841.294 40352676 38003516 36178104 34782488 33727184 32942406 32370716 
844.669 31965770 31692482 31521540 31430982 31406086 31435792 31510816 
848.043 31622168 31759746 31914522 32081410 32260354 32456402 32676864 
851.418 32928858 33216086 33538402 33893876 34281800 34704744 35169416 
854.793 35683864 36255788 36890112 37588624 38352568 39186028 40097684 
858.168 41103948 42227088 43492436 44930516 46575496 48463568 50635236 
861.543 53125136 55949152 59086028 62459276 65927804 69273160 72238952 
864.917 74556120 75979080 76351424 75622544 73866376 71258784 68058800 
868.292 64565176 61047900 57744212 54823460 52376912 50439516 48997796 
871.667 48009884 47416324 47152020 47152644 47349476 47675616 48066804 
875.042 48460160 48806632 49073916 49251984 49354544 49414940 49479772 
878.417 49593596 49790904 50083740 50457604 50869224 51253384 51540228 
881.792 51662884 51576460 51269604 50766236 50122192 49408444 48703688 
885.166 48073056 47559368 47184668 46950520 46847904 46864436 46991240 
888.541 47224156 47562032 48002812 48540704 49163888 49857460 50604260 
891.916 51388932 52200172 53030036 53873644 54727012 55586652 56448712 
895.291 57308484 58159356 58990596 59786936 60524544 61174984 61709280 
898.666 62101088 62335408 62411452 62342984 62154420 61877096 61545388 
902.040 61189940 60839468 60520396 60255304 60066008 59972912 59992352 
905.415 60139752 60427012 60863560 61457700 62216280 63144840 64247580 
908.790 65526864 66983236 68616352 70425728 72411624 74574608 76914152 
912.165 79426584 82103528 84933672 87904960 91009592 94249640 97640368 
915.540 101210368 104995672 109034352 113355296 117966912 122844288 
918.432 127916184 133061472 138085392 142733280 146713968 149706448 
921.325 151440224 151748944 150621152 148234400 144949488 141295936 
924.218 137853776 135213632 133898392 134246736 136398400 140237408 
927.110 145419472 151362368 157323472 162556528 166342272 168153728 
930.003 167734832 165085264 160431776 154126464 146592800 138234144 
932.896 129405128 120432424 111589384 103113184 95218792 88069456 81786288 
936.271 76447080 72079720 68681048 66224588 64672216 63975140 64067176 
939.646 64859992 66217988 67953752 69847984 71640000 73077264 73957976 
943.020 74141952 73586576 72341872 70542256 68369000 66017284 63677080 
946.395 61491788 59556644 57920800 56590500 55545340 54749748 54167108 
949.770 53762028 53504028 53368824 53333796 53378344 53485172 53639384 
953.145 53831296 54056020 54312280 54600332 54919368 55266596 55637680 
956.520 56027400 56432076 56849928 57281300 57726616 58185568 58655928 
959.894 59134624 59618896 60108016 60603628 61109072 61628204 62163060 
963.269 62713468 63277484 63852876 64438708 65036304 65648444 66277460 
966.644 66924520 67588408 68266432 68955912 69655832 70367432 71092768 
970.019 71833984 72590912 73361128 74141672 74929920 75726312 76533656 
973.394 77357464 78202032 79069960 79960288 80870528 81798728 82744664 
976.768 83711712 84704672 85728488 86785968 87877288 89001016 90156408 
980.143 91344968 92571568 93842056 95161696 96532984 97954664 99422944 
983.518 100932376 102477064 104049280 105635840 107217264 108763272 
986.411 110235392 111594440 112803624 113836904 114683720 115348656 
989.304 115849152 116212024 116472808 116672072 116851992 117058280 
992.196 117330944 117701184 118188952 118799352 119526384 120357528 
995.089 121280024 122285176 123369344 124532304 125774072 127090840 
997.982 128476056 129920688 131417248 132961464 134550880 136182496 
1000.874 137848304 139531984 141210304 142858160 144452208 145978592 
1003.767 147434304 148826592 150169376 151480800 152783008 154099712 
1006.660 155458592 156890960 158425152 160083488 161877392 163804096 
1009.552 165848784 167989248 170203376 172469728 174769056 177081856 
1012.445 179381344 181635168 183809088 185870864 187800672 189593392 
1015.338 191255840 192799040 194227984 195535728 196702880 197703040 
1018.231 198511792 199117696 199526144 199761968 199863744 199885200 
1021.123 199891472 199952208 200145232 200547344 201221232 202213824 
1024.016 203545008 205208512 207174848 209401264 211841952 214446624 
1026.909 217164784 219939280 222695120 225344960 227788448 229917712 
1029.802 231637392 232863536 233526272 233573248 232961424 231660768 
1032.695 229661392 226980784 223670128 219806928 215494048 210841904 
1035.588 205951680 200921760 195838896 190781984 185833488 181072192 
1038.481 176571648 172401488 168615872 165255424 162347488 159900336 
1041.374 157899792 156296544 155002320 153874464 152717552 151318144 
1044.267 149451056 146928528 143645088 139586048 134839456 129567176 
1047.160 123990328 118341096 112824496 107617816 102840984 98559240 94795096 
1050.536 91533144 88734592 86346032 84312624 82582104 81107536 79852480 
1053.911 78785672 77878912 77105912 76437040 75839576 75281672 74731448 
1057.286 74161712 73553208 72893152 72177600 71410288 70603960 69779776 
1060.661 68965856 68198696 67516648 66956296 66551128 66325708 66295260 
1064.037 66466124 66835620 67391984 68111824 68961504 69892008 70840024 
1067.412 71738560 72517056 73115176 73494104 73636464 73549720 73258984 
1070.787 72803104 72224040 71559592 70843104 70097816 69338528 68573864 
1074.162 67807936 67044480 66289508 65553060 64850680 64202672 63629584 
1077.538 63150360 62778780 62520264 62372820 62326688 62368268 62478748 
1080.913 62636068 62816420 62991784 63133768 63218652 63230076 63166760 
1084.288 63043728 62894808 62766068 62710172 62783144 63032508 63496144 
1087.663 64199948 65153084 66348412 67759256 69342616 71036648 72766984 
1091.039 74460728 76048512 77477248 78716088 79752656 80589456 81236080 
1094.414 81703536 82000344 82133784 82114696 81962728 81710296 81407888 
1097.789 81115008 80894080 80799888 80859712 81063888 81354816 81635752 
1101.164 81773368 81619160 81047240 79965864 78344400 76217336 73680864 
1104.540 70874392 67947744 65056472 62331584 59867136 57727296 55940292 
1107.915 54508664 53415924 52634952 52132804 51872036 51816032 51927148 
1111.290 52165648 52493368 52869308 53250336 53596420 53868768 54035380 
1114.665 54076396 53983636 53761916 53426044 52998252 52503908 51966996 
1118.041 51410376 50853240 50310624 49794508 49312892 48870332 48468792 
1121.416 48108076 47787452 47506176 47262912 47054784 46874512 46709852 
1124.791 46542480 46350072 46112392 45814632 45452948 45036244 44585428 
1128.166 44129356 43697508 43317156 43006668 42774136 42618004 42527952 
1131.542 42488304 42478988 42479464 42470732 42437332 42371576 42273688 
1134.917 42153364 42026472 41912712 41832112 41799096 41822044 41900748 
1138.292 42028116 42190028 42367448 42539388 42682408 42774100 42796004 
1141.667 42733552 42579152 42331576 41995736 41580116 41095788 40555288 
1145.042 39971680 39358456 38730516 38102364 37487940 36899564 36345448 
1148.418 35830072 35354020 34915400 34511480 34140124 33800208 33491834 
1151.793 33215478 32971072 32758358 32576994 32426804 32309216 32225486 
1155.168 32177240 32164254 32185018 32236300 32314070 32415234 32538530 
1158.543 32683972 32853194 33047366 33266914 33511196 33778684 34067616 
1161.919 34376504 34703272 35044400 35394280 35743796 36081492 36395384 
1165.294 36672944 36904292 37082200 37201812 37260872 37259352 37199756 
1168.669 37086964 36929000 36736656 36521692 36296960 36074508 35864584 
1172.044 35676236 35517848 35396980 35321996 35301116 35341368 35449140 
1175.420 35629260 35885240 36221176 36642264 37154888 37767428 38488492 
1178.795 39326204 40288180 41380888 42611388 43988096 45520168 47217912 
1182.170 49092060 51150936 53400976 55844348 58477680 61287452 64244584 
1185.545 67302728 70387464 73398912 76222712 78726488 80783048 82286496 
1188.921 83154840 83347088 82864224 81750168 80082152 77962008 75509808 
1192.296 72840216 70060712 67267088 64531840 61912288 59449712 57168508 
1195.671 55081456 53190448 51488900 49963804 48598584 47375640 46276608 
1199.046 45284704 44385260 43564484 42810412 42112256 41459840 40845236 
1202.422 40263024 39711392 39192628 38712584 38278920 37898976 37578108 
1205.797 37317880 37116412 36968972 36869804 36813576 36795616 36811920 
1209.172 36858512 36930516 37022192 37128536 37246104 37374716 37518032 
1212.547 37682896 37878228 38113216 38396364 38734320 39131600 39590616 
1215.923 40111424 40691252 41324040 42001868 42714984 43454060 44212368 
1219.298 44986116 45774868 46580508 47406532 48257048 49136764 50052396 
1222.673 51012368 52026940 53107352 54262984 55498844 56813636 58199624 
1226.048 59641784 61118188 62603080 64066448 65474464 66795432 67999976 
1229.424 69065408 69980944 70747552 71379400 71900176 72344064 72753424 
1232.799 73174976 73665824 74289120 75109192 76194752 77607888 79398784 
1236.174 81605608 84249384 87334912 90852272 94779760 99082360 103707912 
1239.549 108591472 113650224 118785152 123897408 128886504 133659464 
1242.442 138139680 142257296 145950256 149163680 151843408 153939776 
1245.335 155410064 156215008 156322176 155707680 154357824 152277120 
1248.229 149490944 146048672 142015152 137461392 132456688 127056656 
1251.122 121306960 115250880 108935776 102425384 95805696 89174264 82644056 
1254.497 76331160 70336032 64748248 59632660 55023236 50928684 47331040 
1257.872 44194320 41467784 39095524 37023056 35196072 33568180 32101102 
1261.247 30762962 29531666 28392060 27334154 26351548 25439456 24593016 
1264.623 23807686 23079678 22406194 21785870 21217640 20700056 20229948 
1267.998 19802656 19413030 19057194 18733682 18444154 18192478 17983732 
1271.373 17822312 17711096 17652358 17648838 17704192 17824280 18014850 
1274.748 18280212 18620678 19030918 19498342 20002942 20519872 21017244 
1278.124 21459346 21811790 22042356 22128432 22062402 21852974 21524554 
1281.499 21110666 20650120 20176214 19712220 19271616 18858104 18470946 
1284.874 18109146 17774296 17470812 17204392 16979204 16796872 16656583 
1288.249 16556440 16495381 16474180 16494485 16557679 16662987 16807274 
1291.625 16985270 17191430 17421316 17670752 17935904 18210340 18484914 
1295.000 18748732 18991766 19208302 19399412 19573794 19746408 19934528 
1298.375 20155180 20423728 20751978 21148932 21620488 22166404 22777426 
1301.750 23430852 24091884 24711762 25235838 25615226 25809000 25795428 
1305.125 25572772 25158976 24586706 23897018 23137618 22354110 21587682 
1308.501 20874126 20237724 19692284 19240790 18877274 18590830 18369346 
1311.876 18203604 18087556 18018096 17992642 18007390 18056954 18135472 
1315.251 18238052 18362504 18508600 18676778 18865336 19069346 19280622 
1318.626 19490650 19693324 19887212 20075812 20265012 20460266 20663638 
1322.002 20872424 21080196 21279994 21466414 21636962 21793184 21939640 
1325.377 22083318 22233078 22400648 22599868 22844124 23145340 23508530 
1328.752 23929824 24395124 24883586 25373342 25845676 26290682 26707460 
1332.127 27102030 27482664 27855930 28224992 28589200 28946276 29294466 
1335.503 29633782 29966478 30295198 30622214 30949690 31280368 31617962 
1338.878 31969298 32341980 32742564 33174738 33637956 34128368 34640864 
1342.253 35171320 35717820 36279492 36855484 37443732 38040332 38641992 
1345.628 39246664 39855188 40468612 41083916 41687584 42253016 42736440 
1349.004 43082660 43237132 43151232 42796076 42169100 41294884 40222128 
1352.379 39014648 37749320 36500824 35336336 34314180 33473474 32834650 
1355.754 32397636 32144986 32045878 32062468 32160614 32311212 32493108 
1359.129 32693726 32905552 33125888 33356998 33608776 33899248 34252508 
1362.505 34695664 35247676 35911548 36669696 37485484 38309536 39082256 
1365.880 39744976 40241724 40520768 40545392 40297088 39781652 39028896 
1369.255 38089704 37027928 35903560 34771360 33672900 32633964 31673130 
1372.630 30805928 30049310 29425070 28955132 28653330 28520056 28539872 
1376.006 28688372 28939264 29275750 29694730 30208024 30838548 31617250 
1379.381 32582636 33775208 35240092 37020316 39141100 41590760 44295724 
1382.756 47120260 49853892 52240864 54031212 54986680 54935576 53805568 
1386.131 51653328 48681116 45199944 41591784 38192584 35229208 32808882 
1389.507 30926990 29514536 28474344 27714144 27154158 26730326 26397180 
1392.882 26120688 25878066 25658986 25462224 25293714 25161292 25069980 
1396.257 25018944 25002902 25013784 25044672 25092306 25157746 25246372 
1399.632 25365402 25522378 25721594 25964166 26247244 26565590 26912296 
1403.008 27279498 27660924 28052370 28452020 28859442 29275256 29699200 
1406.383 30130948 30571482 31024096 31494714 31991058 32520532 33087306 
1409.758 33691984 34331860 35002880 35701128 36422588 37160048 37898616 
1413.133 38614104 39274372 39844948 40302068 40640200 40877564 41052376 
1416.509 41218296 41435636 41756704 42222452 42849536 43624524 44503740 
1419.884 45424768 46323972 47146076 47854852 48435560 48895736 49268836 
1423.259 49611572 50000752 50508332 51182696 52035380 53040704 54151344 
1426.634 55315068 56494072 57665272 58820064 59959488 61088744 62217696 
1430.010 63361288 64547108 65812884 67197272 68733136 70435344 72300152 
1433.385 74309136 76444864 78704128 81099864 83661536 86416608 89372080 
1436.760 92492920 95712216 98957416 102169200 105306176 108327976 111183312 
1440.135 113786096 116014016 117735432 118809368 119117832 118586968 
1443.028 117187584 114946392 111941984 108311264 104229952 99887056 95486424 
1446.404 91210088 87213304 83626064 80530224 77951104 75848496 74134280 
1449.779 72695952 71430336 70279080 69238184 68355968 67702712 67344312 
1453.154 67307208 67569288 68061168 68684112 69337872 69926920 70394280 
1456.529 70741160 71039352 71402600 71937480 72725024 73803264 75184712 
1459.905 76867560 78835328 81052504 83454248 85955520 88435176 90736088 
1463.280 92693120 94140528 94965592 95151760 94795752 94077936 93190336 
1466.655 92304248 91534208 90939816 90548088 90358960 90351816 90480056 
1470.030 90668840 90813680 90780520 90443376 89721720 88623272 87249968 
1473.406 85760184 84311384 83008248 81908904 81041928 80424704 80077528 
1476.781 80016376 80239360 80717128 81392784 82196040 83051328 83899064 
1480.156 84706688 85469792 86212696 86977072 87814624 88775152 89906376 
1483.531 91260904 92895720 94872248 97244880 100040256 103231552 106711200 
1486.906 110297960 113718752 116632800 118689416 119543664 118939632 
1489.800 116785560 113188936 108451432 102975232 97178440 91381936 85773176 
1493.175 80445520 75413432 70667856 66224240 62132896 58486060 55396368 
1496.550 52954156 51197944 50103784 49609568 49636348 50111372 50977640 
1499.925 52185448 53685456 55426372 57345504 59372668 61437356 63450544 
1503.301 65307916 66881692 67988240 68397312 67851392 66138960 63226932 
1506.676 59354848 54988560 50602028 46502984 42792240 39435732 36359356 
1510.051 33507798 30859002 28426868 26240590 24320300 22670590 21275262 
1513.426 20105586 19129972 18319680 17650392 17097230 16635478 16243970 
1516.802 15908627 15628805 15414148 15276399 15219259 15233124 15294212 
1520.177 15374360 15452086 15527009 15621936 15772473 16005080 16323159 
1523.552 16709849 17139588 17591938 18058126 18545908 19073986 19663264 
1526.927 20325560 21058352 21849316 22683576 23551972 24453832 25396420 
1530.302 26391158 27447896 28574232 29773040 31042460 32376214 33762244 
1533.678 35182672 36614864 38036676 39428256 40774296 42057280 43257412 
1537.053 44356160 45328172 46150120 46801656 47268780 47543032 47622224 
1540.428 47515456 47243664 46838784 46336028 45760216 45117884 44395684 
1543.803 43571956 42632292 41586532 40473340 39349928 38268424 37250940 
1547.179 36287704 35342696 34374320 33356852 32298364 31239384 30240952 
1550.554 29352992 28594262 27950658 27387828 26871900 26384434 25930786 
1553.929 25532988 25215296 24985040 24825170 24694610 24539652 24295072 
1557.304 23892328 23273094 22412788 21357530 20226128 19161932 18260584 
1560.680 17544118 16983270 16528489 16130922 15748182 15350332 14923249 
1564.055 14472025 14018394 13592859 13223142 12920434 12677565 12472579 
1567.430 12280301 12080306 11864842 11641247 11427735 11244861 11105301 
1570.805 11011663 10958853 10939859 10948557 10980160 11028520 11083275 
1574.181 11129640 11152111 11140552 11098571 11046125 11012716 11021145 
1577.556 11078550 11175501 11295564 11422667 11546643 11665548 11782580 
1580.931 11903253 12031284 12166747 12306922 12449188 12592080 12735907 
1584.306 12880975 13023839 13156470 13267789 13346300 13386415 13390927 
1587.682 13372508 13349683 13342576 13369365 13441913 13567527 13750047 
1591.057 13991120 14289235 14636489 15016020 15399763 15751170 16034784 
1594.432 16219996 16290992 16249334 16112868 15910070 15671605 15428018 
1597.807 15204195 15019519 14892148 14837287 14867117 14990056 15208210 
1601.183 15518733 15915364 16391659 16941306 17556366 18225130 18927006 
1604.558 19631476 20302470 20897906 21377024 21707594 21866110 21843670 
1607.933 21644970 21287962 20798448 20206100 19544194 18846026 18144316 
1611.308 17471536 16852566 16302483 15824530 15410509 15044524 14707193 
1614.684 14380946 14052821 13718721 13385664 13071539 12800057 12592115 
1618.059 12459622 12403124 12413285 12474114 12566806 12673403 12779446 
1621.434 12878415 12974199 13080042 13212826 13386040 13604073 13861417 
1624.809 14147700 14453561 14774686 15111041 15463107 15828930 16200528 
1628.185 16565939 16914124 17238970 17542912 17833910 18121514 18410864 
1631.560 18700370 18980100 19235110 19449516 19608042 19700188 19722344 
1634.935 19680808 19590050 19472456 19350422 19239058 19143546 19059238 
1638.310 18975012 18876514 18749112 18583224 18376884 18138132 17882178 
1641.686 17627686 17388412 17168750 16962734 16755855 16529592 16266432 
1645.061 15956266 15600469 15215107 14827585 14470175 14171354 13947221 
1648.436 13800940 13724432 13703264 13717148 13739514 13738351 13673378 
1651.811 13505246 13216173 12835890 12446085 12134377 11946675 11871720 
1655.187 11869371 11897158 11925220 11938400 11932235 11910031 11877338 
1658.562 11838758 11795008 11743328 11678414 11595508 11490978 11364467 
1661.937 11218307 11058020 10892188 10730800 10583799 10459215 10359778 
1665.312 10283060 10220807 10160462 10086390 9983716 9841916 9657879 9438398 
1669.170 9198586 8957992 8734402 8539446 8377342 8245859 8138047 8042684 
1673.027 7946024 7833159 7690880 7515000 7314121 7110775 6931393 6796544 
1676.885 6710997 6666043 6644644 6630009 6612077 6589302 6568781 6560944 
1680.742 6573188 6604003 6642020 6666514 6655545 6593675 6484087 6352335 
1684.599 6238269 6174711 6171283 6218572 6298139 6394062 6494614 6593642 
1688.457 6688856 6779009 6864367 6946240 7028365 7116703 7217489 7335182 
1692.314 7468783 7612035 7751658 7872498 7960772 8011159 8032557 8047713 
1696.172 8084100 8157190 8264297 8385651 8493525 8556646 8549212 8462441 
1700.029 8313774 8146218 8005556 7919164 7885185 7884139 7890314 7881271 
1703.886 7841897 7764037 7649163 7506943 7352705 7201016 7062243 6940416 
1707.744 6834173 6738826 6648917 6560237 6470567 6380343 6291281 6206472 
1711.601 6127796 6055619 5988829 5925340 5863171 5801380 5739833 5678060 
1715.459 5613979 5542995 5460043 5361777 5252231 5143048 5051054 4990585 
1719.316 4968398 4981570 5020919 5073850 5128865 5179327 5222618 5261185 
1723.174 5299990 5344200 5396666 5457359 5523799 5593035 5662551 5730130 
1727.031 5793691 5850342 5896488 5929002 5946973 5952784 5950936 5946301 
1730.888 5940053 5926919 5893734 5821697 5693335 5502524 5265009 5017199 
1734.746 4804237 4655880 4576479 4550764 4554849 4566568 4568376 4551098 
1738.603 4513465 4461808 4406275 4357509 4322904 4304967 4302926 4313835 
1742.461 4334584 4361760 4392551 4424317 4455347 4484840 4513130 4541422 
1746.318 4569649 4596973 4620481 4635987 4638867 4624969 4592117 4539982 
1750.176 4471115 4390778 4305804 4225397 4157449 4107373 4076668 4062253 
1754.033 4057069 4051417 4035932 4003660 3953602 3891414 3828599 3777458 
1757.890 3745406 3732940 3732907 3734745 3726791 3700925 3654912 3592833 
1761.748 3523681 3457579 3403009 3363939 3340432 3329747 3328245 3331316 
1765.605 3333921 3331784 3321267 3301668 3275761 3249955 3231494 3224518 
1769.463 3228523 3236602 3238705 3223583 3185230 3126222 3058513 2998120 
1773.320 2958186 2943808 2951013 2971230 2995418 3018039 3037925 3057111 
1777.177 3077967 3101560 3125655 3146246 3159363 3163535 3160698 3156025 
1781.035 3154790 3159597 3169042 3178822 3183361 3179155 3166105 3147648 
1784.892 3129626 3117478 3114074 3120215 3134498 3155525 3182293 3214537 
1788.750 3250723 3287579 3319363 3338595 3338495 3315190 3270820 3213569 
1792.607 3154323 3103495 3066888 3045232 3035522 3033787 3037057 3043397 
1796.465 3051572 3060181 3066755 3068523 3062917 3049069 3028382 3004559 
1800.322 2982173 2964925 2954817 2951647 2954216 2961188 2971797 2986643 
1804.179 3005627 3028716 3054275 3080369 3104530 3125454 3142675 3156559 
1808.037 3167540 3175551 3180090 3180323 3176418 3169710 3162600 3158061 
1811.894 3157928 3162166 3169075 3175918 3180457 3182360 3182727 3184663 
1815.752 3191005 3203922 3223783 3248920 3277630 3307477 3337727 3368046 
1819.609 3399002 3430761 3463324 3496123 3528257 3559057 3587287 3612144 
1823.467 3632558 3648262 3659924 3670316 3683682 3704100 3734143 3772946 
1827.324 3816432 3857515 3888773 3904987 3905689 3895961 3884660 3881518 
1831.181 3892484 3918027 3954438 3996069 4038039 4078273 4117575 4158620 
1835.039 4204185 4255912 4313233 4374712 4439246 4507171 4581000 4664018 
1838.896 4759614 4869204 4991926 5124674 5262996 5402436 5538599 5668224 
1842.754 5789460 5902433 6009758 6115867 6226169 6343963 6468616 6595391 
1846.611 6716212 6821585 6902710 6954422 6975600 6969371 6940315 6893250 
1850.469 6830471 6751614 6655007 6539281 6406335 6261026 6110625 5961652 
1854.326 5818742 5682491 5551486 5422902 5295664 5170877 5051121 4939107 
1858.183 4835899 4739817 4648244 4558231 4469140 4382678 4302056 4230215 
1862.041 4168154 4114397 4065430 4018374 3971960 3927355 3887402 3854339 
1865.898 3827997 3805635 3782906 3755366 3722614 3687859 3657518 3638472 
1869.756 3634730 3645723 3666974 3692638 3717701 3739290 3756235 3767999 
1873.613 3773815 3771776 3759410 3735480 3700524 3657417 3610673 3564168 
1877.470 3520107 3478120 3435938 3391288 3343804 3295057 3248152 3206626 
1881.328 3171445 3141440 3113140 3083606 3050971 3016471 2982640 2953015 
1885.185 2929630 2911884 2897107 2881830 2863553 2841707 2817261 2792816 
1889.043 2770707 2753067 2740830 2735362 2737596 2748366 2767506 2792816 
1892.900 2819829 2842807 2857215 2860918 2855915 2847310 2841640 2843374 
1896.758 2853246 2868556 2884032 2895539 2900776 2900910 2898541 2896540 
1900.615 2895940 2896040 2894572 2890403 2884799 2880897 2883131 2893938 
1904.472 2913285 2937636 2962022 2981672 2994250 3000155 3001724 3001357 
1908.330 2999688 2995451 2986576 2971564 2951314 2928930 2909215 2895739 
1912.187 2890736 2893872 2903178 2917021 2933700 2952481 2971664 2988011 
1916.045 2996519 2992048 2971397 2935835 2892204 2850245 2818595 2801887 
1919.902 2798085 2799886 2798485 2787047 2763504 2731127 2696718 2666513 
1923.760 2644677 2630809 2621976 2615609 2610908 2609609 2614908 2628309 
1927.617 2648911 2672481 2693784 2708321 2714656 2713922 2708588 2700653 
1931.474 2689517 2672580 2647811 2615109 2578942 2546179 2523549 2515118 
1935.332 2519450 2531048 2542313 2548312 2547579 2543913 2541980 2544279 
1939.189 2549445 2551445 2542613 2517717 2476627 2425612 2375169 2334226 
1943.047 2307976 2295618 2292021 2291788 2292687 2296518 2307377 2328896 
1946.904 2361143 2399690 2437607 2469163 2490723 2504253 2513785 2523916 
1950.761 2537580 2553611 2569143 2581776 2589975 2595009 2599075 2602108 
1954.619 2602275 2594942 2575343 2540780 2493323 2438507 2383931 2334892 
1958.476 2293520 2256714 2220611 2181914 2140889 2102066 2071336 2052093 
1962.334 2044503 2043937 2044469 2040242 2029289 2011680 1989544 1963615 
1966.191 1932029 1892525 1843608 1787976 1733815 1691302 1668950 1670513 
1970.049 1691768 1723602 1755738 1780923 1797259 1808006 1817122 1827104 
1973.906 1836255 1840447 1838151 1832362 1832927 1852293 1901477 1981589 
1977.763 2082655 2187442 2276366 2335792 2360643 2354814 2327330 2286891 
1981.621 2239095 2187242 2133730 2082256 2040009 2015641 2014243 2036646 
1985.478 2076363 2122376 2163432 2192737 2210154 2222044 2236265 2258679 
1989.336 2290089 2326164 2359877 2386097 2403388 2414017 2422713 2432176 
1993.193 2441872 2448803 2449403 2441839 2428377 2414017 2403288 2398324 
1997.051 2397191 2394659 2385064 2365907 2339089 2310708 2287357 2273268 
2000.908 2267672 2264974 2257514 2239761 2210420 2172024 2130833 2093209 
2004.765 2063379 2042472 2030488 2027026 2032252 2047066 2070071 2098270 
2008.623 2125406 2144951 2153576 2153076 2150080 2154375 2174255 2212519 
2012.480 2265574 2323899 2377168 2417215 2440073 2446870 2442305 2432076 
2016.338 2420847 2414184 2416682 2433775 2470363 2528015 2603475 2687250 
2020.195 2766439 2829167 2867855 2883031 2883031 2880530 2886033 2905113 
2024.052 2937136 2975734 3014435 3048302 3076432 3100625 3122184 3139939 
2027.910 3150118 3148516 3132763 3105965 3076365 3053207 3045566 3057712 
2031.767 3088245 3133397 3188067 3250789 3321600 3402041 3491013 3583511 
2035.625 3671853 3747679 3805802 3845915 3872692 3892885 3912476 3934142 
2039.482 3957548 3980788 4002891 4025865 4052855 4087003 4129316 4175648 
2043.340 4219174 4253302 4274282 4283818 4287868 4295999 4315944 4351820 
2047.197 4403664 4468202 4541422 4619543 4698951 4776096 4846520 4903651 
2051.054 4943530 4963773 4967727 4962667 4958980 4966152 4989312 5027623 
2054.912 5075425 5124372 5167558 5201861 5228386 5250587 5271515 5292578 
2058.769 5312334 5329038 5341717 5351546 5361308 5374558 5392204 5412099 
2062.627 5429981 5440650 5441489 5433705 5421761 5411125 5406529 5408643 
2066.484 5414984 5421056 5422734 5418708 5410589 5400994 5392271 5384790 
2070.342 5376403 5363891 5344669 5318438 5287513 5256289 5228219 5206086 
2074.199 5190929 5182245 5180668 5187006 5202833 5228889 5264170 5304552 
2078.056 5343931 5376906 5400625 5415688 5426625 5438972 5457997 5485478 
2081.914 5519638 5556318 5590753 5619115 5639758 5653253 5660302 5661980 
2085.771 5658489 5649526 5635596 5617671 5598036 5579543 5564105 5552559 
2089.629 5544136 5537122 5529806 5521282 5511584 5501215 5491048 5482089 
2093.486 5475411 5472760 5476250 5488129 5509537 5539941 5575616 5612167 
2097.344 5643719 5667183 5681988 5691085 5698907 5709986 5726807 5749603 
2101.201 5777103 5807291 5839663 5875061 5915163 5960577 6010397 6061095 
2105.058 6109684 6153202 6192255 6229833 6270640 6318546 6374089 6434953 
2108.916 6495488 6550583 6597140 6635593 6669239 6702955 6740004 6781196 
2112.773 6824210 6864839 6899579 6926411 6946173 6960987 6974153 6987991 
2116.631 7004221 7023247 7045102 7069888 7097505 7127717 7159480 7191145 
2120.488 7220757 7247777 7273283 7299429 7329824 7367028 7412089 7463659 
2124.345 7519046 7575215 7630076 7683089 7734624 7785053 7833935 7879247 
2128.203 7918252 7949163 7971031 7985408 7994857 8002485 8010551 8020272 
2132.060 8031747 8045451 8061924 8082581 8108575 8139229 8171675 8201961 
2135.918 8225767 8240726 8248526 8252984 8259197 8270781 8287667 8305331 
2139.775 8317692 8318299 8303034 8271930 8227894 8174645 8115192 8051189 
2143.633 7982472 7909041 7832519 7756077 7683628 7617532 7557682 7500571 
2147.490 7440738 7373195 7296093 7209909 7117646 7021799 6922741 6818522 
2151.347 6706589 6584962 6455164 6321840 6190944 6065833 5946704 5828648 
2155.205 5705890 5576220 5444844 5325516 5239252 5204477 5231707 5315788 
2159.062 5437697 5571018 5689810 5777137 5826532 5842148 5830831 5801380 
2162.920 5760684 5713881 5665841 5622270 5588202 5567897 5562527 5568501 
2166.777 5579811 5589847 5592599 5585551 5568534 5542760 5509336 5468398 
2170.635 5419781 5364595 5305189 5246898 5195557 5155990 5129435 5113443 
2174.492 5102245 5089438 5070129 5042808 5008417 4969872 4929656 4888773 
2178.349 4847659 4805946 4764840 4726887 4695066 4671420 4655813 4645698 
2182.207 4636924 4626475 4613214 4598781 4585588 4576078 4569783 4564525 
2186.064 4556791 4543531 4525150 4504359 4486347 4476136 4476705 4488289 
2189.922 4508276 4534023 4562316 4592318 4623428 4655076 4685722 4712015 
2193.779 4731007 4741056 4742698 4738779 4733787 4731577 4734826 4743669 
2197.636 4756130 4770569 4785811 4801725 4818309 4836267 4854193 4870276 
2201.494 4882306 4889409 4891889 4891755 4890850 4890783 4891219 4890213 
2205.351 4886561 4880261 4873024 4868266 4870611 4881837 4902043 4928416 
2209.209 4956266 4981603 5001814 5015858 5024774 5030204 5032987 5034260 
2213.066 5035668 5039054 5047736 5065167 5092724 5130508 5174767 5220472 
2216.924 5262326 5296636 5322765 5342120 5357248 5369828 5380463 5388111 
2220.781 5391433 5389319 5383314 5374994 5366809 5359697 5352485 5343025 
2224.638 5328971 5309416 5287044 5265579 5249984 5243981 5248709 5262594 
2228.496 5282482 5305625 5329172 5352921 5376672 5400155 5422499 5442093 
2232.353 5457225 5467861 5475344 5482491 5492423 5507155 5526853 5550177 
2236.211 5575046 5599782 5624016 5648486 5673797 5699982 5725329 5747052 
2240.068 5763202 5772570 5776666 5778547 5782509 5791810 5808432 5831737 
2243.926 5859880 5890241 5920806 5949861 5976836 6000654 6020442 6035863 
2247.783 6046715 6054140 6060625 6068521 6080013 6095772 6114758 6135324 
2251.640 6155891 6175686 6195246 6216018 6238740 6262841 6286070 6304964 
2255.498 6316226 6318546 6312259 6299921 6285230 6270338 6257127 6245429 
2259.355 6234269 6223211 6212421 6203077 6196725 6194507 6196691 6202708 
2263.213 6211985 6224051 6239312 6258640 6282339 6310174 6340164 6370188 
2267.070 6397424 6420728 6439526 6454558 6467237 6477764 6485970 6491015 
2270.927 6492327 6489804 6485028 6480354 6478571 6481026 6488123 6499289 
2274.785 6512810 6527172 6541703 6556234 6571170 6586745 6602792 6618570 
2278.642 6633104 6645889 6656588 6666043 6674421 6682563 6691009 6700162 
2282.500 6710257 6722169 6736370 6752927 6771201 6789139 6804486 6815123 
2286.357 6819902 6818926 6814113 6807886 6802804 6800078 6800179 6802467 
2290.215 6806068 6810646 6816031 6823369 6833164 6845887 6861035 6877395 
2294.072 6893957 6909476 6923414 6935568 6946072 6954624 6960853 6964523 
2297.929 6965365 6963917 6961156 6958058 6955802 6954321 6953715 6952941 
2301.787 6951560 6949338 6946813 6944928 6944187 6944827 6946678 6948799 
2305.644 6950685 6952267 6953984 6956947 6961897 6969135 6978429 6988698 
2309.502 6998766 7007521 7014491 7019980 7024392 7028500 7032911 7037693 
2313.359 7043182 7049109 7055339 7061603 7067362 7072178 7075512 7076489 
2317.217 7075074 7071134 7064769 7056451 7046886 7036784 7027792 7021193 
2321.074 7018263 7019071 7022539 7024964 7021900 7008161 6980281 6937453 
2324.931 6882276 6820643 6759422 6705579 6663755 6635358 6619209 6611841 
2328.789 6609857 6610563 6613221 6618166 6626342 6637848 6652349 6668230 
2332.646 6683809 6698345 6711703 6724625 6738389 6753398 6769619 6786783 
2336.504 6804251 6821921 6840030 6858914 6878606 6898636 6917859 6935400 
2340.361 6950954 6965095 6979034 6993682 7009339 7024897 7038602 7048941 
2344.219 7056484 7064331 7078307 7104544 7148701 7212773 7294880 7389507 
2348.076 7488942 7585263 7670847 7740224 7790012 7819024 7827963 7819732 
2351.933 7798445 7768389 7733883 7698232 7662753 7628423 7595075 7562875 
2355.791 7532868 7507179 7488267 7478862 7480109 7492177 7513079 7540117 
2359.648 7570124 7600638 7629941 7657357 7683089 7707574 7731555 7756009 
2363.506 7782557 7812648 7848072 7889808 7937250 7989661 8044573 8099528 
2367.363 8152835 8203413 8251060 8297056 8341976 8386631 8431629 8477375 
2371.220 8524070 8572225 8622177 8674297 8728351 8784169 8841245 8899953 
2375.078 8960969 9025546 9094801 9169447 9249422 9333709 9420688 9508871 
2378.935 9597308 9685966 9775355 9866320 9959339 10054243 10150117 10245572 
2382.793 10338875 10428941 10514340 10594223 10667532 10733246 10790783 
2386.168 10839835 10880738 10914511 10942577 10966567 10987738 11007109 
2389.543 11025189 11042250 11059143 11075899 11092860 11109856 11126139 
2392.918 11140451 11152009 11160134 11165301 11168906 11172713 11178255 
2396.294 11186958 11198858 11213784 11231737 11252784 11277949 11308419 
2399.669 11345319 11388685 11437566 11490434 11545179 11600714 11656529 
2403.044 11713780 11774070 11839134 11910371 11988228 12072572 12162897 
2406.419 12258249 12358259 12461941 12568921 12678145 12789103 12901284 
2409.795 13014894 13130344 13248318 13369193 13492702 13617611 13741908 
2413.170 13863298 13979486 14088450 14188848 14280263 14361972 14433899 
2416.545 14496211 14549007 14592968 14628950 14658113 14681418 14699824 
2419.920 14714288 14725599 14734683 14742670 14750930 14760529 14772424 
2423.296 14787370 14805951 14828819 14857036 14892010 14935183 14987758 
2426.671 15050596 15123563 15206323 15298261 15398974 15509084 15629184 
2430.046 15760001 15901925 16054243 16215799 16384881 16559916 16740255 
2433.421 16925630 17116460 17312960 17515416 17723210 17935524 18151432 
2436.797 18369936 18590382 18812636 19036490 19262090 19489852 19720472 
2440.172 19954996 20194958 20440956 20693454 20951800 21214266 21479154 
2443.547 21744798 22010358 22275976 22542038 22809412 23077932 23347002 
2446.922 23615432 23882070 24146068 24406898 24664624 24919170 25169894 
2450.298 25415882 25655928 25889390 26116220 26337748 26555478 26770746 
2453.673 26984464 27195536 27402402 27602556 27793614 27973592 28141024 
2457.048 28294514 28432882 28554910 28659274 28745398 28813128 28863054 
2460.423 28896412 28913658 28914970 28899564 28866666 28815746 28747594 
2463.799 28665186 28573028 28477140 28383500 28297944 28225028 28168174 
2467.174 28129640 28111362 28114828 28141800 28193842 28272340 28378406 
2470.549 28512520 28674142 28861954 29073976 29307016 29556954 29819778 
2473.924 30091068 30366758 30643904 30919412 31191034 31456168 31711944 
2477.300 31955284 32183200 32392674 32581742 32748640 32892044 33011078 
2480.675 33104506 33171520 33211328 33224386 33211578 33175062 33117772 
2484.050 33042754 32952986 32851622 32741636 32625426 32505676 32383888 
2487.425 32260996 32137028 32010886 31880968 31745556 31603244 31452854 
2490.801 31293470 31123968 30942644 30747100 30534618 30302626 30049736 
2494.176 29775702 29482052 29171132 28845844 28508628 28161422 27805130 
2497.551 27440520 27068740 26690440 26307544 25921782 25534782 25147564 
2500.926 24760866 24374760 23989310 23605044 23222930 22845102 22473674 
2504.302 22111558 21761310 21425474 21105656 20803106 20518030 20249944 
2507.677 19997704 19759898 19534976 19321774 19119828 18928978 18749874 
2511.052 18582842 18428044 18285362 18154194 18033672 17923302 17822794 
2514.427 17732148 17651910 17582276 17523212 17474710 17436320 17407864 
2517.802 17389172 17380274 17381138 17391552 17411140 17438734 17473676 
2521.178 17514690 17560782 17611262 17665298 17722450 17782372 17844406 
2524.553 17908384 17973992 18040580 18106866 18171124 18230726 18282632 
2527.928 18323758 18351718 18364888 18362746 18345740 18314772 18271468 
2531.303 18217666 18155576 18087936 18016956 17945020 17873786 17803912 
2534.679 17735152 17666852 17597768 17527732 17457050 17386792 17318582 
2538.054 17254174 17194430 17139622 17089338 17043192 17000326 16960840 
2541.429 16924460 16890972 16860384 16831554 16803760 16776105 16748210 
2544.804 16719868 16691668 16663538 16635684 16607696 16579228 16549831 
2548.180 16519643 16488736 16458245 16428547 16400365 16373700 16348377 
2551.555 16323984 16300144 16276751 16253911 16232034 16211534 16192859 
2554.930 16176695 16163522 16153688 16147291 16143851 16141754 16139140 
2558.305 16133914 16124079 16108502 16086873 16059607 16027462 15990917 
2561.681 15950080 15904915 15855150 15801404 15745088 15688576 15634576 
2565.056 15585425 15542772 15506887 15477562 15453391 15433786 15418233 
2568.431 15407042 15400553 15399180 15402990 15411436 15423795 15439039 
2571.806 15456343 15475124 15495280 15516364 15538651 15562140 15587075 
2575.182 15614345 15644262 15677342 15713276 15751205 15789961 15828311 
2578.557 15865115 15900068 15933786 15967645 16002880 16041178 16083675 
2581.932 16130991 16183332 16240770 16302757 16368400 16436668 16506186 
2585.307 16575612 16643740 16710090 16775278 16839994 16905580 16973278 
2588.683 17043848 17117390 17193914 17272758 17353272 17434940 17517106 
2592.058 17598978 17679656 17758416 17834396 17907348 17976964 18043412 
2595.433 18106902 18167462 18225060 18279936 18332190 18382966 18433402 
2598.808 18485018 18539064 18596190 18656544 18719674 18784956 18851944 
2602.184 18920534 18991212 19064394 19140672 19220320 19303552 19390474 
2605.559 19481534 19577018 19677548 19783270 19893734 20008146 20125576 
2608.934 20244736 20365006 20486318 20608912 20732896 20858240 20984140 
2612.309 21109762 21233960 21356000 21475672 21593080 21708222 21820954 
2615.685 21930264 22035176 22134536 22227568 22314412 22395904 22473290 
2619.060 22547376 22618960 22688010 22754136 22817096 22876814 22933678 
2622.435 22988594 23042048 23094318 23145584 23194794 23241806 23286064 
2625.810 23327700 23367072 23405080 23442254 23479254 23516400 23553896 
2629.186 23591854 23630268 23669106 23708224 23747350 23785918 23823612 
2632.561 23860122 23895374 23929334 23962454 23994702 24026080 24056336 
2635.936 24085300 24112618 24138292 24162358 24185162 24207128 24228640 
2639.311 24250502 24273346 24298364 24326994 24360146 24399048 24443422 
2642.687 24493094 24546664 24602660 24659750 24716986 24774690 24833134 
2646.062 24893658 24957628 25025752 25098730 25176602 25258874 25344712 
2649.437 25432922 25522518 25612204 25701134 25788290 25873282 25956146 
2652.812 26037476 26118262 26199624 26282936 26369504 26460280 26555798 
2656.188 26656230 26761444 26871160 26984252 27100266 27218252 27337472 
2659.563 27457074 27576392 27694580 27811384 27926382 28039468 28151028 
2662.938 28261626 28371828 28482588 28594508 28707734 28822192 28937566 
2666.313 29053182 29168616 29283586 29397628 29510672 29623248 29735462 
2669.688 29848312 29962574 30079776 30200598 30325754 30455496 30589328 
2673.064 30726616 30866472 31008224 31151236 31295146 31439782 31584750 
2676.439 31729444 31873584 32016702 32159150 32301824 32445974 32592922 
2679.814 32743816 32898906 33057914 33220090 33384978 33552290 33722492 
2683.189 33896560 34075752 34261184 34453472 34652956 34859640 35073352 
2686.565 35294140 35521696 35756064 35996640 36242964 36493760 36748268 
2689.940 37005776 37266176 37529772 37796996 38068360 38344064 38624392 
2693.315 38909180 39198756 39493320 39793348 40099356 40411804 40730552 
2696.690 41055472 41385956 41721396 42061696 42406392 42755304 43107908 
2700.066 43463832 43822144 44181772 44542072 44901928 45260508 45617208 
2703.441 45970852 46320768 46666020 47005712 47339092 47665408 47983828 
2706.816 48293376 48592912 48880900 49156320 49418544 49667180 49902768 
2710.191 50126280 50338456 50540492 50733088 50916796 51092340 51260056 
2713.567 51420072 51572280 51715732 51849188 51970696 52078300 52170392 
2716.942 52245536 52303388 52344092 52368536 52378108 52374516 52360384 
2720.317 52338256 52311500 52283844 52258652 52239408 52229168 52230548 
2723.692 52245908 52277188 52326076 52393468 52479756 52584760 52707372 
2727.068 52846404 53000796 53169776 53352712 53549640 53760004 53982808 
2730.443 54216884 54459832 54709608 54963852 55220956 55479564 55738664 
2733.818 55997360 56254128 56507584 56755780 56997100 57229964 57453124 
2737.193 57665840 57867684 58058560 58239292 58410924 58575268 58734824 
2740.569 58892156 59049812 59209688 59373464 59541976 59716256 59897216 
2743.944 60086288 60284424 60492896 60712100 60942164 61181852 61430448 
2747.319 61685604 61945112 62205880 62464172 62714956 62953404 63174196 
2750.694 63373060 63547076 63695228 63817596 63915400 63990072 64042600 
2754.070 64073704 64083532 64072088 64039068 63984156 63906232 63803748 
2757.445 63674316 63515476 63324832 63100620 62842304 62550380 62226376 
2760.820 61872092 61489880 61081916 60650908 60200076 59733476 59255568 
2764.195 58771960 58287792 57808364 57338432 56882296 56443960 56027440 
2767.571 55635984 55272656 54939900 54639260 54371312 54135844 53932200 
2770.946 53759212 53615688 53500468 53411992 53348408 53307384 53285808 
2774.321 53280076 53286592 53301016 53318960 53336380 53348668 53351740 
2777.696 53341700 53315364 53269928 53203780 53115888 53006076 52875036 
2781.072 52724280 52556452 52374628 52183356 51986904 51789752 51596048 
2784.447 51408588 51229036 51057272 50892284 50731564 50571800 50409968 
2787.822 50242212 50065484 49876972 49674984 49458160 49226676 48981296 
2791.197 48723892 48457196 48184368 47909532 47636604 47369728 47112908 
2794.573 46869676 46642964 46435428 46249112 46085864 45947096 45833928 
2797.948 45747220 45687436 45654604 45647868 45666712 45709888 45776192 
2801.323 45864744 45974388 46103660 46250656 46413196 46588144 46772540 
2804.698 46963364 47157964 47354464 47551424 47747472 47941388 48131504 
2808.073 48315632 48490760 48653764 48801072 48929220 49034928 49115020 
2811.449 49166968 49189084 49180400 49141032 49072060 48975248 48852980 
2814.824 48708100 48543628 48363296 48171008 47971396 47770696 47574972 
2818.199 47390976 47226300 47087132 46979348 46907512 46874624 46882080 
2821.574 46929400 47014976 47135396 47286184 47461968 47657348 47866208 
2824.950 48083088 48301964 48517436 48724336 48917060 49091092 49242260 
2828.325 49367052 49463580 49531240 49571128 49585500 49577848 49552408 
2831.700 49513416 49464880 49410080 49351456 49290844 49229532 49168600 
2835.075 49109420 49053848 49004216 48963304 48933856 48918504 48919988 
2838.451 48940904 48983704 49051544 49148120 49278004 49447024 49661500 
2841.826 49929716 50260924 50665280 51154928 51743464 52445508 53276856 
2845.201 54252248 55382516 56671436 58110640 59677284 61326984 62998028 
2848.576 64613616 66082128 67315568 68234872 68778352 68913928 68638936 
2851.952 67980800 66988148 65728000 64277432 62709748 61097556 59504316 
2855.327 57978200 56557176 55264416 54109456 53091288 52200172 51421644 
2858.702 50737968 50131788 49587468 49090572 48629228 48193292 47773472 
2862.077 47362704 46954948 46545988 46133616 45717324 45298532 44880472 
2865.453 44468064 44068220 43688936 43338860 43027048 42760536 42544796 
2868.828 42382536 42273176 42213684 42198204 42219752 42268648 42335412 
2872.203 42409460 42480632 42540668 42583536 42606196 42608792 42593952 
2875.578 42565884 42528940 42486768 42441792 42395576 42349036 42303052 
2878.954 42258752 42217156 42179072 42144492 42113132 42084256 42057532 
2882.329 42033408 42013188 41998988 41992708 41996140 42010048 42033988 
2885.704 42067648 42110212 42161472 42221828 42291984 42372672 42464556 
2889.079 42567748 42682116 42807812 42945144 43094736 43257668 43435016 
2892.455 43628404 43839148 44069652 44322584 44601436 44910088 45251496 
2895.830 45627516 46037012 46475692 46935604 47404572 47868280 48311228 
2899.205 48717144 49073508 49371136 49606632 49782876 49908528 49996888 
2902.580 50063440 50124720 50195976 50289492 50415736 50582668 50795884 
2905.956 51060404 51380504 51759476 52201288 52709764 53289292 53945892 
2909.331 54685968 55516648 56444524 57473548 58603632 59828652 61136840 
2912.706 62508100 63914940 65325976 66702740 68004704 69193920 70234712 
2916.081 71100544 71777264 72262896 72568240 72712408 72720008 72613160 
2919.457 72407984 72111720 71721960 71228528 70617408 69876480 68999024 
2922.832 67987768 66855720 65626664 64332872 63008672 61690680 60411972 
2926.207 59198108 58067876 57032160 56093640 55249436 54492212 53812584 
2929.582 53199772 52643856 52136020 51669228 51238804 50842180 50478592 
2932.958 50149192 49856160 49602216 49389288 49218360 49087976 48994608 
2936.333 48932152 48892064 48865292 48841564 48811528 48768336 48707172 
2939.708 48626672 48528584 48417412 48299520 48181812 48071060 47972360 
2943.083 47888556 47819452 47762044 47710376 47656312 47591016 47506028 
2946.458 47394892 47254632 47087060 46898396 46697932 46498892 46314796 
2949.834 46156976 46034984 45954020 45914944 45914976 45948420 46007948 
2953.209 46085308 46172676 46262636 46348672 46425580 46488896 46535512 
2956.584 46563248 46571252 46560076 46531492 46488232 46434172 46373188 
2959.959 46309412 46246272 46186896 46133172 46086528 46047768 46017192 
2963.335 45994980 45981276 45975752 45978548 45989124 46006840 46030892 
2966.710 46059852 46092460 46127280 46163204 46200056 46238160 46278928 
2970.085 46324748 46377984 46441068 46515556 46601864 46699040 46805272 
2973.460 46917664 47033184 47148732 47261208 47367840 47465888 47552568 
2976.836 47624624 47678980 47712300 47721248 47703316 47656832 47581256 
2980.211 47478048 47350548 47203952 47044628 46879680 46715680 46557420 
2983.586 46407404 46265220 46128308 45991848 45849796 45696600 45527196 
2986.961 45337812 45126820 44893992 44640652 44369004 44081312 43778968 
2990.337 43462444 43130340 42780940 42412380 42024280 41618404 41199496 
2993.712 40774844 40351804 39937532 39536504 39149368 38773300 38402660 
2997.087 38030820 37651604 37260944 36857504 36442696 36020328 35594628 
3000.462 35170528 34751944 34341756 33941988 33553540 33176564 32811060 
3003.838 32456792 32113552 31781136 31459588 31148884 30849042 30560106 
3007.213 30282196 30015152 29758704 29512088 29274404 29044290 28819854 
3010.588 28599534 28381872 28165876 27951366 27738584 27528166 27320956 
3013.963 27117514 26918254 26723422 26533430 26348804 26170554 25999378 
3017.339 25836006 25680324 25531478 25388060 25248374 25111192 24976264 
3020.714 24844222 24716426 24594454 24479772 24372832 24273416 24180750 
3024.089 24094090 24013542 23940186 23876330 23824838 23788470 23768908 
3027.464 23766072 23777762 23799146 23823892 23844264 23852000 23840484 
3030.840 23804186 23740210 23648356 23530706 23390988 23234046 23064688 
3034.215 22887572 22706268 22524274 22343644 22166542 21993766 21825866 
3037.590 21662628 21503490 21347682 21194958 21045276 20899402 20758094 
3040.965 20622288 20492152 20367854 20248590 20133906 20023240 19916732 
3044.341 19814620 19717454 19625928 19539758 19458906 19383094 19311660 
3047.716 19244806 19182434 19124500 19070350 19019148 18968886 18918042 
3051.091 18865128 18809522 18751500 18692034 18632332 18573506 18516138 
3054.466 18460196 18405642 18352446 18301294 18253258 18209614 18171574 
3057.842 18139756 18113880 18092738 18075260 18059922 18045796 18032706 
3061.217 18021134 18011844 18006042 18004972 18009738 18020996 18039130 
3064.592 18064034 18094672 18129770 18167532 18205988 18242958 18276514 
3067.967 18305302 18327872 18343114 18350198 18348332 18337098 18316706 
3071.343 18287746 18251598 18210030 18165216 18119338 18074638 18032810 
3074.718 17995060 17961976 17933246 17907934 17884560 17860910 17835362 
3078.093 17806500 17773604 17737084 17698084 17658362 17619576 17583450 
3081.468 17550466 17520934 17493958 17468570 17443322 17417108 17389068 
3084.844 17359308 17328444 17297756 17269172 17244590 17225800 17213872 
3088.219 17209012 17210220 17215974 17224248 17232626 17239694 17244106 
3091.594 17245556 17244452 17242108 17240004 17240004 17243728 17252554 
3094.969 17267034 17287480 17313066 17342790 17375654 17410314 17445702 
3098.344 17480850 17514898 17547016 17576756 17603636 17628030 17650874 
3101.720 17673238 17696636 17722210 17750442 17781300 17814164 17848204 
3105.095 17882866 17917706 17952790 17988464 18024796 18061754 18099094 
3108.470 18136370 18173404 18210064 18246656 18283496 18320820 18358598 
3111.845 18396518 18434406 18471846 18509118 18546324 18583984 18622026 
3115.221 18660036 18696980 18731676 18763194 18791044 18815506 18837618 
3118.596 18858588 18879870 18902192 18925828 18950576 18975670 19000142 
3121.971 19023302 19044420 19062940 19079144 19093270 19106218 19119308 
3125.346 19133920 19151440 19172598 19197880 19226660 19258350 19291880 
3128.722 19326242 19360642 19394630 19427686 19459910 19491204 19522046 
3132.097 19552962 19584782 19618026 19653246 19690274 19728654 19767560 
3135.472 19806262 19844446 19882670 19921554 19961692 20003568 20046974 
3138.847 20090698 20133592 20174722 20213736 20251194 20288446 20326568 
3142.223 20366812 20409560 20454362 20500662 20547802 20595396 20643520 
3145.598 20692376 20742142 20792714 20843882 20895474 20947106 20999440 
3148.973 21052858 21108162 21165594 21224844 21285076 21345038 21403406 
3152.348 21459380 21512822 21564074 21614044 21663638 21713760 21764932 
3155.724 21817330 21870918 21925594 21981114 22037232 22093604 22149946 
3159.099 22206122 22262550 22319612 22378112 22438362 22500822 22565106 
3162.474 22630794 22697088 22763530 22829842 22896130 22962986 23030726 
3165.849 23099280 23168616 23237612 23305466 23371022 23433964 23494154 
3169.225 23551764 23607596 23662212 23716344 23770272 23824172 23878114 
3172.600 23932064 23985808 24039526 24093180 24146734 24200366 24253830 
3175.975 24307088 24359970 24412472 24464420 24516302 24568332 24620928 
3179.350 24673988 24727754 24781668 24835800 24889974 24944434 24999850 
3182.726 25056782 25115720 25176392 25238226 25299824 25359956 25417920 
3186.101 25473502 25527824 25582400 25638880 25698744 25762870 25830696 
3189.476 25901348 25973768 26046872 26120056 26192938 26265724 26338382 
3192.851 26410806 26482502 26552978 26622162 26689842 26756404 26822590 
3196.227 26889136 26956752 27026106 27097340 27170562 27245240 27321062 
3199.602 27397356 27473628 27549526 27624834 27699736 27774328 27848902 
3202.977 27923556 27998436 28073152 28148024 28223082 28298758 28375364 
3206.352 28452976 28531310 28609514 28686708 28761790 28834442 28905088 
3209.728 28974576 29044042 29114580 29186440 29259164 29332112 29404328 
3213.103 29475386 29545638 29616118 29687848 29761898 29838304 29916212 
3216.478 29994526 30071538 30145938 30217222 30285750 30352120 30417894 
3219.853 30484072 30552106 30622570 30695926 30772068 30850606 30930656 
3223.229 31010964 31090900 31169676 31247004 31322994 31398140 31472482 
3226.604 31546020 31618282 31688564 31756502 31822064 31885386 31947616 
3229.979 32009746 32072454 32136064 32200936 32266348 32331950 32397456 
3233.354 32462542 32526926 32590352 32652538 32713018 32771722 32828894 
3236.729 32884680 32939904 32994668 33049512 33104434 33159252 33214010 
3240.105 33269274 33325154 33382438 33440978 33500138 33559016 33616152 
3243.480 33670716 33722564 33772844 33823664 33877076 33935072 33998492 
3246.855 34066864 34139084 34213324 34288220 34362880 34437192 34511124 
3250.230 34584920 34658592 34732092 34804816 34876552 34947252 35017212 
3253.606 35086860 35157056 35228056 35300396 35373716 35447848 35521844 
3256.981 35595024 35666308 35735268 35801288 35864728 35926488 35988180 
3260.356 36051284 36117280 36187036 36260580 36337092 36415416 36494372 
3263.731 36573268 36651924 36730668 36810400 36891880 36975828 37062928 
3267.107 37153224 37246680 37343048 37441384 37540752 37639892 37737720 
3270.482 37833396 37926928 38019140 38111188 38204668 38301248 38401288 
3273.857 38505112 38612112 38721100 38831268 38942300 39054088 39167604 
3277.232 39283548 39402604 39525068 39651092 39779800 39910652 40043252 
3280.608 40177348 40313120 40451444 40593084 40738852 40889176 41043816 
3283.983 41202120 41363360 41526408 41690832 41856816 42024940 42196272 
3287.358 42371976 42552436 42737868 42928096 43122620 43320560 43521924 
3290.733 43726124 43933540 44144252 44358400 44575992 44797480 45023088 
3294.109 45253704 45489816 45732012 45980172 46233776 46491992 46753756 
3297.484 47018156 47284852 47554120 47826368 48102300 48382448 48667180 
3300.859 48956816 49251244 49551292 49857424 50170464 50491248 50820240 
3304.234 51157348 51502292 51854376 52212840 52576608 52945584 53319448 
3307.610 53698468 54083600 54475912 54876320 55285864 55704648 56132060 
3310.985 56566872 57007408 57452064 57900204 58351800 58807356 59268136 
3314.360 59734920 60208104 60687444 61172540 61662800 62158052 62658420 
3317.735 63164004 63674740 64190232 64709364 65231396 65755524 66281512 
3321.111 66809304 67339168 67870344 68402240 68933464 69463048 69990680 
3324.486 70517152 71043520 71570960 72099816 72628472 73154080 73672856 
3327.861 74181528 74677736 75160672 75630552 76087784 76532472 76962768 
3331.236 77376504 77771176 78144392 78494784 78821632 79124576 79403432 
3334.612 79657472 79886088 80089000 80266672 80420400 80551888 80661904 
3337.987 80750408 80815648 80855168 80866144 80846184 80794736 80711656 
3341.362 80597472 80452536 80276512 80068480 79827272 79551968 79242032 
3344.737 78897512 78518688 78105848 77659272 77179832 76668472 76127352 
3348.113 75558864 74965952 74351088 73716440 73063152 72392800 71706784 
3351.488 71007664 70297968 69580528 68857360 68129264 67396056 66657304 
3354.863 65912800 65163636 64412340 63662692 62918820 62184660 61462892 
3358.238 60755352 60062620 59384860 58722228 58075036 57443292 56827344 
3361.614 56226864 55641484 55070248 54512460 53967316 53434324 52912948 
3364.989 52402964 51904184 51416644 50940344 50476212 50024844 49587576 
3368.364 49165148 48758440 48367444 47991936 47630692 47282192 46944092 
3371.739 46614040 46289320 45967464 45646908 45326444 45006292 44687144 
3375.115 44370068 44056268 43746608 43440876 43138864 42839592 42542092 
3378.490 42245200 41948108 41649836 41349764 41047388 40742672 40435624 
3381.865 40126724 39816552 39505400 39193532 38880948 38567464 38253408 
3385.240 37939620 37626924 37316580 37009636 36706148 36405836 36107596 
3388.615 35810680 35514580 35219360 34925276 34633220 34343084 34055072 
3391.991 33768508 33483386 33199598 32918170 32640216 32366898 32098356 
3395.366 31834222 31573206 31313558 31054098 30794974 30536750 30281202 
3398.741 30029888 29783544 29542484 29305596 29071850 28840710 28611780 
3402.116 28385092 28161210 27940164 27721384 27504232 27287614 27071350 
3405.492 26855580 26641784 26431054 26224788 26023088 25825526 25630480 
3408.867 25436504 25242298 25047864 24854010 24662064 24473848 24290900 
3412.242 24113388 23940852 23772022 23605148 23438722 23272254 23105256 
3415.617 22938674 22773550 22610828 22451168 22294426 22140218 21987596 
3418.993 21836354 21686278 21538344 21393834 21254070 21120092 20992310 
3422.368 20869780 20751352 20635492 20520498 20405288 20288932 20170938 
3425.743 20050966 19929186 19806054 19682228 19559202 19438532 19321498 
3429.118 19209100 19101336 18997408 18896134 18796200 18697152 18599130 
3432.494 18502894 18409446 18318920 18230900 18143900 18056054 17965706 
3435.869 17872026 17775606 17678206 17582106 17489508 17401760 17318858 
3439.244 17239970 17163130 17086752 17009112 16929626 16848226 16765393 
3442.619 16682165 16598746 16515307 16431231 16345795 16257901 16167099 
3445.995 16073292 15977476 15881199 15786458 15694998 15608368 15526700 
3449.370 15449579 15376111 15304920 15234839 15164907 15094196 15021851 
3452.745 14947529 14870374 14790250 14707021 14621376 14534137 14446539 
3456.120 14359643 14273963 14189978 14107378 14025649 13944449 13863709 
3459.496 13783189 13703333 13624415 13547050 13471715 13399298 13329969 
3462.871 13264236 13201896 13142228 13083730 13025205 12965254 12902923 
3466.246 12838621 12772587 12705745 12639050 12572161 12504532 12435208 
3469.621 12362929 12287425 12208764 12128005 12046171 11964761 11885035 
3472.997 11807605 11733116 11662145 11595202 11532318 11473117 11416680 
3476.372 11361849 11306990 11250881 11193078 11133686 11073316 11012036 
3479.747 10949951 10886616 10821220 10753216 10683255 10612897 10544485 
3483.122 10480023 10420965 10367176 10316820 10267556 10217177 10164294 
3486.498 10109113 10053497 9999244 9948286 9900928 9856490 9812463 9766916 
3490.355 9718087 9665366 9610384 9555001 9501725 9452485 9408228 9368919 
3494.212 9333743 9301109 9269967 9239606 9209855 9181225 9154592 9130465 
3498.070 9109282 9091146 9075041 9059850 9043915 9025308 9002508 8974669 
3501.927 8941622 8904621 8866202 8829005 8796172 8770172 8752050 8741096 
3505.785 8735822 8732948 8729939 8724801 8716586 8706309 8695931 8688427 
3509.642 8685959 8689745 8699582 8713780 8730007 8746302 8761009 8774195 
3513.500 8786299 8798167 8810914 8824473 8838000 8850308 8859878 8866067 
3517.357 8868637 8868908 8868366 8868265 8869685 8872256 8874928 8875739 
3521.214 8872865 8865053 8851728 8833840 8812199 8788632 8763646 8737208 
3525.072 8707999 8673621 8631911 8580945 8520219 8450616 8374268 8294354 
3528.929 8214015 8135988 8062092 7993271 7929152 7869529 7812951 7758033 
3532.787 7702954 7645689 7584150 7516821 7443199 7363624 7279819 7193941 
3536.644 7108552 7025738 6946880 6872614 6803477 6739802 6681621 6629470 
3540.501 6582607 6539887 6499289 6458325 6414540 6366389 6313637 6257093 
3544.359 6198507 6139491 6081525 6024877 5969781 5915432 5861593 5808331 
3548.216 5755916 5704547 5654595 5605554 5557157 5509235 5461151 5413004 
3552.074 5365098 5317600 5270744 5224698 5179428 5135437 5093394 5054071 
3555.931 5018204 4986128 4957204 4930125 4903316 4874833 4843672 4809899 
3559.789 4773785 4737070 4701229 4667401 4636388 4608526 4582842 4558197 
3563.646 4532717 4504258 4469943 4426995 4373240 4307343 4230382 4145439 
3567.503 4057771 3973197 3897365 3834115 3785513 3750921 3728362 3714259 
3571.361 3704200 3693841 3679204 3657518 3627713 3590494 3547899 3502837 
3575.218 3458114 3415866 3376828 3340866 3307344 3275126 3244213 3214804 
3579.076 3187633 3163935 3144444 3129359 3118679 3111872 3108201 3106665 
3582.933 3106198 3105164 3101259 3091782 3073729 3044131 3001490 2946143 
3586.791 2881163 2811758 2744798 2687116 2642944 2613708 2597342 2590109 
3590.648 2587109 2583442 2575676 2561777 2541480 2515918 2487191 2457500 
3594.505 2428944 2402922 2380633 2362709 2349883 2342088 2338623 2338023 
3598.363 2337391 2333926 2324932 2309076 2286925 2260977 2234300 2210654 
3602.220 2192404 2180549 2174421 2172623 2172989 2173755 2173389 2170192 
3606.078 2162433 2148481 2127370 2099302 2066641 2033284 2004223 1982820 
3609.935 1970305 1964380 1961185 1955460 1943545 1924474 1900546 1876519 
3613.792 1857584 1847269 1846004 1851228 1857551 1859281 1851661 1831863 
3617.650 1799422 1756836 1708400 1659537 1614903 1578255 1551186 1533563 
3621.507 1524286 1521559 1524485 1532831 1547795 1570972 1603729 1645435 
3625.365 1692633 1738206 1772273 1783085 1760462 1699851 1606090 1495326 
3629.222 1390240 1312598 1273583 1271821 1296812 1334965 1373720 1404235 
3633.080 1422850 1430662 1431660 1431194 1432990 1437910 1444924 1450675 
3636.937 1452072 1447850 1438309 1425543 1412279 1400778 1391803 1385421 
3640.794 1380734 1377510 1376945 1381432 1393564 1416002 1448614 1489640 
3644.652 1534826 1578288 1614205 1637885 1646299 1638483 1615036 1577523 
3648.509 1527977 1468595 1403437 1337957 1280096 1238226 1217824 1221114 
3652.367 1244839 1282223 1323698 1359361 1380701 1382196 1362785 1326956 
3656.224 1283885 1244141 1216462 1205929 1212242 1231946 1259593 1290199 
3660.082 1319311 1344271 1364513 1380468 1393897 1406395 1419859 1435449 
3663.939 1454465 1478469 1509157 1548493 1597277 1655113 1719078 1784649 
3667.796 1846537 1902809 1957923 2024429 2124274 2283294 2521016 2846276 
3671.654 3255329 3735881 4270701 4839685 5418674 5968605 6434717 6752321 
3675.511 6860933 6732870 6384345 5866227 5240828 4564860 3887402 3246516 
3679.369 2674147 2195468 1822779 1554212 1374651 1261852 1192273 1147887 
3683.226 1119450 1104169 1103106 1117091 1143834 1176724 1207690 1226895 
3687.083 1227061 1204899 1162737 1106428 1044745 985695 934656 894545 866258 
3691.423 849758 844612 849359 861942 879140 897367 913504 925059 931534 
3695.763 933659 933792 934855 938640 946444 957302 968593 976795 977825 
3700.102 968825 949499 921805 890594 862705 844014 838171 846205 865926 
3704.442 893350 924428 955476 984832 1012097 1038169 1064242 1090483 1116095 
3708.781 1138186 1152936 1156159 1143767 1114633 1070487 1016814 961984 
3712.639 915164 884352 873097 881497 905336 938507 974305 1006784 1032124 
3716.979 1049329 1059758 1066136 1071616 1077794 1084803 1090649 1092975 
3720.836 1090018 1081548 1069092 1055374 1043251 1034350 1028205 1022925 
3724.693 1015884 1005289 991142 975832 963877 960523 969655 992038 1025283 
3729.033 1064309 1102110 1131774 1148717 1151109 1141276 1124699 1107823 
3732.890 1095134 1086995 1079256 1065870 1041590 1005655 962250 920045 
3736.748 888502 873728 877148 896405 927848 968991 1018906 1078027 1145694 
3741.087 1217758 1285280 1334567 1348925 1314758 1227892 1102342 968659 
3744.945 866059 821141 837972 901418 987854 1073908 1140977 1178219 1183004 
3749.284 1160245 1119317 1070487 1021895 977758 940931 914733 903444 910815 
3753.624 938042 981810 1035844 1091513 1141043 1178585 1201709 1211079 
3757.481 1209584 1200214 1185263 1166159 1144133 1121742 1103206 1092975 
3761.339 1094171 1107059 1127821 1150146 1167123 1173834 1169083 1156591 
3765.196 1142937 1135462 1139083 1153435 1174033 1193735 1205597 1205364 
3769.054 1192306 1169714 1143634 1120347 1104269 1097359 1099120 1107790 
3772.911 1121177 1137920 1156923 1178053 1200812 1224669 1248294 1269362 
3776.769 1284882 1290764 1284649 1265142 1233906 1196028 1158983 1130545 
3780.626 1115729 1116095 1128386 1146857 1164398 1175428 1176757 1168850 
3784.483 1154465 1137920 1123004 1111843 1104601 1100249 1097426 1095366 
3788.341 1093905 1092941 1092642 1092775 1092941 1093240 1094835 1099087 
3792.198 1107757 1121543 1139149 1157421 1172305 1180179 1179615 1172970 
3796.056 1166093 1166990 1182173 1213970 1258496 1307580 1348692 1369133 
3799.913 1359129 1315356 1244540 1162139 1090251 1047436 1042055 1071118 
3803.771 1122041 1179249 1225998 1249590 1243443 1209451 1157056 1102110 
3807.628 1060589 1041258 1045642 1067830 1099618 1134233 1168053 1201776 
3811.485 1238459 1281824 1332240 1386451 1436646 1473382 1486947 1473249 
3815.343 1435516 1387116 1345535 1326125 1335962 1371261 1419692 1463874 
3819.200 1487379 1477605 1429964 1350819 1257831 1174465 1119383 1101578 
3823.058 1117556 1156425 1203769 1246766 1277471 1292658 1294818 1290066 
3826.915 1286244 1289368 1301930 1322402 1346199 1367937 1382628 1387614 
3830.772 1383293 1372723 1361023 1353578 1355107 1367837 1391238 1422119 
3834.630 1455064 1483257 1499615 1498551 1477538 1438142 1386119 1330877 
3838.487 1281857 1246234 1227028 1223041 1229852 1242247 1255040 1264477 
3842.345 1268332 1266505 1260157 1251950 1245104 1243343 1249491 1265142 
3846.202 1290298 1323466 1362386 1404933 1449878 1497553 1548726 1603729 
3850.060 1660701 1713423 1751280 1760396 1726164 1640179 1507229 1350188 
3853.917 1201477 1090816 1033420 1026213 1055872 1105465 1161641 1214933 
3857.774 1260988 1299205 1330778 1357533 1380667 1401010 1418629 1433189 
3861.632 1444093 1450177 1449346 1439406 1419593 1391005 1359129 1332373 
3865.489 1319677 1327088 1354774 1396157 1439439 1471421 1480830 1462478 
3869.347 1421155 1370130 1327587 1306782 1312498 1338522 1373022 1402573 
3873.204 1417432 1414706 1398185 1377310 1362187 1360790 1375183 1402041 
3877.062 1434253 1463608 1482625 1486182 1472751 1445024 1410152 1377077 
3880.919 1355539 1352248 1368402 1399980 1438242 1472185 1490338 1484420 
3884.776 1452803 1401642 1344970 1298740 1277006 1284948 1319278 1370430 
3888.634 1426208 1475211 1508060 1520994 1514012 1492799 1464572 1437345 
3892.491 1417066 1406395 1406030 1415038 1431660 1454332 1480963 1509623 
3896.349 1537620 1562393 1581481 1593552 1598175 1596745 1592023 1586702 
3900.206 1583110 1582212 1582445 1580749 1573433 1557538 1532166 1499482 
3904.063 1464173 1432225 1409587 1399647 1402805 1416867 1437743 1461015 
3907.921 1482924 1501177 1514643 1523820 1529673 1533796 1537952 1543904 
3911.778 1553348 1567115 1585704 1607952 1631831 1653916 1670580 1679061 
3915.636 1677930 1668019 1651654 1632463 1613939 1598507 1587400 1580949 
3919.493 1579386 1583276 1592821 1608385 1628506 1650124 1669183 1680725 
3923.351 1681024 1669183 1647098 1619725 1593652 1575262 1567780 1571803 
3927.208 1585172 1603695 1622985 1639082 1649725 1653616 1651089 1642508 
3931.065 1629537 1613939 1597676 1583443 1573533 1569276 1571338 1578355 
3934.923 1588630 1599206 1608385 1614703 1618595 1621322 1625113 1631732 
3938.780 1642375 1656344 1671478 1685348 1694529 1696757 1691302 1679294 
3942.638 1663495 1647763 1635756 1629836 1630767 1637319 1647330 1657907 
3946.495 1666588 1671744 1672974 1670779 1666089 1660036 1653916 1648295 
3950.353 1644137 1642075 1643372 1648328 1657209 1669183 1682487 1694695 
3954.210 1703942 1708200 1707435 1702446 1695460 1689040 1685348 1685880 
3958.067 1690637 1698620 1707834 1716250 1722005 1723868 1721606 1716018 
3961.925 1708001 1699618 1692533 1688142 1687344 1690570 1697190 1706637 
3965.782 1717548 1728592 1738372 1745824 1749883 1750548 1748020 1743462 
3969.640 1738406 1734380 1732584 1733582 1737441 1743096 1749184 1754673 
3973.497 1758599 1761161 1762791 1764288 1766517 1769911 1773936 1778294 
3977.354 1782387 1785681 1788109 1789440 1789839 1789241 1787311 1784183 
3981.212 1779858 1775134 1770709 1767582 1766351 1767183 1769711 1773104 
3985.069 1776631 1779825 1782287 1784183 1785614 1786778 1787510 1787810 
3988.927 1787544 1786912 1785913 1784849 1783817 1782254 1779725 1775999 
3992.784 1771142 1765852 1761627 1760196 1762691 1769844 1780524 1793133 
3996.642 1805410 1815059 1820616 1821747 1818886 1813163 1805976 1798623 
4000.499 1792102 
##END=
