
##TITLE=mdmaHCL00420_4
##JCAMP-DX=5.01  $$ Nicolet v. 1
##DATATYPE=INFRARED SPECTRUM
##ORIGIN=UniL
##OWNER=Nicolet
##LONGDATE=2011/08/23
##TIME=09:54:42
##SPECTROMETER/DATA SYSTEM=Nicolet iS5
##DATA PROCESSING=
Ratio against background
%Transmittance->Absorbance
Truncated
ElementMultiply or ElementDivide
##COMMENTS=
Number of sample scans: 32
Collection length: 51.17 sec
Sample gain: 2.0
Background collected on: Mar Aout 23 09:52:45 2011 (GMT+02:00);
Number of background scans: 32
Background gain: 2.0
Sample spacing:  1.000
Number of scan points: 12415
Resolution points: 8192
Number of FFT points: 65536
Apodization: N-B fort;
Phase correction: Mertz;
Laser frequency: 15798.0 cm-1
Number of rejected sample scans: 0
Number of rejected background scans: 0
Bench serial number: ASB1000141;
##RESOLUTION=4.000
##XUNITS=1/CM
##YUNITS=ABSORBANCE
##FIRSTX=649.893372
##LASTX=4000.122314
##FIRSTY=0.081003
##MAXX=4000.122314
##MINX=649.893372
##MAXY=0.268100
##MINY=0.000300
##XFACTOR=1.000000
##YFACTOR=1.000000E-009
##NPOINTS=6950
##DELTAX=0.482117
##ZPD=6100
##XYDATA=(X++(Y..Y))
649.893 81002672 80705352 80407600 80138736 79918312 79753288 79642784 
653.268 79585912 79591912 79679680 79869000 80170056 80572624 81049832 
656.643 81566384 82097440 82640848 83218816 83867632 84619112 85490320 
660.018 86479160 87573120 88766208 90067032 91496984 93076560 94803744 
663.393 96642744 98523896 100367360 102103680 103678000 105060624 106231576 
666.767 107167304 107837600 108214248 108289920 108083592 107626656 
669.660 106937648 106014088 104835152 103381728 101653704 99685928 97548640 
673.035 95326200 93106728 90953824 88900528 86961288 85143192 83456896 
676.410 81919624 80545784 79336848 78276936 77334144 76469440 75645416 
679.785 74838744 74038400 73244824 72462872 71697176 70950032 70223448 
683.159 69521376 68851808 68223928 67645248 67116944 66633164 66181868 
686.534 65749972 65328092 64913280 64508392 64119132 63749328 63397556 
689.909 63055144 62709100 62345240 61952524 61524924 61062012 60568428 
693.284 60051548 59519476 58982324 58451524 57939392 57459288 57022752 
696.659 56637308 56305844 56025856 55790956 55592792 55424036 55280108 
700.034 55159664 55064156 54995592 54955276 54942644 54954752 54987920 
703.408 55039256 55107564 55193300 55297604 55419704 55556488 55701936 
706.783 55849248 55993288 56133192 56273668 56424756 56599108 56813748 
710.158 57088272 57446168 57917352 58533260 59319680 60286672 61414876 
713.533 62647284 63884580 65008052 65894136 66441760 66602260 66383616 
716.908 65852752 65112784 64297796 63550756 63002968 62782416 62996112 
720.282 63714988 64962796 66688136 68756376 70933296 72927912 74440200 
723.657 75202552 75064720 74019376 72212304 69893720 67368536 64931788 
727.032 62790000 61057812 59753852 58830648 58206404 57797312 57540536 
730.407 57390724 57319600 57308296 57338616 57394620 57464620 57543032 
733.782 57630768 57732900 57852620 57988992 58135528 58283548 58425784 
737.156 58559992 58688700 58816156 58945284 59074600 59198716 59312308 
740.531 59413392 59507472 59606128 59724084 59872384 60055088 60266496 
743.906 60493580 60719000 60926304 61104232 61246436 61351636 61422356 
747.281 61463196 61481216 61484916 61484688 61490756 61510492 61547104 
750.656 61598456 61659328 61723184 61786512 61849968 61918096 61997504 
754.031 62094552 62213188 62354420 62517852 62702364 62906908 63130552 
757.405 63371136 63625208 63887304 64152396 64416840 64679796 64942600 
760.780 65208064 65477780 65751896 66029124 66309616 66597700 66905072 
764.155 67252704 67669136 68194776 68879256 69775728 70940088 72411784 
767.530 74194896 76234080 78401824 80506976 82302912 83557624 84110496 
770.905 83920928 83099672 81888184 80610520 79555624 78917456 78729504 
774.279 78864016 79063760 79020912 78490456 77335568 75577152 73363792 
777.654 70929824 68517256 66307800 64412616 62854244 61592960 60553304 
781.029 59658772 58849960 58089996 57365616 56678760 56039764 55461868 
784.404 54959116 54545896 54234828 54036804 53959060 54004800 54174012 
787.779 54465840 54881128 55424864 56106608 56938996 57937384 59117308 
791.154 60494380 62087480 63918740 66014424 68404528 71114936 74159792 
794.528 77532504 81199408 85096920 89129552 93189144 97159088 100933800 
797.903 104445960 107679680 110689832 113594872 116576024 119836848 
800.796 123544272 127789464 132520392 137522560 142384256 146560720 
803.689 149476592 150593632 149588832 146426480 141389616 135003104 
806.581 127917960 120785536 114068952 108010208 102609064 97685920 92968808 
809.956 88200840 83238512 78070504 72815640 67657248 62799564 58402852 
813.331 54552280 51268144 48514768 46228396 44334432 42765800 41468480 
816.706 40396020 39512368 38788008 38198484 37726912 37362040 37096240 
820.081 36923876 36838784 36833884 36903640 37045464 37261808 37560008 
823.455 37950576 38444432 39049992 39772392 40611748 41563452 42615844 
826.830 43749908 44938088 46143232 47325940 48452308 49502460 50482464 
830.205 51430444 52420984 53551776 54941028 56711984 58962972 61752364 
833.580 65064512 68793960 72715936 76491136 79723072 81969248 82850792 
836.955 82144320 79818904 76066984 71244144 65824420 60273424 54975584 
840.329 50218704 46148980 42802440 40134900 38059572 36474228 35278652 
843.704 34391248 33742044 33272422 32938224 32704122 32546602 32453008 
847.079 32416734 32433588 32497786 32599818 32729060 32877568 33042252 
850.454 33227030 33440192 33691520 33987416 34329636 34716160 35143940 
853.829 35611852 36122936 36682752 37298780 37977404 38723524 39541768 
857.204 40439808 41429148 42528572 43762844 45160276 46755048 48586204 
860.578 50695108 53127868 55923256 59098972 62630168 66431224 70344368 
863.953 74125480 77487432 80128896 81773448 82244056 81482232 79569472 
867.328 76701640 73168272 69303280 65409244 61752516 58524500 55830068 
870.703 53711440 52156080 51118172 50530180 50315612 50397020 50690416 
874.078 51113624 51588996 52041584 52413880 52670040 52800496 52823284 
877.452 52779764 52727424 52721400 52806780 53004464 53303976 53662812 
880.827 54011104 54271280 54366280 54241588 53879120 53300380 52563368 
884.202 51745256 50933452 50202340 49602104 49160324 48881312 48756364 
887.577 48771896 48916800 49183812 49568712 50066752 50669304 51362412 
890.952 52129592 52953672 53820232 54719908 55647700 56601144 57578704 
894.327 58577624 59593436 60619400 61644508 62651872 63618460 64510620 
897.701 65290124 65918468 66362188 66602648 66639228 66490532 66189164 
901.076 65776340 65297552 64793020 64299368 63849384 63468380 63179904 
904.451 63004040 62957004 63053040 63304664 63722052 64315468 65094540 
907.826 66067508 67241760 68622168 70211384 72010640 74020880 76242928 
911.201 78677440 81323888 84177584 87228488 90463128 93867064 97430816 
914.575 101156080 105059184 109173224 113539184 118202528 123199240 
917.468 128542632 134208336 140118704 146136752 152038464 157526608 
920.361 162258608 165853312 167986336 168454896 167238368 164538816 
923.254 160774736 156560784 152569392 149484768 147911904 148244608 
926.146 150650768 155006672 160925456 167744096 174607952 180650992 
929.039 185033424 187137824 186666656 183626032 178290928 171081440 
931.932 162495968 153002576 143005376 132870216 122899032 113351728 
934.824 104463320 96412168 89331064 83305184 78364800 74505136 71696704 
938.199 69896672 69050912 69087080 69908424 71366208 73254632 75331208 
941.574 77307064 78900496 79885216 80102000 79499360 78129680 76138680 
944.949 73725784 71106544 68492224 66042856 63866116 62018256 60508052 
948.324 59314208 58398456 57720788 57242704 56931140 56759448 56703072 
951.698 56738904 56847060 57010132 57215564 57457056 57732100 58040684 
955.073 58382084 58753712 59151328 59570020 60006012 60458088 60926496 
958.448 61412012 61914424 62431500 62959724 63496568 64041256 64596660 
961.823 65166600 65755368 66364736 66993520 67637736 68293648 68958824 
965.198 69634472 70324032 71031504 71759600 72508368 73275920 74059848 
968.573 74859096 75674648 76509264 77365144 78242456 79138808 80050200 
971.947 80973648 81908144 82856528 83824072 84815712 85834384 86880216 
975.322 87951168 89045640 90163864 91309224 92486320 93699992 94952440 
978.697 96243536 97572496 98940240 100350824 101812672 103334984 104925216 
982.072 106585824 108313776 110101224 111938080 113813784 115716136 
984.964 117627984 119524944 121370320 123117232 124717896 126126472 
987.857 127310712 128258080 128975000 129485832 129826280 130043704 
990.750 130189944 130318072 130484088 130735904 131111000 131633400 
993.643 132309600 133132864 134087664 135158496 136333456 137606560 
996.535 138976912 140443984 142004816 143652928 145379232 147175280 
999.428 149035424 150954992 152926944 154938784 156967472 158982640 
1002.321 160951952 162846160 164647968 166353840 167973552 169525696 
1005.213 171034464 172528592 174038416 175598576 177246912 179017024 
1008.106 180936224 183018192 185260976 187649008 190157840 192762736 
1010.999 195439056 198164272 200914400 203656944 206352080 208958208 
1013.891 211436368 213762144 215928720 217943232 219817312 221554896 
1016.784 223144240 224558320 225761152 226719312 227415952 227856416 
1019.677 228072112 228112800 228049248 227967104 227956832 228118512 
1022.570 228548704 229324512 230502560 232104880 234121248 236512400 
1025.462 239223152 242194128 245360848 248659184 252017264 255341856 
1028.355 258525728 261445696 263970400 265984480 267387904 268100080 
1031.249 268063248 267232240 265578800 263098544 259818192 255803312 
1034.142 251149472 245980368 240427328 234611248 228648480 222641744 
1037.035 216683648 210870096 205291536 200031488 195168384 190762544 
1039.928 186858592 183485568 180650592 178334400 176476736 174972656 
1042.821 173655664 172300032 170661568 168485760 165563264 161780720 
1045.714 157128592 151714032 145725760 139416880 133050040 126854840 
1048.607 121027760 115699744 110940008 106769576 103167720 100087696 
1051.500 97467232 95243712 93358032 91757992 90402856 89257800 88290320 
1054.875 87469032 86758248 86118552 85511624 84899864 84251880 83546016 
1058.250 82769000 81917784 80999200 80030120 79037720 78056936 77132184 
1061.626 76309320 75631616 75138304 74857168 74805568 74990128 75407120 
1065.001 76041912 76866496 77840424 78906136 79989208 81011736 81892576 
1068.376 82563344 82980456 83125840 83009336 82660728 82123744 81445384 
1071.751 80666456 79822328 78937296 78026360 77098984 76161064 75219296 
1075.127 74284440 73372472 72505464 71710456 71013280 70436824 69996632 
1078.502 69697840 69536160 69498312 69565904 69714608 69915984 70139880 
1081.877 70351336 70515824 70604736 70598968 70497432 70318728 70103432 
1085.252 69906128 69789112 69818888 70052112 70535008 71299392 72358352 
1088.628 73705528 75310800 77124704 79075200 81074192 83035280 84875528 
1092.003 86530800 87963464 89157824 90116568 90850848 91374576 91699056 
1095.378 91833392 91790616 91593032 91277136 90899408 90527528 90232912 
1098.753 90079416 90100784 90289528 90583728 90876416 91018256 90840840 
1102.129 90200280 88990608 87175032 84791664 81948920 78804976 75530864 
1105.504 72303520 69271800 66541852 64185156 62232188 60683180 59517352 
1108.879 58701936 58198300 57963244 57955252 58131704 58447200 58857740 
1112.254 59315424 59769364 60172332 60479072 60652928 60671824 60527788 
1115.630 60228508 59792412 59247136 58623128 57948896 57252116 56555552 
1119.005 55877320 55231792 54628100 54070952 53561556 53098848 52681184 
1122.380 52307088 51975996 51685872 51430780 51199512 50973580 50729516 
1125.755 50445396 50103932 49699388 49239812 48747244 48252864 47789376 
1129.131 47387648 47069220 46843288 46707708 46649712 46649820 46682248 
1132.506 46721544 46744052 46731436 46674356 46574164 46443024 46300420 
1135.881 46170904 46078640 46041872 46071348 46168292 46324824 46524448 
1139.256 46744532 46959340 47139868 47258072 47290692 47219244 47033476 
1142.632 46731172 46317300 45802004 45198692 44523860 43794800 43029864 
1146.007 42248964 41470740 40712648 39989484 39310464 38680492 38100120 
1149.382 37567268 37079240 36633972 36230720 35869804 35551076 35273732 
1152.757 35035888 34835584 34671620 34544056 34454124 34403764 34393864 
1156.133 34423884 34491608 34593748 34727248 34890016 35081040 35300360 
1159.508 35547696 35822556 36123728 36449900 36799584 37171384 37562792 
1162.883 37968656 38381124 38788332 39175984 39530044 39836668 40085076 
1166.258 40267748 40379552 40417876 40382752 40276836 40106224 39880652 
1169.634 39613632 39319424 39012944 38707876 38415188 38144324 37904292 
1173.009 37703852 37553108 37462836 37442684 37501268 37644808 37877752 
1176.384 38204128 38628992 39159084 39802860 40569912 41469536 42510816 
1179.759 43702124 45052236 46572064 48272932 50167932 52269864 54589212 
1183.135 57133544 59905964 62902964 66109560 69493072 73000696 76547440 
1186.510 80018168 83281216 86183112 88576712 90338968 91375104 91637632 
1189.885 91128256 89897744 88035240 85658104 82903408 79902536 76777984 
1193.260 73638936 70568016 67630264 64872384 62321452 59991552 57884380 
1196.635 55991932 54299588 52787848 51436452 50223876 49129676 48135984 
1200.011 47225748 46384068 45598220 44856480 44150300 43474196 42827120 
1203.386 42212300 41637036 41110908 40643040 40240228 39905748 39638276 
1206.761 39433592 39285436 39188240 39136676 39125832 39151072 39206444 
1210.136 39285508 39382688 39493972 39619292 39762372 39931104 40134972 
1213.512 40383768 40686592 41050116 41478944 41975408 42539608 43168948 
1216.887 43857660 44597732 45379116 46191616 47027644 47882116 48753252 
1220.262 49642144 50551476 51485352 52449024 53450436 54499988 55610040 
1223.637 56794072 58063296 59423992 60875108 62407704 64005160 65642700 
1227.013 67291192 68917000 70482272 71951280 73290640 74474176 75488832 
1230.388 76334600 77026816 77591920 78069072 78507688 78962208 79499040 
1233.763 80191096 81111728 82338840 83942792 85980648 88497040 91517968 
1237.138 95052024 99091560 103614824 108584240 113941176 119611120 125497744 
1240.514 131484880 137457136 143296672 148894608 154161248 159015088 
1243.407 163382624 167198544 170398112 172921600 174717536 175738736 
1246.300 175946720 175313456 173823136 171480752 168316576 164388528 
1249.193 159772896 154553952 148814656 142623056 136035904 129108000 
1252.086 121897984 114483168 106964688 99454904 92082152 84975856 78245632 
1255.461 71988072 66271016 61128068 56565212 52560076 49070800 46040328 
1258.836 43406088 41106716 39080552 37274156 35642928 34149800 32769076 
1262.212 31484026 30284790 29166312 28125398 27158956 26263822 25436574 
1265.587 24674094 23974604 23336162 22755918 22229660 21751346 21314306 
1268.962 20913656 20547140 20216444 19926100 19682610 19491480 19357144 
1272.337 19282838 19271374 19326762 19454054 19658654 19944172 20310040 
1275.713 20749926 21249826 21787890 22336564 22861378 23323576 23686354 
1279.088 23915574 23988014 23896704 23652238 23281622 22820902 22311098 
1282.463 21787264 21273280 20782912 20320074 19884368 19475852 19097426 
1285.838 18755064 18455666 18204086 18002106 17848238 17740018 17675998 
1289.214 17656396 17683384 17758210 17880346 18046418 18250562 18486126 
1292.589 18747348 19028530 19323678 19625026 19921624 20201066 20453146 
1295.964 20671908 20859664 21026704 21190364 21370132 21585594 21854612 
1299.339 22190918 22605732 23106480 23693632 24357202 25072332 25800210 
1302.715 26486692 27071102 27498584 27723714 27721456 27489514 27046876 
1306.090 26428764 25679972 24852572 23996068 23155440 22369144 21663568 
1309.465 21053868 20543424 20126894 19793430 19531440 19332200 19190018 
1312.840 19101648 19064048 19072842 19120934 19201862 19309858 19442688 
1316.216 19600172 19782888 19988858 20212418 20444396 20675174 20898114 
1319.591 21111606 21319876 21529776 21747514 21975118 22209226 22442202 
1322.966 22665038 22870212 23053194 23214158 23356652 23488208 23619070 
1326.341 23764078 23940956 24167682 24460774 24828678 25268988 25767052 
1329.717 26299938 26842502 27372406 27876846 28352834 28805302 29241938 
1333.092 29669330 30090500 30504936 30910374 31305544 31690952 32069172 
1336.467 32443546 32816708 33191264 33569756 33956248 34356888 34778720 
1339.842 35226904 35703540 36206556 36731284 37272604 37828156 38398100 
1343.218 38984344 39588732 40210824 40847716 41496076 42153512 42820356 
1346.593 43497636 44181996 44858720 45498976 46054472 46463452 46664652 
1349.968 46602164 46242032 45579008 44638596 43474016 42155700 40769784 
1353.343 39400900 38124824 37007648 36093264 35403552 34937052 34671940 
1356.719 34571612 34591884 34693616 34844164 35020840 35211632 35410888 
1360.094 35618468 35839824 36087436 36382808 36752592 37225888 37822732 
1363.469 38545304 39373724 40266876 41170792 42019608 42747924 43293576 
1366.844 43598076 43619688 43336812 42755564 41908952 40854232 39663364 
1370.219 38404144 37138392 35912844 34756680 33690516 32731418 31897440 
1373.595 31211862 30697276 30367434 30220916 30239886 30396430 30661610 
1376.970 31017336 31460550 32004968 32676506 33510338 34549796 35841340 
1380.345 37436940 39386608 41721212 44430920 47436504 50588624 53653740 
1383.720 56345828 58384128 59500400 59500136 58300452 55962572 52709876 
1387.096 48886912 44916776 41171628 37902556 35228952 33145450 31576268 
1390.471 30413664 29555570 28914260 28419262 28021550 27684762 27385252 
1393.846 27111976 26863652 26645906 26466444 26329758 26235066 26177170 
1397.221 26149052 26145322 26164044 26208352 26284486 26399996 26561222 
1400.597 26771556 27030090 27333096 27674344 28046324 28440946 28851934 
1403.972 29274972 29708426 30151940 30606110 31070720 31545232 32030292 
1407.347 32529388 33048798 33597288 34183104 34811568 35483800 36197296 
1410.722 36947580 37729948 38538968 39365420 40190724 40986208 41714832 
1414.098 42336948 42826280 43177588 43413848 43580968 43742836 43971160 
1417.473 44328124 44860924 45586628 46485060 47500448 48555524 49575248 
1420.848 50497316 51283956 51922928 52426404 52834544 53210932 53639532 
1424.223 54197624 54935728 55864660 56955540 58156740 59412252 60682380 
1427.599 61943696 63188568 64419760 65644860 66876324 68132600 69444968 
1430.974 70855624 72406144 74131296 76045552 78144472 80409752 82826976 
1434.349 85400608 88154760 91130144 94360560 97847480 101537136 105336584 
1437.724 109150472 112906784 116561512 120076176 123399544 126438096 
1440.617 129053536 131092800 132390928 132807896 132256120 130700856 
1443.510 128173544 124766256 120639104 115997088 111060312 106064464 
1446.404 101219200 96699912 92650384 89157424 86242920 83856944 81898624 
1449.779 80243032 78778128 77442472 76234280 75208344 74442040 74006456 
1453.154 73929224 74185064 74698160 75362344 76070104 76719072 77247248 
1456.529 77652736 78008760 78433496 79042088 79925480 81130984 82677600 
1459.905 84568424 86787784 89298048 92027720 94882144 97726000 100382144 
1463.280 102662408 104375120 105384432 105662880 105312008 104532144 
1466.173 103541256 102537600 101655880 100967824 100507200 100275688 
1469.066 100251224 100382432 100585424 100743008 100702768 100319728 
1471.959 99498560 98242808 96664272 94943368 93262488 91746408 90467248 
1475.334 89461152 88748248 88349160 88277528 88526776 89060928 89814976 
1478.709 90711016 91666280 92614952 93520696 94376864 95207488 96055992 
1482.085 96978360 98030184 99267632 100754456 102559968 104759184 107418264 
1485.460 110570824 114188448 118150464 122250536 126177592 129541992 
1488.353 131941464 132979336 132359832 129974096 125940712 120601224 
1491.246 114413096 107853200 101289312 94937600 88907808 83220256 77867064 
1494.621 72867248 68276896 64197256 60750356 58033416 56084932 54875116 
1497.997 54333120 54370260 54904932 55873776 57221536 58893372 60832492 
1501.372 62969184 65225624 67523336 69763664 71831096 73584608 74821624 
1504.747 75288096 74700240 72823864 69621216 65354824 60535976 55686796 
1508.122 51148740 47036544 43315980 39908508 36754580 33830044 31149668 
1511.498 28743946 26633224 24820962 23287636 22000806 20925236 20029312 
1514.873 19286614 18670966 18156546 17721486 17351238 17045158 16812852 
1518.248 16665982 16607730 16627559 16700104 16796252 16893316 16991368 
1521.623 17113428 17295720 17564680 17922816 18352720 18828102 19329154 
1524.999 19848748 20396920 20993944 21661828 22411148 23237262 24124878 
1528.374 25057344 26024532 27025930 28070500 29171238 30340926 31589526 
1531.749 32922174 34338708 35832520 37388656 38983256 40585992 42167824 
1535.124 43704616 45178804 46572544 47866540 49042496 50076492 50947236 
1538.500 51636720 52133368 52428984 52518196 52404984 52105648 51651500 
1541.875 51080380 50421992 49687056 48863848 47930952 46872632 45699360 
1545.250 44452096 43192624 41977636 40832352 39747448 38684912 37601232 
1548.625 36469364 35297808 34130376 33032030 32055404 31219838 30509520 
1552.000 29887246 29316798 28778572 28278530 27839856 27487254 27227108 
1555.376 27039786 26879514 26688152 26396264 25931630 25234714 24283332 
1558.751 23129718 21902072 20751422 19776682 18998620 18385040 17882728 
1562.126 17439596 17010836 16565079 16087355 15583674 15077868 14603214 
1565.501 14189944 13849990 13575492 13342508 13123240 12894969 12649012 
1568.877 12392999 12146847 11933257 11766885 11650913 11580194 11546778 
1572.252 11543376 11563894 11601293 11644004 11677155 11685801 11662213 
1575.627 11613239 11561887 11539123 11565766 11644549 11761337 11895626 
1579.002 12028900 12150970 12260976 12365078 12471488 12586247 12710590 
1582.378 12841828 12976417 13112244 13249752 13389457 13529309 13661820 
1585.753 13776211 13860459 13907908 13920293 13909380 13893197 13892240 
1589.128 13924878 14003987 14137705 14331218 14587143 14904903 15276502 
1592.503 15684247 16097566 16477002 16783680 16984270 17061146 17015486 
1595.879 16866378 16644567 16383300 16116032 15869791 15666487 15525945 
1599.254 15464789 15496585 15630556 15868897 16208783 16643431 17166164 
1602.629 17770084 18446366 19181602 19952498 20724800 21458580 22107514 
1606.004 22627898 22985206 23155370 23129718 22914640 22530030 22004188 
1609.380 21368738 20659538 19911668 19159888 18438450 17773430 17180088 
1612.755 16661266 16207682 15802024 15423726 15055158 14684229 14308549 
1616.130 13938188 13593303 13299322 13076696 12936306 12876709 12887222 
1619.505 12950677 13047057 13158451 13270113 13376027 13480909 13599697 
1622.881 13750355 13947117 14193641 14483432 14804271 15145418 15501873 
1626.256 15873399 16260996 16662816 17071004 17473158 17857352 18216906 
1629.631 18553656 18875406 19191750 19507908 19822284 20124848 20401052 
1633.006 20635214 20812770 20924260 20966996 20946618 20876908 20776968 
1636.382 20667146 20560862 20463392 20371084 20274316 20159832 20013732 
1639.757 19827140 19598126 19335180 19053662 18772362 18505038 18255848 
1643.132 18018510 17777678 17514448 17210872 16856872 16454529 16021410 
1646.507 15586902 15185665 14847710 14590090 14415642 14315705 14273997 
1649.883 14268930 14272182 14250577 14163687 13973669 13665856 13275134 
1653.258 12886061 12585565 12414819 12357578 12369952 12407250 12439026 
1656.633 12450006 12436470 12402272 12354066 12297241 12233336 12160068 
1660.008 12072709 11966191 11837839 11687502 11518368 11337224 11153777 
1663.384 10978528 10821762 10690285 10586040 10504836 10436713 10368363 
1666.759 10283434 10167347 10010500 9811413 9578169 9326668 9076294 8843443 
1670.616 8637893 8462778 8315226 8188692 8072860 7955406 7822633 7663056 
1674.474 7473705 7263916 7056484 6876317 6742124 6656756 6609621 6582775 
1678.331 6559161 6528854 6491452 6455197 6431186 6427218 6441981 6463370 
1682.188 6471071 6443999 6369213 6253362 6124637 6022525 5976735 5992255 
1686.046 6055686 6146447 6247547 6347964 6442283 6529728 6610731 6686904 
1689.903 6760802 6836799 6920855 7018398 7132769 7261860 7397832 7526968 
1693.761 7634359 7707338 7743361 7754019 7764105 7800570 7876176 7984800 
1697.618 8103613 8203345 8254267 8233635 8137777 7989458 7833868 7714489 
1701.476 7653041 7642216 7658976 7676007 7671016 7629401 7544331 7418526 
1705.333 7263444 7095820 6931292 6780490 6647201 6529056 6420694 6315789 
1709.190 6210102 6101518 5991348 5882684 5779487 5684572 5598473 5519806 
1713.048 5445784 5373418 5300594 5226576 5150759 5071402 4985726 4890750 
1716.905 4786850 4680229 4583746 4512963 4479015 4484740 4523677 4584382 
1720.763 4653736 4720489 4778877 4827891 4871047 4914107 4962298 5017970 
1724.620 5080688 5147708 5215911 5283321 5347789 5407435 5459507 5500007 
1728.478 5525947 5536317 5533766 5522792 5507927 5489168 5460211 5407133 
1732.335 5311361 5157935 4945072 4693860 4444535 4241691 4110316 4049209 
1736.192 4037805 4049477 4061651 4057972 4031751 3984767 3925884 3866808 
1740.050 3817969 3785680 3770807 3771308 3783976 3805802 3834315 3866808 
1743.907 3900708 3933741 3964469 3992491 4018141 4041684 4061985 4076802 
1747.765 4082454 4075363 4052487 4012756 3956745 3887736 3810916 3733308 
1751.622 3662897 3606898 3569580 3551708 3550004 3557086 3563634 3560494 
1755.479 3540918 3504340 3455742 3406081 3366009 3342068 3333487 3333286 
1759.337 3331650 3318429 3287879 3239639 3179055 3115142 3056510 3009397 
1763.194 2975834 2954550 2942440 2936302 2932566 2927028 2915787 2896006 
1767.052 2867388 2833502 2801220 2778076 2768506 2771207 2778343 2778810 
1770.909 2760737 2718123 2654478 2582742 2520783 2481726 2470363 2481659 
1774.767 2506153 2533914 2559011 2580509 2600208 2620742 2643110 2664913 
1778.624 2682415 2692151 2693418 2689217 2685116 2686283 2694484 2707187 
1782.481 2718790 2723791 2718624 2704153 2684616 2666513 2655245 2653245 
1786.339 2660379 2674847 2695018 2720224 2750066 2783279 2816193 2842440 
1790.196 2854314 2844808 2811458 2757936 2694518 2633209 2584409 2552545 
1794.054 2536480 2530948 2531048 2533114 2535581 2538080 2540780 2542246 
1797.911 2540913 2534714 2522749 2506053 2487024 2469163 2454634 2444938 
1801.769 2440239 2439973 2444738 2455034 2471995 2495356 2523083 2551945 
1805.626 2578076 2598242 2611742 2619642 2624675 2629109 2634209 2639377 
1809.483 2642944 2643510 2641043 2636910 2633843 2633776 2637343 2643010 
1813.341 2648677 2652744 2654911 2656678 2661312 2671714 2689283 2713789 
1817.198 2743164 2774875 2807156 2839539 2872591 2907114 2943407 2980838 
1821.056 3018072 3053674 3086543 3115976 3141474 3162767 3179623 3192974 
1824.913 3204790 3218509 3237570 3264243 3297595 3333887 3366377 3388282 
1828.771 3395195 3387948 3373289 3361268 3362570 3383140 3422679 3475782 
1832.628 3534905 3593133 3646391 3694075 3737987 3781101 3825490 3872492 
1836.485 3922440 3976072 4035230 4103025 4182773 4276992 4386058 4508175 
1840.343 4639905 4777168 4916352 5054138 5188079 5316593 5439073 5557090 
1844.200 5673964 5794027 5921041 6055384 6193364 6327757 6448841 6546950 
1848.058 6615172 6650397 6653796 6629067 6580623 6511599 6422745 6314141 
1851.915 6186441 6042818 5888998 5732514 5579610 5433906 5294792 5159511 
1855.772 5024540 4888270 4752043 4619208 4493813 4377925 4271571 4172703 
1859.630 4079009 3989448 3904887 3827128 3757338 3695144 3637971 3582509 
1863.487 3526887 3471540 3419540 3374457 3339196 3312686 3290984 3268182 
1867.345 3239139 3203121 3163969 3128858 3105498 3098056 3105965 3124553 
1871.202 3148015 3172113 3194309 3213936 3230560 3242344 3245915 3237670 
1875.060 3215305 3179689 3134799 3086776 3041228 3000956 2965459 2931565 
1878.917 2895906 2856015 2812892 2769173 2727893 2689984 2654711 2619009 
1882.774 2580443 2538313 2494856 2454134 2419781 2393626 2374203 2357512 
1886.632 2338923 2315205 2286158 2253817 2221977 2193902 2172390 2157938 
1890.489 2150779 2151112 2159603 2176553 2201129 2230303 2260178 2286691 
1894.347 2307477 2323100 2336491 2351249 2369772 2391361 2413384 2431843 
1898.204 2444605 2451535 2455667 2460599 2468730 2479860 2491590 2500054 
1902.062 2502954 2500421 2494989 2490490 2489091 2490623 2491656 2488324 
1905.919 2477560 2459732 2438040 2417615 2402322 2393826 2390861 2390927 
1909.776 2391194 2391094 2392294 2396592 2405521 2417982 2431310 2442305 
1913.634 2449269 2452602 2454134 2455934 2457733 2457133 2449769 2432342 
1917.491 2404188 2369905 2336258 2309409 2291421 2279430 2266373 2244524 
1921.349 2209655 2162467 2109557 2059917 2020900 1996201 1984218 1980057 
1925.206 1979691 1981189 1985982 1996667 2014376 2037179 2059983 2076696 
1929.063 2083754 2081457 2073600 2066009 2062646 2063878 2066308 2065443 
1932.921 2058052 2045035 2030621 2020468 2018470 2024596 2034749 2042805 
1936.778 2044503 2038544 2027492 2015142 2003657 1991940 1975730 1950368 
1940.636 1913991 1869131 1823178 1785880 1764155 1760229 1770276 1788143 
1944.493 1807673 1827337 1848134 1873990 1906370 1944343 1982687 2015341 
1948.351 2038877 2052859 2061714 2070370 2082322 2097504 2111988 2120844 
1952.208 2121077 2113353 2101233 2089214 2079160 2068772 2053325 2026393 
1956.065 1984717 1930165 1868798 1808937 1757002 1715485 1683219 1657442 
1959.923 1636188 1620291 1613007 1616699 1630002 1647164 1659337 1658639 
1963.780 1642009 1611211 1572502 1532333 1494627 1458555 1420823 1378839 
1967.638 1334068 1292957 1264544 1254309 1262384 1281292 1299703 1307347 
1971.495 1300700 1283419 1265142 1254076 1254276 1262849 1273815 1283619 
1975.353 1296081 1322635 1377975 1471720 1602199 1752810 1897983 2014143 
1979.210 2086251 2113419 2105895 2079359 2047366 2016007 1985183 1952132 
1983.067 1914523 1875454 1840514 1816290 1805078 1804612 1808538 1810102 
1986.925 1807041 1801717 1801085 1810967 1832528 1860612 1885737 1897983 
1990.782 1892858 1873191 1848933 1831031 1827038 1837552 1856486 1875853 
1994.640 1888865 1894988 1897451 1902509 1913824 1931197 1950268 1964979 
1998.497 1971237 1968641 1959387 1947272 1933360 1915688 1888898 1847768 
2002.354 1790738 1721240 1647397 1578122 1521792 1481495 1457358 1447351 
2006.212 1449844 1465436 1494195 1534993 1581780 1626078 1657907 1673340 
2010.069 1673440 1666455 1662863 1671145 1692699 1721739 1747687 1761859 
2013.927 1760662 1748519 1734014 1727661 1735145 1754873 1781156 1806741 
2017.784 1828302 1848234 1872159 1906170 1951699 2004523 2056720 2099602 
2021.642 2128603 2144119 2151545 2156440 2162067 2168660 2172457 2171491 
2025.499 2165297 2158171 2155074 2159736 2171624 2185411 2194935 2196500 
2029.356 2192238 2190273 2201595 2235498 2295485 2377668 2472862 2572343 
2033.214 2669880 2764638 2858249 2952982 3047701 3138203 3218075 3282671 
2037.071 3330949 3366510 3394727 3420508 3445522 3467967 3485034 3494253 
2040.929 3497560 3498929 3504641 3519071 3542889 3572721 3603390 3630286 
2044.786 3652038 3670616 3690733 3718169 3757137 3809847 3876370 3955475 
2048.644 4044025 4137511 4228575 4308715 4369524 4406074 4418894 4414810 
2052.501 4405405 4403597 4418158 4451632 4498466 4548788 4592218 4622256 
2056.358 4639269 4648579 4658760 4675506 4700727 4732246 4765879 4797738 
2060.216 4826986 4854695 4882942 4911928 4938872 4959014 4967593 4963706 
2064.073 4950468 4933879 4920943 4915849 4917994 4923288 4925333 4920172 
2067.931 4906935 4889074 4871650 4858951 4852250 4850072 4848832 4845582 
2071.788 4839182 4830605 4821860 4813954 4806147 4796833 4784572 4770971 
2075.646 4760050 4757705 4769597 4797671 4839517 4888337 4936459 4977347 
2079.503 5007981 5029232 5044417 5056753 5068117 5078275 5086522 5092724 
2083.360 5098423 5106201 5118841 5136610 5157498 5177114 5190627 5195590 
2087.218 5192136 5183720 5174532 5167692 5163803 5160919 5155856 5146065 
2091.075 5131279 5113912 5097719 5086254 5081057 5081661 5086622 5093763 
2094.933 5102714 5113275 5125982 5140198 5153978 5164976 5171179 5172922 
2098.790 5172487 5174063 5181574 5197233 5221177 5251493 5286071 5324275 
2102.647 5366708 5415722 5472358 5535847 5602333 5666311 5722811 5768843 
2106.505 5805142 5835431 5864783 5896925 5933839 5975089 6019300 6065363 
2110.362 6113178 6163856 6217833 6273834 6328867 6378124 6417365 6444469 
2114.220 6459939 6467237 6471038 6476015 6484625 6498482 6517552 6542073 
2118.077 6572684 6610429 6655007 6704873 6756662 6805934 6849018 6884093 
2121.935 6912338 6936645 6960785 6987049 7016209 7047022 7077331 7105992 
2125.792 7133038 7159346 7185856 7212874 7238579 7261052 7278404 7291006 
2129.649 7300676 7311492 7327398 7350650 7381857 7419706 7462648 7509472 
2133.507 7560616 7616385 7676884 7739380 7799390 7851783 7892170 7919231 
2137.364 7934990 7943359 7948724 7953145 7956351 7956284 7950344 7938027 
2141.222 7920919 7902056 7884443 7870036 7857147 7843213 7825231 7800942 
2145.079 7769975 7732061 7686496 7630851 7561189 7472997 7365276 7239624 
2148.937 7103264 6964152 6830504 6707127 6594179 6488123 6383874 6276994 
2152.794 6164662 6044800 5915801 5774417 5618612 5448669 5272119 5104189 
2156.651 4967225 4886662 4881736 4959248 5108011 5302137 5509739 5699478 
2160.509 5851115 5955572 6013185 6029513 6012748 5971831 5915163 5852122 
2164.366 5791407 5739531 5699445 5670003 5645465 5619618 5587229 5546821 
2168.224 5499604 5447964 5393311 5333935 5266283 5186805 5094702 4994407 
2172.081 4894570 4806281 4738376 4694229 4671520 4662779 4660267 4657219 
2175.938 4651392 4642349 4630695 4615659 4593524 4561077 4516144 4461039 
2179.796 4401823 4346833 4303562 4275654 4261600 4255711 4251461 4244903 
2183.653 4235535 4225832 4219140 4217233 4219241 4221248 4219274 4210809 
2187.511 4195854 4176584 4156211 4137344 4120652 4106938 4096268 4090414 
2191.368 4091987 4104831 4129885 4166950 4212114 4260261 4306372 4347636 
2195.226 4383381 4414074 4441355 4465390 4485376 4500007 4508175 4510352 
2199.083 4507907 4502216 4494081 4484037 4471014 4456151 4440987 4429673 
2202.940 4426057 4432953 4450159 4473894 4497663 4515775 4524380 4522940 
2206.798 4514570 4503890 4494181 4487418 4483233 4480522 4478748 4478815 
2210.655 4482664 4492072 4507338 4526824 4547583 4567271 4585621 4604876 
2214.513 4628753 4660133 4699420 4743837 4788123 4826685 4856036 4876040 
2218.370 4889409 4899060 4907136 4913470 4916352 4913436 4904321 4891621 
2222.228 4878988 4870410 4867830 4869070 4870276 4866088 4853556 4832883 
2226.085 4807387 4782260 4762294 4750134 4745645 4747153 4753283 4762964 
2229.942 4776934 4795393 4817639 4841595 4863575 4880463 4890314 4894201 
2233.800 4894939 4896044 4900334 4908611 4921144 4937163 4957305 4982910 
2237.657 5016193 5057826 5105966 5156124 5201861 5237911 5261789 5274970 
2241.515 5282214 5290062 5303680 5325180 5353894 5386870 5421358 5455413 
2245.372 5488699 5521953 5555077 5587128 5615792 5638650 5654192 5662651 
2249.229 5665706 5665841 5665069 5664196 5663054 5661241 5659496 5659966 
2253.087 5665337 5678194 5698639 5724356 5751182 5773645 5787445 5790568 
2256.944 5783113 5767265 5745339 5720025 5692831 5665505 5639725 5618007 
2260.802 5602064 5593170 5591357 5594646 5600453 5606998 5614047 5623243 
2264.659 5637442 5659160 5688937 5724893 5762967 5798056 5826062 5844834 
2268.517 5854641 5856891 5853566 5847051 5838084 5828111 5818070 5809507 
2272.374 5803798 5802253 5804839 5810783 5818674 5827372 5836674 5847521 
2276.231 5861089 5878251 5898705 5920705 5942001 5960644 5976130 5989568 
2280.089 6002602 6017620 6035023 6054745 6075006 6093655 6109616 6122722 
2283.946 6133476 6142751 6150950 6157538 6161369 6161570 6157806 6150514 
2287.804 6141003 6130317 6119395 6108104 6096108 6083474 6071075 6060491 
2291.661 6054006 6053536 6059785 6072486 6089824 6110087 6131392 6152530 
2295.519 6172493 6190776 6206304 6218068 6224690 6225934 6222371 6215614 
2299.376 6207413 6199448 6192053 6184995 6176829 6166713 6154379 6140331 
2303.233 6126082 6112674 6100779 6090194 6080517 6071243 6062742 6055652 
2307.091 6051217 6049806 6051150 6053569 6055249 6054712 6051755 6047521 
2310.948 6043826 6042784 6045102 6050579 6057433 6063347 6066942 6067043 
2314.806 6063616 6057164 6047992 6035997 6020912 6002367 5980766 5956982 
2318.663 5933066 5910662 5891517 5876538 5866127 5859846 5856857 5855480 
2322.521 5852928 5845473 5828950 5799769 5755547 5696725 5626667 5550579 
2326.378 5474639 5404483 5343495 5292779 5251225 5216985 5188582 5165579 
2330.235 5148714 5138991 5136878 5141505 5151128 5163567 5177047 5191097 
2334.093 5205818 5222015 5239621 5257865 5275473 5290868 5303277 5313273 
2337.950 5322363 5332258 5344770 5360368 5378852 5399450 5421526 5444945 
2341.808 5469875 5496819 5525477 5555446 5586927 5620961 5660839 5711195 
2345.665 5776499 5860015 5961383 6076552 6197835 6316024 6421770 6506621 
2349.522 6565048 6594079 6593709 6567032 6519402 6457787 6389119 6319521 
2353.380 6253228 6192020 6135694 6083272 6033612 5986813 5944252 5908412 
2357.237 5882147 5867974 5866899 5878117 5899276 5927557 5959199 5991953 
2361.095 6023499 6053032 6080315 6106088 6131963 6160192 6193398 6233900 
2364.952 6283011 6340567 6404284 6471575 6538911 6603935 6665403 6723784 
2368.810 6780826 6837809 6896515 6957789 7021832 7088613 7158638 7231942 
2372.667 7309268 7390822 7476469 7565943 7658504 7753952 7852019 7953010 
2376.524 8057097 8164010 8273381 8384436 8496296 8608252 8720338 8832014 
2380.382 8943719 9054910 9164981 9273217 9378670 9480355 9577864 9670754 
2384.239 9758410 9840459 9916149 9984869 10046341 10100939 10149507 10193058 
2388.097 10232612 10268675 10301348 10330223 10354926 10375693 10392899 
2391.472 10407254 10419608 10430774 10441024 10450663 10459929 10468991 
2394.847 10478325 10488000 10497979 10507992 10517837 10527886 10539462 
2398.222 10554433 10575244 10604171 10641997 10687942 10739733 10794655 
2401.598 10850026 10904726 10959160 11015299 11075423 11141811 11215518 
2404.973 11296787 11384433 11477267 11574103 11673786 11775738 11879382 
2408.348 11984754 12092367 12203176 12318955 12441721 12572707 12712262 
2411.723 12858517 13008338 13157119 13300450 13434668 13557271 13667189 
2415.099 13764309 13849068 13921867 13983285 14034307 14076198 14110834 
2418.474 14139862 14165056 14187239 14206890 14224077 14239381 14253796 
2421.849 14268827 14286359 14307624 14333136 14362348 14394200 14428179 
2425.224 14464488 14504810 14551508 14607806 14676004 14757718 14853127 
2428.600 14961727 15082224 15213288 15353969 15503281 15660338 15824771 
2431.975 15995936 16173530 16357735 16548729 16746730 16951746 17163198 
2435.350 17380688 17603808 17832564 18067178 18307860 18554174 18805542 
2438.725 19060032 19315988 19572200 19828598 20086636 20348270 20615722 
2442.101 20890190 21171508 21458198 21747932 22038732 22329098 22618820 
2445.476 22908110 23196856 23485446 23773106 24059278 24343254 24624856 
2448.851 24904184 25181026 25454984 25725006 25989388 26247280 26498316 
2452.226 26743154 26983300 27220546 27455590 27687974 27915922 28137240 
2455.602 28349262 28550168 28738920 28915218 29078406 29227514 29361004 
2458.977 29476664 29572242 29646270 29697676 29726416 29733370 29719708 
2462.352 29687210 29638112 29575220 29501912 29422126 29339876 29259376 
2465.727 29184988 29120000 29068484 29033626 29019456 29029128 29065900 
2469.103 29132224 29229676 29359018 29520174 29712116 29933178 30180742 
2472.478 30451336 30740628 31044348 31357858 31676978 31998436 32319206 
2475.853 32636750 32947804 33248454 33534498 33801248 34044576 34261688 
2479.228 34450860 34611404 34743544 34847608 34924304 34973936 34997600 
2482.604 34996380 34971960 34926172 34861792 34780876 34686332 34580904 
2485.979 34467752 34350004 34229816 34108328 33984948 33857876 33724140 
2489.354 33580496 33424552 33255182 33072502 32876820 32668792 32448012 
2492.729 32213212 31962380 31693518 31405408 31097806 30771856 30429018 
2496.104 30071182 29699804 29315664 28919218 28511034 28091534 27662018 
2499.480 27224144 26779804 26331482 25881828 25433414 24989882 24554342 
2502.855 24130342 23720788 23327318 22950794 22590898 22246296 21915592 
2506.230 21597470 21291236 20996866 20714826 20445992 20191070 19950834 
2509.605 19725742 19515776 19320770 19140256 18973282 18818760 18675846 
2512.981 18543800 18422478 18311972 18212276 18123172 18044034 17974028 
2516.356 17912286 17858666 17813818 17779022 17756138 17746610 17750754 
2519.731 17768150 17797078 17835396 17881314 17933038 17989810 18050976 
2523.106 18115606 18182734 18251080 18319368 18386596 18452346 18516380 
2526.482 18578138 18636656 18689922 18735378 18770010 18791494 18798310 
2529.857 18790214 18767138 18730328 18680410 18618292 18545322 18462650 
2533.232 18372528 18277758 18181454 18086244 17994610 17907624 17825902 
2536.607 17748960 17676342 17607430 17541702 17478814 17418522 17360652 
2539.983 17305308 17252554 17202910 17157132 17115392 17077826 17043986 
2543.358 17012662 16982546 16952020 16919910 16885324 16848192 16808684 
2546.733 16767530 16725551 16683646 16642949 16604150 16567660 16533652 
2550.108 16502023 16472528 16445100 16419532 16395755 16373733 16352711 
2553.484 16332274 16311392 16288998 16264815 16238913 16212463 16186908 
2556.859 16163385 16142992 16125660 16110770 16096948 16083332 16068581 
2560.234 16052077 16032893 16010134 15982289 15948256 15906770 15857555 
2563.609 15801542 15740588 15677273 15614208 15553796 15497821 15447553 
2566.985 15404124 15368353 15340994 15322699 15312986 15310961 15314805 
2570.360 15322493 15332276 15343123 15355103 15368764 15384899 15403986 
2573.735 15425992 15450197 15475880 15502251 15529172 15556680 15585254 
2577.110 15615169 15646735 15680021 15715303 15752854 15793089 15836386 
2580.486 15882438 15930658 15979916 16029146 16077761 16126074 16175216 
2583.861 16227219 16283631 16345588 16413132 16485399 16560776 16637474 
2587.236 16714325 16790398 16865586 16939858 17013420 17086890 17160372 
2590.611 17234592 17309892 17386448 17464224 17542496 17620128 17695876 
2593.987 17768632 17837846 17903792 17966810 18027490 18086624 18144316 
2597.362 18200492 18255434 18309346 18363402 18418606 18476446 18537748 
2600.737 18603074 18671970 18743854 18818032 18893886 18971204 19050234 
2604.112 19131808 19216476 19305318 19398928 19497892 19602738 19713502 
2607.488 19830122 19952256 20079246 20210578 20345388 20483294 20623470 
2610.863 20765358 20907988 21050564 21191790 21330838 21466586 21598444 
2614.238 21725986 21849316 21968288 22083040 22193672 22300252 22402742 
2617.613 22500926 22594388 22682564 22764924 22841122 22911498 22976680 
2620.989 23037820 23096592 23154078 23211118 23268058 23324276 23379134 
2624.364 23432042 23482646 23530916 23577266 23621800 23664904 23706686 
2627.739 23747034 23786650 23826062 23866318 23908430 23952860 23999746 
2631.114 24048000 24096858 24144772 24190698 24234316 24275168 24313398 
2634.490 24349316 24382820 24414118 24443072 24470238 24495968 24520894 
2637.865 24545786 24571138 24597048 24623768 24651332 24679880 24709902 
2641.240 24741856 24776442 24814224 24855624 24901132 24951208 25006096 
2644.615 25066154 25131168 25200584 25273168 25347734 25422802 25497640 
2647.990 25572420 25647526 25724618 25804640 25888370 25975914 26066502 
2651.366 26159152 26252806 26346798 26440806 26535332 26630828 26728108 
2654.741 26827452 26929430 27034252 27142238 27253566 27368700 27487606 
2658.116 27610252 27735970 27863846 27992852 28121474 28248612 28373490 
2661.491 28495678 28615248 28733008 28850022 28967386 29086022 29206108 
2664.867 29327646 29449924 29572132 29693774 29814736 29935522 30056660 
2668.242 30179144 30303442 30429764 30558222 30688210 30819552 30952358 
2671.617 31086700 31223042 31361810 31502944 31646650 31793006 31941980 
2674.992 32093682 32248076 32404848 32563460 32722916 32882072 33040464 
2678.368 33197664 33354528 33512306 33672684 33837208 34006732 34181704 
2681.743 34361872 34546780 34736040 34929908 35128600 35332812 35543236 
2685.118 35760164 35984220 36215520 36454264 36700632 36954324 37215312 
2688.493 37482956 37756768 38035920 38320032 38609108 38903160 39202564 
2691.869 39507360 39817748 40133372 40453988 40779500 41109888 41445696 
2695.244 41787276 42135256 42489876 42851292 43219236 43593420 43973468 
2698.619 44358876 44748996 45143216 45540628 45940836 46342884 46746636 
2701.994 47151872 47558336 47965696 48372924 48778716 49180808 49576844 
2705.370 49964916 50342880 50709408 51063756 51404892 51732752 52046736 
2708.745 52346596 52632224 52903892 53162096 53407568 53641592 53865280 
2712.120 54080072 54287048 54486840 54679284 54863688 55038768 55202628 
2715.495 55353084 55488224 55606648 55707176 55789188 55852788 55898236 
2718.871 55926424 55938824 55938068 55927216 55909844 55890360 55872836 
2722.246 55860928 55858328 55867936 55892508 55934828 55996980 56080484 
2725.621 56186396 56314480 56464148 56633760 56821868 57026984 57247884 
2728.996 57483608 57733012 57995012 58267972 58550168 58840136 59136180 
2732.372 59436796 59740508 60045464 60349488 60650332 60945632 61233428 
2735.747 61512476 61782008 62041572 62290544 62528336 62754272 62968076 
2739.122 63170208 63362516 63547612 63728912 63909716 64092248 64278432 
2742.497 64469152 64665452 64868884 65081836 65306484 65545896 65801284 
2745.873 66073180 66360028 66659040 66966152 67276880 67586360 67889440 
2749.248 68180904 68455256 68707984 68934904 69133624 69303360 69444544 
2752.623 69558632 69647384 69712120 69753672 69772304 69767944 69739896 
2755.998 69687376 69608992 69502672 69365664 69194936 68987368 68740856 
2759.374 68454336 68128104 67763856 67363896 66931360 66469676 65982336 
2762.749 65473540 64947912 64410344 63866540 63321992 62782184 62252916 
2766.124 61738956 61245104 60775400 60333536 59922056 59543648 59199700 
2769.499 58891360 58619108 58383408 58183672 58019024 57888012 57787888 
2772.875 57715412 57666824 57638220 57625544 57625356 57634096 57648244 
2776.250 57664064 57677232 57682904 57676324 57652596 57608140 57539968 
2779.625 57446616 57327808 57184796 57019916 56836292 56638064 56429924 
2783.000 56216340 56001808 55790432 55584768 55386732 55196800 55013908 
2786.375 54836016 54659812 54481580 54297076 54102364 53894536 53671396 
2789.751 53431960 53176628 52906548 52623620 52330408 52030264 51726632 
2793.126 51423768 51126296 50839052 50566216 50311740 50078312 49868088 
2796.501 49682712 49523292 49391180 49287836 49214648 49172608 49162180 
2799.876 49183144 49234132 49313076 49417616 49544904 49692444 49857572 
2803.252 50038080 50231464 50436168 50649644 50870080 51095624 51324040 
2806.627 51553140 51780344 52002848 52217808 52421884 52611652 52783880 
2810.002 52935144 53061636 53160076 53227148 53260336 53258088 53219848 
2813.377 53146556 53039844 52902504 52737900 52550280 52344240 52125296 
2816.753 51899476 51673780 51455100 51250772 51068040 50913068 50791748 
2820.128 50708700 50667592 50670420 50717524 50807988 50938592 51104864 
2823.503 51301108 51520756 51756564 52001616 52248600 52490784 52722036 
2826.878 52936152 53128092 53293528 53429076 53533184 53605340 53647180 
2830.254 53661276 53651752 53623708 53581576 53530000 53472248 53410488 
2833.629 53345860 53279664 53212880 53147416 53085860 53031460 52987584 
2837.004 52957224 52942892 52946968 52971864 53020864 53098476 53210148 
2840.379 53362644 53563584 53820384 54141096 54534924 55011536 55583716 
2843.755 56266428 57076480 58032580 59151900 60446776 61920500 63562684 
2847.130 65345308 67217272 69107520 70929008 72578024 73955064 74970760 
2850.505 75555464 75673544 75323248 74537712 73374424 71912488 70241248 
2853.880 68445368 66607244 64798324 63072040 61470068 60017196 58723632 
2857.256 57587972 56598844 55739572 54989236 54327604 53735664 53196288 
2860.631 52695512 52221248 51763324 51313416 50865236 50414324 49958300 
2864.006 49497224 49033036 48569716 48113220 47671212 47252124 46865840 
2867.381 46521792 46227696 45989564 45810472 45690160 45625012 45608668 
2870.757 45632852 45687032 45759956 45840444 45917228 45981164 46025776 
2874.132 46047508 46046220 46024708 45987984 45940980 45888904 45835508 
2877.507 45783300 45733452 45686444 45642200 45600424 45560868 45522852 
2880.882 45486096 45450556 45416820 45386216 45360764 45342332 45333252 
2884.258 45334684 45347448 45371688 45407296 45454124 45512328 45581916 
2887.633 45663108 45755908 45859996 45974940 46100564 46236948 46384436 
2891.008 46544144 46717452 46906404 47113240 47340792 47592756 47873092 
2894.383 48186220 48536256 48926736 49358992 49831596 50339680 50874216 
2897.759 51421120 51963972 52483236 52958796 53373920 53716540 53981720 
2901.134 54172476 54299516 54379384 54430308 54472228 54522864 54596724 
2904.509 54706528 54862672 55073744 55348040 55692220 56111664 56610620 
2907.884 57192768 57861060 58619864 59474296 60430744 61495568 62672696 
2911.260 63962088 65357016 66844164 68400840 69995392 71591392 73143960 
2914.635 74605928 75933296 77085416 78032512 78759736 79267240 79569232 
2918.010 79689520 79657752 79499472 79233208 78866560 78395992 77809264 
2921.385 77089336 76221648 75197512 74020136 72704104 71277600 69779152 
2924.760 68250176 66735156 65273912 63896440 62624812 61469568 60431924 
2928.136 59505952 58680544 57942720 57278352 56674792 56121956 55611732 
2931.511 55139804 54704684 54307328 53950396 53637656 53371596 53153968 
2934.886 52983616 52856996 52768240 52708944 52669364 52639628 52609480 
2938.261 52570064 52514864 52439900 52344540 52231408 52105796 51974576 
2941.637 51845188 51724952 51619184 51530944 51460396 51404336 51356488 
2945.012 51307336 51246856 51164356 51051124 50903012 50721028 50512204 
2948.387 50288008 50064072 49856720 49679812 49544648 49457492 49419320 
2951.762 49427228 49474868 49553708 49653548 49764260 49875784 49978824 
2955.138 50066228 50132680 50175448 50193968 50190064 50166744 50127772 
2958.513 50077456 50019900 49958560 49896448 49836276 49779828 49728852 
2961.888 49684344 49647716 49619820 49601432 49593224 49595268 49607116 
2965.263 49627880 49656188 49690400 49728928 49770764 49815172 49861808 
2968.639 49911316 49964288 50021984 50085972 50157892 50239420 50332056 
2972.014 50436280 50551996 50677940 50811488 50949840 51089288 51226276 
2975.389 51357308 51478752 51587132 51678296 51748652 51793784 51810136 
2978.764 51794900 51746452 51665200 51553624 51416420 51260240 51092416 
2982.140 50920748 50752012 50590748 50438920 50295372 50156332 50015700 
2985.515 49866416 49701880 49516088 49305172 49067536 48803892 48516544 
2988.890 48209028 47884596 47545360 47191800 46822472 46434616 46025920 
2992.265 45595272 45144612 44679176 44206904 43736200 43275200 42828692 
2995.641 42397804 41979136 41566696 41153340 40732480 40299632 39853484 
2999.016 39395060 38927988 38456524 37985724 37520124 37063504 36618796 
3002.391 36187684 35771032 35368868 34980972 34606448 34244692 33895236 
3005.766 33557728 33231966 32917600 32614068 32320492 32036108 31760138 
3009.142 31492040 31231800 30979188 30733834 30495162 30261770 30032336 
3012.517 29805190 29579264 29354128 29130026 28908168 28689716 28476574 
3015.892 28270184 28071916 27882642 27702700 27531874 27369018 27212820 
3019.267 27061580 26913776 26768738 26626460 26487716 26353802 26225738 
3022.643 26104362 25989880 25882180 25781328 25688058 25604084 25532146 
3026.018 25475434 25436610 25417112 25416480 25431552 25456530 25484324 
3029.393 25506320 25513838 25499958 25459306 25389044 25289464 25162872 
3032.768 25013608 24846466 24666694 24478756 24286590 24093040 23900588 
3036.144 23711094 23525950 23345672 23170364 22999494 22832392 22668250 
3039.519 22506824 22348214 22193220 22042636 21897576 21758488 21625782 
3042.894 21499382 21379008 21264370 21155018 21050354 20949538 20851738 
3046.269 20756460 20663498 20573544 20488018 20408378 20335698 20270322 
3049.645 20211446 20157262 20105446 20054018 20001450 19947780 19893146 
3053.020 19838134 19783270 19728446 19673388 19617920 19562114 19506936 
3056.395 19453430 19402946 19356312 19314014 19275806 19241794 19211768 
3059.770 19186382 19166330 19152306 19144828 19143614 19148392 19158366 
3063.146 19173258 19193168 19218312 19248928 19284778 19324440 19366118 
3066.521 19407484 19446292 19480462 19508774 19530018 19542946 19546480 
3069.896 19539482 19521494 19492902 19455338 19411400 19364004 19316300 
3073.271 19270056 19226450 19185862 19148360 19114112 19083230 19055948 
3076.646 19031714 19009280 18986782 18961686 18932092 18897070 18856926 
3080.022 18813120 18767794 18722924 18680064 18639666 18601758 18565966 
3083.397 18531870 18499610 18468976 18440178 18413110 18387530 18363852 
3086.772 18342386 18324414 18311212 18304024 18303124 18308206 18317676 
3090.147 18329634 18341834 18353068 18362642 18370902 18378680 18386872 
3093.523 18396102 18406818 18419160 18433298 18449442 18468148 18489928 
3096.898 18514996 18543352 18574472 18607570 18641706 18675914 18709606 
3100.273 18742644 18775234 18807582 18840352 18873674 18907730 18942026 
3103.648 18975878 19008520 19039572 19069034 19097598 19126822 19157950 
3107.024 19192476 19230850 19272794 19317098 19362202 19406688 19449758 
3110.399 19491308 19531960 19572824 19614906 19658792 19704488 19751714 
3113.774 19799604 19847256 19893770 19938276 19980114 20019250 20055718 
3117.149 20089934 20123146 20155908 20188882 20221826 20253658 20282924 
3120.525 20308478 20329484 20346498 20361186 20376048 20393378 20414734 
3123.900 20440366 20469402 20499830 20529876 20558292 20585112 20611102 
3127.275 20637474 20665584 20695850 20728066 20761328 20794556 20827092 
3130.650 20858794 20890432 20922766 20957468 20995372 21037138 21082700 
3134.026 21131572 21182606 21234620 21286468 21337032 21385620 21432124 
3137.401 21476648 21519784 21562438 21605270 21649254 21694636 21741558 
3140.776 21789982 21839420 21889598 21940092 21990524 22040752 22090988 
3144.151 22140950 22190986 22240890 22291112 22341762 22393706 22447224 
3147.527 22503370 22562210 22624442 22689510 22756930 22825440 22893998 
3150.902 22961624 23027514 23091630 23153798 23214544 23273932 23332072 
3154.277 23388750 23444038 23497688 23550330 23602662 23655458 23709730 
3157.652 23766072 23824908 23886270 23949708 24014978 24081936 24150694 
3161.028 24221492 24294510 24369852 24447312 24526330 24606270 24686122 
3164.403 24764902 24842010 24916782 24988934 25058782 25126850 25193912 
3167.778 25260806 25328240 25396348 25465102 25533938 25602222 25669426 
3171.153 25735306 25799718 25862978 25925580 25987736 26049334 26110134 
3174.529 26169604 26227322 26282830 26336270 26388132 26439152 26490286 
3177.904 26542694 26597150 26654222 26713624 26775222 26838134 26901790 
3181.279 26965566 27029316 27093074 27157194 27222064 27288214 27355256 
3184.654 27423190 27491596 27559976 27627872 27695250 27761718 27827492 
3188.030 27892710 27957514 28022538 28088776 28156966 28228352 28303142 
3191.405 28381412 28462138 28544118 28625864 28706354 28785156 28862558 
3194.780 28939334 29016480 29094524 29174002 29254698 29336438 29418972 
3198.155 29502408 29586782 29672238 29758314 29844372 29929346 30012206 
3201.531 30092454 30169946 30245392 30319928 30394760 30470920 30549050 
3204.906 30629076 30710648 30793052 30875510 30957304 31037728 31116706 
3208.281 31194452 31271394 31348352 31426140 31505082 31585000 31665112 
3211.656 31744168 31821564 31896726 31970370 32044060 32119546 32198724 
3215.031 32282018 32369252 32458722 32548386 32636214 32720950 32802306 
3218.407 32881036 32958348 33035852 33114768 33195556 33278648 33363830 
3221.782 33450890 33539328 33628608 33718052 33807116 33894876 33980720 
3225.157 34064176 34144856 34222860 34298296 34371304 34442464 34512200 
3228.532 34581156 34649872 34719104 34789060 34860104 34931952 35004388 
3231.908 35076944 35149332 35221228 35292348 35362540 35431632 35499332 
3235.283 35566072 35632028 35697600 35763440 35829356 35895032 35959744 
3238.658 36022452 36082572 36140328 36196796 36253556 36312556 36374812 
3242.033 36440748 36509220 36578496 36646480 36712028 36774808 36835828 
3245.409 36896928 36959808 37026124 37096528 37170768 37248236 37327916 
3248.784 37408952 37490504 37572076 37653188 37733564 37812792 37890808 
3252.159 37967896 38044420 38120884 38197580 38274580 38351772 38428580 
3255.534 38504604 38579556 38653760 38727436 38801488 38876744 38953900 
3258.910 39033240 39114668 39197992 39282388 39367376 39452240 39536724 
3262.285 39620708 39704532 39788736 39873460 39959040 40045288 40132064 
3265.660 40219256 40307232 40396676 40488940 40585044 40685608 40790420 
3269.035 40898024 41006384 41113128 41216732 41316384 41412964 41508288 
3272.411 41604764 41704876 41809968 41920776 42036948 42157420 42281324 
3275.786 42407524 42535992 42666836 42800904 42939072 43081820 43229444 
3279.161 43381152 43535912 43691900 43847656 44002544 44156280 44310180 
3282.536 44465860 44625048 44789144 44958628 45133144 45311588 45493164 
3285.912 45677280 45863976 46054252 46248816 46448296 46653032 46862592 
3289.287 47076828 47295680 47519372 47748728 47984088 48225576 48472680 
3292.662 48724152 48979068 49236620 49496552 49759952 50027636 50300656 
3296.037 50579540 50864192 51153880 51448200 51746860 52050060 52358444 
3299.413 52672732 52993724 53321468 53656212 53997968 54346868 54703032 
3302.788 55066748 55437360 55814356 56196880 56583860 56974656 57369776 
3306.163 57770064 58177196 58592904 59018840 59456020 59905016 60365860 
3309.538 60838172 61321220 61813636 62314028 62820704 63332112 63847652 
3312.914 64367616 64892852 65425076 65965676 66515400 67074412 67641960 
3316.289 68217032 68798896 69387000 69981136 70581224 71186640 71796456 
3319.664 72409352 73023984 73639568 74256136 74874296 75494512 76117632 
3323.039 76743272 77370760 77999000 78626528 79252288 79875136 80493736 
3326.415 81106976 81713456 82311488 82900200 83478624 84046360 84602480 
3329.790 85145856 85674248 86185416 86677008 87147248 87595416 88021160 
3333.165 88424048 88803160 89156440 89481192 89774968 90036488 90266112 
3336.540 90465528 90637160 90782352 90901208 90991896 91051520 91077264 
3339.916 91067208 91020784 90938584 90821352 90669248 90481984 90258280 
3343.291 89996952 89696912 89358120 88979952 88561920 88103008 87601664 
3346.666 87057512 86471520 85846696 85188096 84501520 83792192 83063968 
3350.041 82318608 81556352 80777104 79980640 79168472 78342656 77505768 
3353.417 76660648 75809192 74953200 74094560 73235408 72378664 71527472 
3356.792 70684816 69852736 69032896 68225792 67432112 66652632 65888344 
3360.167 65140536 64410152 63697800 63003124 62325772 61665168 61021132 
3363.542 60394112 59784540 59192564 58618348 58060832 57519012 56992108 
3366.917 56480108 55983148 55501704 55036320 54586356 54150180 53725728 
3370.293 53310608 52903068 52502192 52107848 51720472 51340228 50967244 
3373.668 50600388 50238160 49879276 49521920 49165072 48807784 48450268 
3377.043 48092712 47735972 47381512 47030524 46684168 46342884 46006068 
3380.418 45671828 45337812 45001036 44659492 44311832 43958216 43599872 
3383.794 43238376 42876088 42514212 42153804 41795776 41440556 41088724 
3387.169 40740852 40397332 40058696 39724392 39393828 39065724 38739244 
3390.544 38413160 38087172 37761176 37435824 37111720 36789992 36471236 
3393.919 36155848 35843460 35533600 35225900 34919888 34615744 34314108 
3397.295 34016120 33723100 33435576 33153712 32876782 32603566 32332986 
3400.670 32063928 31796288 31530234 31266268 31004738 30745678 30488622 
3404.045 30233066 29978868 29726272 29476236 29230172 28988886 28753082 
3407.420 28522358 28295468 28071030 27848052 27625930 27404734 27185694 
3410.796 26969798 26758096 26551006 26348238 26149192 25953156 25759142 
3414.171 25567148 25377276 25189802 25005254 24823732 24644844 24467678 
3417.546 24291146 24113494 23934058 23752562 23569954 23388540 23211326 
3420.921 23041104 22880796 22731266 22592188 22461740 22337156 22215432 
3424.297 22094404 21972574 21849560 21725674 21601334 21476648 21351546 
3427.672 21225818 21098874 20970854 20842144 20713852 20587196 20462872 
3431.047 20341532 20223178 20107424 19993990 19882774 19774114 19668776 
3434.422 19567348 19470272 19377446 19287826 19199956 19111794 19021536 
3437.798 18927802 18830006 18728148 18623098 18516172 18408340 18301188 
3441.173 18195518 18092532 17992746 17896436 17803878 17714340 17626996 
3444.548 17540082 17452012 17361204 17267000 17169266 17068970 16967868 
3447.923 16867688 16769836 16675314 16584253 16496103 16409863 16324809 
3451.299 16240221 16155750 16071159 15986413 15901238 15815562 15729010 
3454.674 15641652 15553623 15465442 15377415 15290058 15203406 15117560 
3458.049 15031730 14945952 14859642 14772664 14685086 14597114 14509059 
3461.424 14421567 14334985 14249858 14166117 14084001 14003132 13923270 
3464.800 13844312 13766088 13688458 13611902 13536488 13462351 13389252 
3468.175 13316951 13244560 13171634 13097560 13021995 12944840 12866197 
3471.550 12786339 12705131 12622984 12539931 12456451 12372918 12290049 
3474.925 12208424 12128721 12051553 11977295 11906250 11838282 11773457 
3478.301 11710410 11648190 11584925 11518640 11447874 11372155 11292299 
3481.676 11210282 11129028 11051631 10980397 10916311 10858621 10805491 
3485.051 10754066 10701186 10644848 10583596 10517905 10449101 10379528 
3488.426 10311526 10247539 10188751 10135702 10087408 10042476 9998803 
3491.802 9954592 9908590 9860320 9810125 9759156 9708735 9660556 9615668 
3495.659 9575256 9540063 9510429 9486248 9466944 9450791 9436569 9421772 
3499.516 9404571 9383748 9358830 9330290 9298909 9266278 9234123 9203426 
3503.374 9175370 9150666 9129889 9113309 9100824 9092128 9086173 9081673 
3507.231 9077612 9073045 9068072 9063605 9060797 9060730 9064384 9071692 
3511.089 9082044 9094428 9108504 9123900 9141327 9161258 9184034 9208874 
3514.946 9234461 9258425 9278869 9294203 9304528 9311163 9316004 9321217 
3518.803 9328259 9336858 9345694 9352363 9354022 9348774 9335571 9314819 
3522.661 9288076 9257342 9224578 9190599 9155437 9117573 9075075 9025917 
3526.518 8968851 8903639 8831440 8754281 8674568 8594699 8515893 8438758 
3530.376 8362986 8287734 8212328 8136089 8058481 7979265 7898041 7814705 
3534.233 7728655 7640732 7551411 7462244 7374780 7290635 7210381 7134082 
3538.091 7060930 6989776 6920115 6851508 6784057 6718165 6654435 6592969 
3541.948 6533630 6475779 6418676 6361009 6301333 6238404 6170846 6098191 
3545.805 6020408 5939650 5858973 5781905 5712269 5652346 5602131 5559876 
3549.663 5522021 5484638 5444106 5398142 5346816 5291303 5233752 5176745 
3553.520 5122595 5072207 5026316 4984753 4947016 4912531 4880027 4848329 
3557.378 4815629 4780719 4742496 4700961 4656449 4610200 4563420 4517416 
3561.235 4473090 4431011 4391046 4353326 4317215 4280907 4242327 4197962 
3565.093 4144235 4078407 3999748 3910738 3817234 3727827 3650167 3590260 
3568.950 3549336 3525284 3512190 3503338 3492750 3475582 3449497 3414797 
3572.807 3373422 3328445 3282571 3238004 3195511 3154490 3113841 3072561 
3576.665 3029817 2985909 2942240 2900076 2861485 2827499 2798652 2774675 
3580.522 2755135 2739163 2726259 2716190 2709021 2704487 2701953 2699519 
3584.380 2694385 2682749 2660212 2623342 2570376 2502720 2425112 2345352 
3588.237 2272469 2213851 2174122 2153309 2148182 2152410 2158970 2161734 
3592.094 2155807 2138692 2110622 2073999 2033084 1992074 1955260 1925672 
3595.952 1904473 1891760 1886236 1885537 1886768 1887101 1884372 1877118 
3599.809 1865371 1850496 1834824 1820516 1809836 1803447 1801617 1803248 
3603.667 1807174 1811765 1814893 1814161 1806974 1790438 1762458 1722770 
3607.524 1673939 1620590 1569409 1527445 1498318 1482891 1477538 1476840 
3611.382 1474912 1467298 1452637 1432923 1412213 1395592 1386817 1387149 
3615.239 1394927 1405997 1415005 1416135 1404567 1377476 1335298 1282422 
3619.096 1226297 1174963 1136093 1113670 1107092 1112407 1124499 1138518 
3622.954 1152139 1166026 1182970 1206294 1237229 1272918 1305719 1324762 
3626.811 1317417 1273151 1189416 1074905 949997 840362 768029 741708 756777 
3631.151 799464 854140 907826 951458 981544 998813 1007083 1010869 1013526 
3635.490 1016581 1019471 1020600 1018574 1013027 1005289 997518 991673 
3639.348 988684 988252 988850 988817 987688 986758 989083 998149 1017046 
3643.688 1045875 1082113 1120347 1153269 1173834 1176525 1158983 1121211 
3647.545 1066734 1000308 927118 852646 783199 725479 687213 674403 689436 
3651.885 729793 787846 853376 914367 960357 983670 981378 955908 915397 
3656.224 871802 836943 819083 821340 841524 874126 912442 950495 983470 
3660.564 1008378 1024984 1034715 1040428 1045609 1053514 1066036 1084139 
3664.421 1108089 1137821 1173402 1214369 1259858 1307414 1353412 1394861 
3668.279 1431926 1471920 1530870 1633361 1806675 2069571 2427844 2872958 
3672.136 3388883 3955240 4550730 5152302 5723349 6210909 6551760 6683068 
3675.993 6572684 6231311 5706159 5059167 4350280 3633393 2952281 2344420 
3679.851 1839083 1450011 1175528 998049 892885 834055 801389 783697 776228 
3684.190 777622 785854 796111 800858 791597 761690 708718 636308 553790 
3688.530 473246 405120 355673 325597 311604 309317 315550 328117 345891 
3692.870 368208 394043 421404 448468 473113 493778 509502 520350 526852 
3697.209 530700 532857 534416 534980 533487 527914 516701 499285 476994 
3701.549 453278 433277 421735 422133 435135 459115 490660 525857 561321 
3705.888 594665 624329 650012 671118 687213 697202 699392 692290 674436 
3710.228 645333 606179 559663 511227 467640 435599 420508 424919 447274 
3714.568 483031 526056 569151 605947 632558 647656 652501 650211 644072 
3718.907 636639 628775 619982 609099 595993 581394 567326 556146 549046 
3723.247 545662 543539 539326 529970 514445 494973 476331 465384 468934 
3727.586 490660 530767 584679 645234 703408 750239 779315 787481 776195 
3731.926 750139 716517 680675 645101 608336 566962 519620 468337 419712 
3736.266 383032 366484 373083 400742 443460 495702 552895 613512 677688 
3740.605 744131 808560 861809 890030 877646 813838 699625 555018 416097 
3744.945 323442 299900 343371 432017 537070 633321 701118 731287 723388 
3749.284 685952 631430 573199 521146 479847 451586 437987 441503 463228 
3753.624 502602 554951 613545 670089 718011 752894 773739 781240 778386 
3757.964 767266 749176 725346 697766 670686 650278 642911 651904 676626 
3762.303 711606 748247 777191 792427 792228 780411 764611 753591 753193 
3766.643 763781 780709 796344 803282 796277 774768 743069 708785 680576 
3770.982 664680 664082 677921 702578 732714 764013 792759 817290 837574 
3775.322 854804 870242 883987 894545 899127 894180 877579 850056 815929 
3779.662 782668 757607 745990 748712 761988 779647 794551 801821 799530 
3784.001 789240 774701 760395 749210 742306 738356 735834 733610 731519 
3788.341 730623 731785 735801 742306 750736 760428 771714 785058 801721 
3792.680 821440 842354 860581 871902 872533 861809 842587 822037 808958 
3797.020 810120 827847 857891 891059 914567 915596 885348 822635 737195 
3801.360 647490 577578 546293 559563 610625 683529 759034 818386 848496 
3805.699 843649 808526 756678 707391 678651 679480 708785 757308 813971 
3810.039 868681 915994 955443 989282 1020600 1050193 1074805 1087760 1080983 
3814.378 1048167 989647 914467 840562 788045 771448 793622 845674 910549 
3818.718 967597 999212 993334 947772 871902 786286 715688 678452 681173 
3823.058 717414 773506 833391 884087 917655 932796 933560 927616 923698 
3827.397 927915 941596 961752 983205 1000042 1008145 1005854 995027 980050 
3831.737 966036 957867 958929 970087 990112 1014821 1039564 1057566 1062881 
3836.076 1051156 1021065 975832 922569 871669 832528 810983 807730 819050 
3840.416 838437 858921 875587 885581 888702 886743 882759 880036 881497 
3844.756 889399 905137 929011 960324 997551 1039265 1083773 1130313 1178120 
3849.095 1226430 1273184 1313362 1338854 1337890 1298075 1209484 1072048 
3852.953 900887 728300 590485 513881 504825 550871 631065 724118 814867 
3857.292 893715 956804 1004459 1038966 1063545 1080452 1091879 1098954 
3861.150 1102575 1102276 1097293 1085866 1066169 1038269 1005190 974172 
3865.007 954413 954181 976895 1018939 1069490 1113205 1135229 1124865 
3868.865 1080452 1011234 936980 879671 854173 862573 895242 937179 972312 
3873.204 990644 990112 976829 961420 955177 965272 992636 1032357 1075303 
3877.544 1112175 1134731 1137422 1119550 1085202 1043317 1005223 981976 
3881.401 980847 1002466 1040992 1085135 1122240 1139814 1129914 1092476 
3885.259 1037040 979884 938707 926487 946145 991241 1048565 1104236 1145993 
3889.598 1165561 1161043 1135861 1099120 1060589 1029268 1010902 1006684 
3893.456 1015385 1034184 1060290 1090982 1124267 1157521 1188585 1214767 
3897.313 1234106 1245038 1247464 1242645 1233009 1221346 1209816 1198752 
3901.170 1187157 1172604 1152272 1124632 1090483 1053182 1018242 991507 
3905.028 977426 978024 991341 1013692 1040461 1067066 1091015 1110813 
3908.885 1126758 1139980 1151940 1163667 1176325 1190844 1207889 1227959 
3912.743 1250488 1274048 1296081 1313097 1321571 1319611 1307247 1286709 
3916.600 1262085 1237960 1218090 1204135 1196094 1193137 1194333 1199782 
3920.458 1210448 1226563 1247430 1270492 1291661 1305852 1309507 1301299 
3924.315 1283286 1260290 1238525 1223439 1217591 1221014 1231281 1244473 
3928.172 1257300 1267103 1272719 1274048 1271057 1264477 1255040 1243742 
3932.030 1232145 1222609 1217292 1217525 1223273 1233242 1244772 1254675 
3935.887 1261022 1262882 1261121 1257898 1256070 1258263 1265607 1277604 
3939.745 1292359 1306682 1317085 1320840 1316387 1304256 1287108 1268532 
3943.602 1252913 1243709 1242313 1248294 1259393 1272253 1283552 1290996 
3947.459 1293622 1292459 1289335 1286643 1286144 1288637 1293655 1300235 
3951.317 1307048 1313063 1317949 1321538 1324230 1326524 1328418 1330512 
3955.174 1332838 1335697 1339552 1344537 1350587 1357566 1365012 1372125 
3959.032 1378474 1383227 1386551 1387980 1387382 1385155 1381099 1375947 
3962.889 1370496 1365577 1362120 1360691 1361322 1363716 1366973 1370197 
3966.747 1372657 1373986 1374385 1374219 1373887 1373787 1373920 1374086 
3970.604 1374252 1374319 1374651 1375615 1377908 1382063 1388213 1396357 
3974.461 1405997 1416601 1427272 1437245 1446320 1453933 1459652 1463608 
3978.319 1465636 1465403 1463275 1459220 1453801 1447717 1441666 1436480 
3982.176 1432624 1430363 1429300 1429333 1429798 1430496 1431560 1433056 
3986.034 1435350 1438408 1442165 1445855 1448647 1449678 1448681 1445888 
3989.891 1441965 1437843 1434220 1431294 1428668 1425809 1422418 1418396 
3993.749 1414374 1411880 1412013 1416002 1423947 1435383 1448747 1462411 
3997.606 1474579 1484154 1490671 1494295 1495858 1496057 1495924 
##END=
