
##TITLE=mdmaHCL00446_5
##JCAMP-DX=5.01  $$ Nicolet v. 1
##DATATYPE=INFRARED SPECTRUM
##ORIGIN=UniL
##OWNER=Nicolet
##LONGDATE=2011/08/23
##TIME=09:10:26
##SPECTROMETER/DATA SYSTEM=Nicolet iS5
##DATA PROCESSING=
Ratio against background
%Transmittance->Absorbance
Truncated
ElementMultiply or ElementDivide
##COMMENTS=
Number of sample scans: 32
Collection length: 51.21 sec
Sample gain: 2.0
Background collected on: Mar Aout 23 09:05:39 2011 (GMT+02:00);
Number of background scans: 32
Background gain: 2.0
Sample spacing:  1.000
Number of scan points: 12415
Resolution points: 8192
Number of FFT points: 65536
Apodization: N-B fort;
Phase correction: Mertz;
Laser frequency: 15798.0 cm-1
Number of rejected sample scans: 0
Number of rejected background scans: 0
Bench serial number: ASB1000141;
##RESOLUTION=4.000
##XUNITS=1/CM
##YUNITS=ABSORBANCE
##FIRSTX=649.893372
##LASTX=4000.122314
##FIRSTY=0.116808
##MAXX=4000.122314
##MINX=649.893372
##MAXY=0.272203
##MINY=-0.001694
##XFACTOR=1.000000
##YFACTOR=1.000000E-009
##NPOINTS=6950
##DELTAX=0.482117
##ZPD=6100
##XYDATA=(X++(Y..Y))
649.893 116807936 116000216 115204480 114516600 114013760 113730896 
652.786 113657848 113746144 113933336 114162896 114404944 114654080 
655.679 114926192 115245304 115634440 116109544 116676960 117332112 
658.571 118061528 118845176 119657608 120475448 121282832 122072664 
661.464 122845616 123605528 124352440 125080440 125780760 126444040 
664.357 127065392 127643984 128174928 128644304 129023832 129275248 
667.250 129372760 129327864 129204304 129086536 129040736 129080344 
670.142 129166424 129228712 129192528 129007432 128657536 128170568 
673.035 127600384 127008032 126431944 125875976 125316936 124725456 
675.928 124086264 123411296 122734040 122092152 121508672 120979560 
678.820 120476320 119958072 119393368 118769344 118094184 117388208 
681.713 116670464 115950096 115224784 114488736 113740200 112988776 
684.606 112253032 111551896 110896208 110283784 109701056 109130872 
687.498 108559608 107982928 107406376 106840592 106294336 105774384 
690.391 105285192 104832320 104425688 104078968 103803424 103605856 
693.284 103483816 103428816 103431840 103490168 103608928 103800728 
696.177 104076864 104439216 104877168 105370832 105900624 106457736 
699.069 107050832 107702904 108442456 109286560 110230608 111245888 
701.962 112289288 113317400 114299744 115228328 116111192 116960976 
704.855 117782008 118562760 119279672 119911168 120447328 120899368 
707.747 121293120 121657992 122011752 122353296 122666000 122931128 
710.640 123143760 123321360 123500008 123720584 124012240 124377104 
713.533 124789080 125201896 125570552 125863152 126070616 126202632 
716.425 126277552 126311768 126312656 126283584 126230944 126171840 
719.318 126136392 126161160 126273576 126482920 126771200 127096744 
722.211 127401608 127629904 127739760 127708808 127537664 127244968 
725.104 126863224 126430200 125985712 125567632 125205216 124919344 
727.996 124719840 124606680 124572168 124602712 124683856 124798976 
730.889 124931928 125068992 125198584 125315128 125421168 125527680 
733.782 125650512 125804528 125998720 126230760 126490192 126761616 
736.674 127034184 127305504 127581808 127871440 128177552 128491240 
739.567 128793152 129060136 129276368 129441944 129575568 129705848 
742.460 129856256 130036368 130235064 130428656 130592216 130715576 
745.352 130808888 130899128 131014664 131170552 131359904 131557096 
748.245 131731080 131860880 131948608 132016632 132098096 132215288 
751.138 132370040 132540256 132694232 132804112 132864136 132892968 
754.031 132925464 132994400 133113552 133271144 133435864 133574112 
756.923 133663984 133706792 133723440 133741960 133781640 133843688 
759.816 133911728 133963328 133982152 133967800 133935320 133906456 
762.709 133898344 133912456 133935736 133946952 133930176 133882776 
765.601 133819280 133763104 133739712 133763464 133833320 133933888 
768.494 134043544 134142800 134221200 134282528 134344336 134436704 
771.387 134595696 134855728 135241488 135754048 136362128 136994480 
774.279 137554352 137924816 137994960 137691280 136984256 135895968 
777.172 134481680 132812976 130949616 128924224 126741040 124382352 
780.065 121823760 119045344 116045392 112844176 109486168 106032656 
782.958 102557656 99142016 95855648 92754984 89875688 87229832 84813256 
786.332 82612680 80614032 78807680 77189336 75757208 74507064 73429752 
789.707 72510552 71732784 71081920 70550712 70138704 69850360 69689472 
793.082 69655248 69738264 69920968 70177536 70478448 70788584 71065496 
796.457 71261672 71320824 71183048 70798328 70132048 69178384 67962200 
799.832 66537836 64978080 63356416 61744112 60197488 58754852 57441892 
803.206 56269896 55239996 54343936 53567708 52893596 52303836 51784788 
806.581 51328668 50932780 50596292 50315352 50079280 49870020 49663096 
809.956 49432576 49158064 48827028 48436376 47990308 47497008 46965656 
813.331 46404088 45821004 45226196 44630960 44048048 43488812 42961164 
816.706 42468792 42011796 41588976 41199460 40844840 40527716 40249828 
820.081 40010880 39807072 39632072 39480436 39349856 39242888 39165936 
823.455 39127176 39132688 39184180 39278508 39408336 39565392 39739640 
826.830 39920352 40094452 40243648 40345404 40376460 40316208 40154776 
830.205 39895648 39557700 39168112 38759096 38360528 37992776 37668224 
833.580 37391184 37160444 36972000 36819492 36694324 36584872 36476856 
836.955 36356400 36212640 36042320 35850012 35648792 35454784 35282856 
840.329 35142612 35036644 34960576 34906604 34867464 34838564 34819108 
843.704 34811100 34817132 34838816 34875868 34926460 34988624 35061496 
847.079 35145416 35241892 35352080 35475924 35611568 35755524 35903812 
850.454 36053268 36202304 36352004 36505256 36666636 36840988 37032580 
853.829 37244228 37477428 37732588 38009992 38310696 38636776 38991524 
857.204 39378808 39801768 40262552 40762836 41303304 41887172 42520056 
860.578 43210340 43967748 44800896 45712800 46699184 47747320 48837816 
863.953 49945808 51047396 52121072 53149892 54124020 55040984 55907956 
867.328 56743472 57580824 58468732 59463356 60628656 62024600 63696228 
870.703 65671720 67954872 70525528 73333944 76301104 79320976 82246296 
874.078 84904616 87111328 88676104 89449104 89340704 88338072 86508152 
877.452 83984848 80950656 77592392 74094832 70622160 67297112 64215236 
880.827 61440292 59004644 56919916 55177308 53754416 52618156 51731184 
884.202 51059208 50570680 50241096 50052992 49992352 50048084 50210780 
887.577 50472676 50829812 51281684 51832536 52489180 53258872 54147516 
890.952 55158464 56293208 57553472 58943728 60473660 62158892 64017868 
894.327 66069708 68326536 70785072 73415544 76153096 78895408 81491392 
897.701 83760728 85514568 86567112 86783864 86098800 84528328 82168656 
901.076 79184016 75788408 72197896 68623840 65246992 62191048 59534872 
904.451 57309052 55506484 54095948 53034680 52280924 51795500 51548440 
907.826 51518740 51691212 52056596 52610492 53351444 54280480 55397460 
911.201 56696388 58159240 59748568 61400832 63033500 64545148 65827040 
914.575 66788240 67359136 67507472 67241288 66606784 65681048 64555600 
917.950 63335412 62120392 60992532 60017080 59229968 58639168 58227772 
921.325 57960292 57793608 57683624 57598416 57522716 57459476 57427180 
924.700 57455848 57581468 57836528 58248460 58834028 59595028 60515788 
928.075 61558596 62667072 63760460 64742208 65514304 65978788 66058940 
931.450 65711536 64930632 63753820 62254944 60541880 58732964 56943756 
934.824 55280144 53817756 52604584 51662432 50991500 50577828 50400516 
938.199 50438140 50667776 51064616 51600304 52236416 52924552 53611448 
941.574 54238244 54752608 55117120 55312320 55342432 55232432 55025376 
944.949 54771736 54520500 54314948 54183212 54139372 54185428 54315208 
948.324 54518660 54785456 55106620 55473576 55875928 56302184 56737392 
951.698 57166348 57577420 57963356 58324324 58665944 58998188 59331072 
955.073 59672268 60027236 60399024 60790112 61203936 61644664 62115960 
958.448 62619648 63154808 63717096 64301060 64902580 65519808 66154084 
961.823 66808416 67485136 68184424 68903720 69638680 70385400 71142880 
965.198 71913312 72701160 73511768 74348928 75214144 76107448 77029032 
968.573 77980328 78965744 79990920 81061216 82180472 83350664 84572168 
971.947 85846256 87176648 88569440 90032696 91574096 93198872 94909888 
975.322 96707776 98593544 100569888 102642048 104816336 107099160 109495552 
978.697 112009128 114645064 117411304 120320160 123388536 126633200 
981.590 130067032 133695040 137511968 141501328 145633392 149866992 
984.482 154138800 158355680 162398688 166108048 169297808 171787744 
987.375 173409216 174045488 173651760 172260768 169982256 166982832 
990.268 163484720 159727568 155944816 152361824 149156016 146454016 
993.160 144333296 142818112 141894320 141522064 141652384 142235376 
996.053 143225856 144588416 146290608 148301376 150591616 153129632 
998.946 155882592 158816960 161888400 165037680 168187360 171229744 
1001.839 174039152 176486928 178447728 179829888 180586256 180720912 
1004.731 180288608 179389648 178165712 176774304 175385504 174168672 
1007.624 173263456 172783328 172804144 173361648 174461104 176086608 
1010.517 178213008 180811744 183856944 187327376 191200368 195451600 
1013.409 200055472 204979744 210186512 215626704 221220432 226850368 
1016.302 232347456 237475360 241968048 245545488 247956096 249042304 
1019.195 248763248 247222848 244646448 241377424 237830304 234410256 
1022.087 231514576 229465344 228470720 228639616 229966112 232354848 
1024.980 235633392 239590608 244005760 248644032 253290352 257745856 
1027.873 261818176 265345984 268200848 270299936 271621568 272202688 
1030.766 272131328 271517888 270484768 269146752 267592992 265893520 
1033.659 264090336 262193744 260179280 257985808 255527136 252697264 
1036.552 249400192 245573216 241196656 236301952 230960208 225271840 
1039.446 219342592 213275872 207172608 201119872 195199328 189486752 
1042.339 184042592 178918112 174154672 169782640 165832064 162335072 
1045.232 159323552 156831568 154887616 153507328 152692400 152428640 
1048.125 152691024 153444240 154651056 156273792 158270192 160596528 
1051.018 163204448 166037872 169043408 172168944 175365360 178589664 
1053.911 181793472 184913392 187871456 190563648 192868576 194668048 
1056.804 195849952 196329328 196061248 195041808 193314768 190967104 
1059.697 188137040 184997648 181740992 178577568 175697424 173258416 
1062.590 171386560 170157632 169607888 169737680 170516960 171886496 
1065.483 173756240 176015536 178525280 181126640 183666944 185995968 
1068.376 187986128 189544944 190603568 191117312 191060720 190420928 
1071.269 189200112 187417232 185111008 182336528 179160512 175663360 
1074.162 171930768 168057568 164156800 160348464 156763392 153538128 
1077.055 150790096 148619168 147096192 146253664 146088688 146558624 
1079.948 147585504 149045840 150775456 152588928 154271312 155618912 
1082.842 156473216 156734112 156391328 155521248 154281984 152876656 
1085.735 151524432 150447584 149826624 149798416 150447104 151792368 
1088.628 153791360 156335616 159270848 162393712 165473040 168291760 
1091.521 170643504 172363984 173346768 173533344 172919088 171542816 
1094.414 169484336 166850608 163760528 160341568 156705920 152943392 
1097.307 149124160 145295232 141489120 137733728 134053336 130472272 
1100.200 127014128 123697584 120539200 117554488 114759968 112178248 
1103.093 109838352 107770800 106008880 104581592 103509840 102809152 
1105.986 102488216 102551328 102999680 103830480 105035976 106599456 
1108.879 108494312 110684056 113118344 115740312 118482968 121265616 
1111.772 124000424 126585040 128904376 130848792 132314400 133220432 
1114.665 133522288 133209544 132307576 130865096 128952888 126651736 
1117.558 124043976 121216768 118249984 115209704 112150368 109106720 
1120.451 106097752 103134272 100223392 97376544 94613240 91958832 89444104 
1123.827 87101568 84959856 83045512 81382272 79990448 78889848 78097992 
1127.202 77627336 77484888 77668896 78168560 78962360 80019288 81300120 
1130.577 82752328 84313592 85911824 87462224 88881384 90095896 91051440 
1133.952 91728560 92145432 92359328 92450576 92516088 92653168 92936952 
1137.328 93417808 94109584 94988480 95993576 97033296 98003528 98787920 
1140.703 99280048 99397624 99080408 98299640 97053008 95360240 93257232 
1144.078 90792928 88030576 85039608 81895904 78679944 75464120 72315024 
1147.453 69290224 66432304 63775428 61343352 59150152 57202484 55499896 
1150.829 54036432 52801504 51781876 50964560 50336112 49884816 49600804 
1154.204 49474908 49498744 49664324 49963652 50390024 50937996 51603960 
1157.579 52386068 53283524 54295648 55420872 56656296 57997440 59438124 
1160.954 60969540 62578164 64245240 65942460 67631576 69268032 70798136 
1164.330 72166752 73321904 74213328 74798792 75045304 74928712 74438704 
1167.705 73579704 72372408 70850752 69058920 67048348 64868108 62566220 
1171.080 60187744 57771008 55352292 52964224 50633488 48383520 46232964 
1174.455 44194612 42278764 40492032 38838444 37319936 35935844 34683208 
1177.831 33556872 32549996 31655562 30866686 30177760 29585186 29086590 
1181.206 28680230 28364400 28135756 27990556 27923556 27930340 28007376 
1184.581 28152866 28366274 28647454 28995262 29406562 29875570 30393552 
1187.956 30949584 31532124 32127932 32724272 33309590 33873384 34408892 
1191.332 34914216 35392844 35854076 36312164 36784760 37289500 37843664 
1194.707 38461452 39152956 39923584 40773136 41695648 42676852 43693880 
1198.082 44716820 45704368 46608432 47377748 47956080 48290600 48338296 
1201.457 48067656 47468140 46552144 45356900 43937100 42360468 40701620 
1204.833 39027264 37395912 35853824 34430232 33142730 31997688 30993634 
1208.208 30124274 29380822 28753682 28233584 27811984 27482100 27238574 
1211.583 27077204 26995182 26989824 27058196 27196416 27399404 27661560 
1214.958 27976420 28336422 28733680 29158198 29597884 30039792 30469426 
1218.333 30872628 31237818 31555388 31818070 32021516 32162576 32239690 
1221.709 32253250 32206286 32105524 31961132 31788088 31603814 31427100 
1225.084 31277486 31171668 31122722 31139060 31223256 31372212 31576660 
1228.459 31823632 32096394 32375894 32644608 32886110 33086698 33237796 
1231.834 33334706 33378180 33374670 33336780 33282832 33234756 33218302 
1235.210 33259402 33381470 33606344 33951232 34428868 35049032 35817480 
1238.585 36736404 37802996 39009248 40340280 41772468 43277360 44818788 
1241.960 46355012 47843644 49239108 50496796 51579744 52458292 53117012 
1245.335 53556276 53792364 53854736 53780140 53612464 53395240 53168200 
1248.711 52968456 52823468 52749792 52751404 52818152 52927132 53045048 
1252.086 53137720 53173816 53132100 53005816 52802440 52542204 52251328 
1255.461 51960460 51698300 51485912 51336272 51249804 51213600 51199736 
1258.836 51168420 51072740 50860804 50487900 49921652 49145556 48162932 
1262.212 46994416 45676540 44253456 42774796 41291168 39845132 38472744 
1265.587 37200256 36042320 35005464 34088836 33286840 32590960 31991660 
1268.962 31479858 31046554 30683444 30383104 30137768 29940030 29782940 
1272.337 29659964 29565644 29495528 29445812 29412732 29392698 29381636 
1275.713 29375964 29372206 29367598 29360224 29348312 29329986 29303222 
1279.088 29265012 29212240 29142004 29051374 28938132 28800842 28638216 
1282.463 28449864 28236520 28001158 27749040 27488418 27230530 26988166 
1285.838 26775538 26607296 26496450 26455456 26495322 26624768 26851456 
1289.214 27181390 27618762 28166016 28822652 29585258 30444798 31384964 
1292.589 32381784 33399076 34391604 35309956 36101476 36722340 37144204 
1295.964 37357200 37372548 37219100 36940328 36582784 36193732 35816076 
1299.339 35481320 35212820 35024252 34919100 34893856 34938488 35038868 
1302.715 35177752 35337484 35502532 35658756 35795136 35903740 35979324 
1306.090 36019928 36026952 36005600 35964028 35912236 35861416 35821476 
1309.465 35800212 35803880 35836768 35901976 36002720 36141984 36322104 
1312.840 36544900 36810580 37118144 37465584 37851292 38273852 38733016 
1316.216 39229108 39762480 40333952 40944080 41594444 42286544 43021856 
1319.591 43800080 44617744 45466636 46331456 47191580 48019724 48782168 
1322.966 49445052 49973432 50339088 50527280 50541984 50411124 50182028 
1326.341 49921352 49701544 49585500 49622756 49836652 50223988 50757520 
1329.717 51395796 52092868 52804088 53496268 54149544 54756964 55324592 
1333.092 55868392 56412300 56981836 57601444 58289424 59053192 59887784 
1336.467 60774824 61687052 62588184 63437664 64195952 64822868 65283648 
1339.842 65553180 65617188 65476120 65142616 64638764 63990144 63221640 
1343.218 62356752 61414228 60410184 59358764 58270360 57153008 56012024 
1346.593 54850264 53671924 52484280 51299652 50137924 49025952 47993304 
1349.968 47073580 46299424 45699068 45297904 45115312 45164060 45451772 
1353.343 45979656 46741320 47720624 48890060 50207804 51613924 53039172 
1356.719 54404432 55626572 56633192 57361720 57768168 57833576 57564636 
1360.094 56996304 56184588 55210116 54167296 53150676 52254128 51550640 
1363.469 51082020 50856668 50849220 51010280 51271652 51561424 51810136 
1366.844 51954560 51951124 51778736 51442268 50968696 50400408 49785996 
1370.219 49166596 48575756 48036420 47562808 47165984 46856796 46646540 
1373.595 46547388 46567524 46707632 46959084 47304956 47724208 48194256 
1376.970 48695684 49213572 49735688 50254412 50765940 51270160 51769820 
1380.345 52268480 52767080 53260376 53733904 54162640 54516028 54757380 
1383.720 54849928 54762792 54469976 53957824 53230408 52319720 51288316 
1387.096 50220936 49215172 48351368 47676908 47204024 46913896 46770508 
1390.471 46728848 46746308 46781620 46794164 46746232 46600284 46324488 
1393.846 45901204 45333032 44645172 43875584 43064000 42237204 41404908 
1397.221 40565584 39717200 38867396 38041236 37276972 36613784 36081924 
1400.597 35691452 35434940 35294212 35250444 35289400 35403736 35592576 
1403.972 35857240 36198560 36614180 37098260 37643324 38241432 38885584 
1407.347 39569132 40285708 41028232 41788772 42560296 43336484 44113660 
1410.722 44890356 45665720 46438116 47203472 47954488 48682600 49380636 
1414.098 50044588 50675856 51279668 51862592 52429992 52983204 53520704 
1417.473 54041308 54547772 55051444 55567560 56112908 56693636 57300884 
1420.848 57912924 58501752 59041120 59508420 59891324 60188276 60408812 
1424.223 60570640 60694572 60799104 60894432 60982504 61058464 61114564 
1427.599 61142752 61137260 61096260 61022200 60921844 60804860 60683368 
1430.974 60571020 60480672 60423740 60407288 60431964 60491144 60571820 
1434.349 60657652 60731688 60784508 60820372 60862528 60945864 61104232 
1437.724 61354688 61688696 62075516 62469220 62820824 63080548 63205048 
1441.100 63166188 62949724 62556080 61994864 61280508 60428384 59452828 
1444.475 58369880 57195376 55943912 54631068 53274232 51897724 50541348 
1447.850 49256920 48101708 47127204 46364452 45823652 45500040 45383056 
1451.225 45462548 45729660 46172048 46765936 47471616 48238204 48997796 
1454.601 49672160 50180880 50443648 50410156 50087608 49559576 48954292 
1457.976 48386740 47922628 47571644 47314892 47128788 46998880 46919840 
1461.351 46889312 46900720 46938040 46975436 46986180 46949632 46863548 
1464.726 46746008 46630788 46551148 46525480 46553252 46617360 46692508 
1468.102 46748480 46754460 46677380 46474068 46092348 45472704 44559840 
1471.477 43328940 41809748 40098340 38326800 36619876 35053132 33643360 
1474.852 32370038 31204564 30132582 29159898 28306290 27588998 27013588 
1478.227 26568582 26232286 25981192 25799366 25682152 25633502 25660954 
1481.603 25769374 25958116 26222184 26555374 26953296 27414614 27938538 
1484.978 28521048 29152386 29814168 30478740 31113360 31678974 32131322 
1488.353 32425802 32517068 32369576 31969872 31335670 30517448 29582244 
1491.728 28599676 27619504 26663910 25734146 24816260 23893658 22959528 
1495.104 22022662 21109378 20258622 19507874 18881358 18385212 18012466 
1498.479 17749924 17585936 17512586 17523074 17609502 17761074 17963876 
1501.854 18202704 18463894 18731918 18989376 19214086 19372388 19420894 
1505.229 19311172 19004228 18495046 17828110 17085546 16346037 15654499 
1508.604 15016912 14417663 13837471 13265979 12704073 12163203 11659558 
1511.980 11206032 10810247 10471435 10183697 9938116 9726252 9540640 9374268 
1515.837 9222277 9082587 8957621 8853588 8778083 8735315 8723246 8731799 
1519.695 8744375 8744646 8722265 8681395 8640395 8623596 8648202 8715775 
1523.552 8814837 8927484 9038840 9140447 9234021 9328902 9437179 9566924 
1527.409 9719001 9888827 10070588 10261619 10463628 10681795 10920763 
1530.785 11181382 11459509 11747175 12035679 12320421 12604428 12897905 
1534.160 13210948 13549580 13910851 14285023 14658147 15015609 15345697 
1537.535 15636876 15880272 16069029 16200218 16274894 16299352 16286727 
1540.910 16252741 16211810 16172465 16136218 16096089 16040938 15961010 
1544.286 15852606 15721865 15582507 15451673 15341613 15254332 15182029 
1547.661 15111624 15031318 14935938 14830533 14728410 14646427 14596018 
1551.036 14578782 14587485 14611232 14641595 14676483 14721006 14784902 
1554.411 14877438 15000826 15149124 15307906 15458884 15580205 15648762 
1557.787 15647801 15575740 15458541 15344702 15286146 15310206 15413702 
1561.162 15576565 15774019 15985278 16193477 16389113 16569382 16737638 
1564.537 16902480 17073656 17258140 17456324 17662262 17865052 18053844 
1567.912 18219634 18358666 18474198 18575614 18675878 18785682 18911466 
1571.288 19054216 19210278 19373220 19534142 19682472 19804250 19884162 
1574.663 19909170 19874068 19788194 19675920 19570606 19497198 19463724 
1578.038 19461020 19469960 19469926 19444352 19384722 19290668 19168062 
1581.413 19025034 18869246 18704278 18529968 18344530 18146008 17934040 
1584.789 17709024 17470914 17218044 16947542 16657788 16350579 16033683 
1588.164 15720043 15424860 15163088 14944477 14773590 14649889 14570285 
1591.539 14529443 14520125 14532664 14551988 14558806 14533007 14456027 
1594.914 14316253 14112615 13853959 13556075 13236634 12911661 12592558 
1598.290 12286164 11997731 11731584 11492271 11283695 11107171 10960790 
1601.665 10840209 10741057 10660367 10598264 10557250 10539394 10544961 
1605.040 10570423 10609366 10653576 10695752 10729917 10751145 10754880 
1608.415 10735216 10685496 10600131 10476356 10318449 10136821 9948321 
1611.791 9769830 9614787 9489398 9391671 9313161 9242144 9167620 9081503 
1615.648 8981704 8873371 8767907 8679368 8619270 8594226 8603959 8643639 
1619.505 8704348 8775141 8844864 8902321 8939897 8955963 8956166 8951194 
1623.363 8953663 8973112 9012555 9068681 9135270 9205963 9276466 9344441 
1627.220 9409413 9471448 9530817 9588568 9647478 9711852 9787080 9877607 
1631.078 9985444 10108367 10239804 10369822 10486642 10577994 10634594 
1634.453 10652285 10635681 10598331 10560170 10540921 10552023 10595411 
1637.828 10665155 10751858 10844183 10932214 11009351 11072874 11125289 
1641.203 11172747 11222896 11281110 11348516 11420489 11488120 11540586 
1644.579 11567127 11561071 11522280 11459032 11386679 11323858 11288388 
1647.954 11290768 11334674 11416646 11528268 11655951 11780334 11876828 
1651.329 11912960 11857009 11693868 11448555 11189338 10989301 10888077 
1654.704 10876696 10921408 10985189 11041333 11076340 11086368 11075526 
1658.080 11050985 11019140 10982505 10939009 10883151 10809024 10711883 
1661.455 10590726 10448185 10291304 10130038 9975137 9836561 9720459 9628744 
1665.312 9557948 9500133 9443478 9373693 9276771 9143053 8970136 8765201 
1669.170 8544582 8328737 8135110 7974068 7846891 7748150 7667980 7593760 
1673.027 7512168 7409931 7275910 7106497 6909342 6703998 6513550 6356773 
1676.885 6239480 6154984 6089018 6026758 5958562 5882886 5806249 5738793 
1680.742 5688601 5655098 5627171 5583034 5497960 5352753 5147205 4907572 
1684.599 4678252 4499102 4384686 4325950 4301085 4289340 4274348 4247613 
1688.457 4206962 4153936 4092388 4026535 3961861 3903784 3857448 3826159 
1692.314 3809011 3799685 3785747 3751856 3684283 3577866 3442851 3305908 
1696.172 3198982 3141541 3132663 3152221 3171612 3159263 3091181 2960521 
1700.029 2786480 2610075 2472129 2394293 2371671 2384431 2409352 2428311 
1703.886 2429677 2408753 2367406 2312107 2252051 2195168 2146017 2105828 
1707.744 2073400 2046267 2021766 1998698 1976762 1957291 1942080 1932828 
1711.601 1929899 1932528 1938120 1943279 1945275 1942380 1933959 1919682 
1715.459 1898283 1867001 1822147 1761859 1688774 1611710 1543306 1494361 
1719.316 1470058 1468296 1481661 1500180 1514843 1519731 1513014 1496922 
1723.174 1476075 1455795 1439804 1429133 1422950 1419792 1418063 1416634 
1727.031 1414506 1410085 1401675 1388346 1370895 1352647 1338256 1331376 
1730.888 1332672 1337458 1335165 1311435 1254076 1158817 1036940 913073 
1734.746 816228 763947 756611 781406 820477 858124 882161 886411 871039 
1739.085 841425 805838 772510 747052 730922 723321 721994 724616 729528 
1743.425 735303 740912 746189 751433 757873 767133 780610 798269 818618 
1747.765 838536 853941 860946 857061 841757 817091 787315 757673 734573 
1752.104 722292 723188 736132 757740 781705 800560 807431 797804 771083 
1756.444 732415 690930 656417 635146 628045 630733 635744 635379 624097 
1760.783 600936 569483 536340 508673 492120 488239 496100 512222 532658 
1765.123 553293 570279 580166 581261 574128 561919 550440 545098 548582 
1769.463 559065 570047 572535 557904 522440 469696 411122 361377 331301 
1773.802 324569 337402 361377 388338 413212 434372 453079 471056 488438 
1778.142 502702 510298 507545 493447 471056 446412 426379 414903 412316 
1782.481 414870 417192 414605 405285 390660 374576 361709 354844 354977 
1786.821 361311 372520 387443 405120 424157 441802 453908 455467 442399 
1791.161 413212 371657 325697 284151 254709 240520 239293 246454 256897 
1795.500 266545 273707 277718 278647 276326 270192 259649 244863 227060 
1799.840 208396 191225 177336 166596 158078 150388 142831 136102 131760 
1804.179 131131 134876 142068 150222 156851 160100 159337 155161 148896 
1808.519 141704 133617 124204 113465 101302 89537 79959 74027 72470 73862 
1813.341 75784 76181 74127 70282 66969 66869 72006 82445 96530 111742 125795 
1818.645 137329 147073 156354 166828 178629 191258 202661 210319 212043 
1822.984 206838 194871 178198 160166 145051 136699 137362 146808 161923 
1827.324 177701 187910 186916 172364 145714 112769 82080 61832 56033 64649 
1832.146 82942 104848 125032 140179 150156 156553 162088 168618 176706 
1836.485 185590 194275 202131 209921 219237 231834 249405 271717 297745 
1840.825 325133 351064 372619 387078 392716 389764 380711 370596 365854 
1845.165 371923 391356 422996 462665 504195 541515 571308 592807 608137 
1849.504 620778 633686 647225 659470 666837 665576 654724 635744 612284 
1853.844 587897 565402 544534 523468 499418 471056 439049 406313 376002 
1858.183 350301 329775 312533 296352 280006 263097 247449 235249 227193 
1862.523 222784 220132 216684 211546 204684 197623 191656 186750 180883 
1866.863 170740 153802 129407 101203 74955 56928 51195 57623 72370 89537 
1871.684 105147 116614 124403 130733 137859 146676 156354 164574 168751 
1876.024 167524 161028 150852 139152 127684 117973 110847 107268 108096 
1880.364 113863 123872 136135 147239 153736 152907 144886 132125 118536 
1884.703 108593 104881 106969 112272 116481 115951 108825 95337 77408 58319 
1889.525 41187 28065 20411 19118 23790 33334 45594 57159 63721 62793 53547 
1894.829 38337 22266 11199 9907 20079 39828 64947 91095 115255 135837 153802 
1900.133 169778 183700 194142 198551 195037 184032 168320 151780 139019 
1904.472 132821 132920 136832 141240 143427 142665 140444 137925 137329 
1908.812 138754 140245 140080 135970 127319 115321 101832 88907 78468 71741 
1913.634 68360 67896 68592 67433 60772 44965 16865 -23590 -72226 -122214 
1918.456 -164744 -193227 -205448 -204753 -197301 -191472 -193029 -204388 
1922.313 -223895 -247076 -269296 -287872 -302805 -315917 -328730 -342073 
1926.170 -354389 -363493 -367996 -368459 -366804 -366440 -369221 -375345 
1930.028 -383059 -390143 -395605 -401465 -411197 -428509 -455519 -489842 
1933.885 -526511 -559670 -584058 -599146 -607518 -614599 -624227 -638255 
1937.743 -655360 -671935 -685499 -696151 -706273 -720134 -740907 -768096 
1941.600 -797995 -824453 -842278 -849685 -848859 -843171 -836590 -829843 
1945.458 -820319 -804213 -779441 -746894 -711732 -681264 -660455 -651721 
1949.315 -652912 -658668 -664293 -668031 -671439 -678981 -695158 -721622 
1953.172 -755924 -794787 -833349 -869427 -904643 -941840 -984058 -1030801 
1957.030 -1078531 -1120670 -1152098 -1170174 -1176882 -1178038 -1179162 
1960.405 -1183920 -1193040 -1203647 -1212304 -1218516 -1222877 -1227635 
1963.780 -1236093 -1248120 -1262591 -1277094 -1291035 -1305273 -1323871 
1967.156 -1350132 -1385111 -1426196 -1467410 -1501983 -1526351 -1540779 
1970.531 -1549727 -1558344 -1570460 -1584986 -1598456 -1605850 -1604134 
1973.906 -1592943 -1575148 -1550915 -1517106 -1465726 -1386993 -1272964 
1977.281 -1126817 -960751 -796771 -656319 -555898 -500697 -486731 -502154 
1981.139 -534222 -573668 -614499 -654533 -691222 -721159 -739154 -741370 
1984.996 -728073 -703428 -677129 -659032 -654731 -664359 -681032 -695655 
1988.854 -699856 -690858 -670975 -647354 -627833 -616253 -612911 -613904 
1992.711 -615326 -615029 -614003 -613804 -616518 -622407 -627800 -629157 
1996.568 -624888 -616220 -608113 -607286 -617907 -639909 -669420 -699327 
2000.426 -722979 -738658 -748382 -758305 -774380 -800575 -835002 -874156 
2004.283 -911157 -940550 -960123 -968851 -966999 -954932 -931723 -897534 
2008.141 -854216 -807090 -761514 -725029 -699922 -684705 -675011 -664028 
2011.998 -648313 -628561 -609999 -599113 -601529 -618801 -646890 -678816 
2015.855 -706935 -725856 -733365 -730454 -718149 -698036 -670281 -635509 
2019.713 -596930 -560167 -532005 -519429 -525386 -546996 -575686 -602058 
2023.570 -616054 -612812 -592760 -561060 -523665 -486863 -454063 -427285 
2027.428 -407556 -396896 -396665 -408549 -431257 -460683 -490934 -515292 
2031.285 -527868 -527339 -515557 -495534 -471539 -445987 -418579 -389316 
2035.143 -358163 -325883 -294693 -266547 -241513 -217901 -192764 -162260 
2039.000 -125725 -84649 -41514 -762 34527 63622 87880 108825 129208 150520 
2043.822 172032 193711 215756 239094 267043 303116 350003 410791 484756 
2048.161 569118 657877 742306 812510 858954 875687 861942 823797 773241 
2052.501 723321 688308 676295 688009 715920 749010 774004 782269 772710 
2056.841 749641 722525 700056 688673 690432 703806 725777 753690 787082 
2061.180 825955 869711 917090 964608 1007647 1043085 1069225 1086962 1098854 
2065.520 1107258 1112673 1115098 1113238 1106528 1096761 1087294 1081448 
2069.377 1081980 1088324 1097193 1104003 1105000 1098422 1086829 1074573 
2073.235 1066501 1066734 1076665 1094835 1118885 1146724 1176957 1209052 
2077.092 1243244 1278202 1311767 1341413 1364546 1380003 1388578 1392035 
2080.949 1393332 1394263 1395891 1397952 1400312 1402340 1404002 1405398 
2084.807 1406229 1404733 1399548 1388711 1371161 1347994 1321472 1294486 
2088.664 1269695 1248095 1228490 1208720 1185761 1157521 1124300 1088092 
2092.522 1051853 1020533 998547 989813 997020 1021596 1061851 1113736 
2096.379 1170744 1225134 1269661 1299803 1314659 1317683 1314891 1312831 
2100.237 1316187 1327786 1346199 1368601 1392268 1414872 1435915 1456061 
2104.094 1474945 1492300 1506231 1515275 1518135 1516106 1510720 1504935 
2107.951 1500812 1499814 1501743 1506464 1513446 1523222 1536522 1553747 
2111.809 1573067 1591324 1603463 1604693 1592688 1568345 1535325 1499581 
2115.666 1467032 1441201 1423515 1412346 1404733 1398451 1391537 1383991 
2119.524 1375981 1368203 1360126 1351218 1340649 1327786 1312930 1296845 
2123.381 1279697 1261321 1240818 1216462 1187356 1153335 1114965 1073609 
2127.239 1030796 986692 941064 893018 841159 785124 725346 663253 600970 
2131.578 541316 487244 441934 408900 390892 388604 400145 419812 439115 
2135.918 449297 443559 418983 378622 329311 279177 236210 204485 184827 
2140.257 175016 172132 173093 176839 181977 186584 188507 185059 172695 
2144.597 151051 122314 89404 57093 29523 6825 -11397 -27235 -42343 -57417 
2149.419 -71629 -86206 -103067 -126917 -164379 -221742 -301680 -405073 
2153.276 -528563 -668130 -818665 -974802 -1128965 -1270751 -1382898 -1443534 
2157.134 -1428673 -1322583 -1122322 -846775 -530913 -218066 51427 250598 
2160.991 371790 422664 421371 390859 352722 322248 310245 320458 351296 
2165.331 397856 451719 503531 544833 570412 578906 572602 556942 535776 
2169.670 512256 486448 455998 419149 376234 329709 284814 247416 221325 
2174.010 207236 203391 205347 208396 209092 204352 192186 171535 141439 
2178.349 102429 58750 17727 -11861 -20873 -4141 36482 93116 152940 203159 
2183.171 235514 248410 245791 236309 227789 225734 231436 243106 257726 
2187.511 273673 290517 308819 330339 355441 383165 413112 444753 479216 
2191.850 517729 562151 610725 660465 707026 745824 775033 796875 815431 
2196.190 837308 866490 904373 947539 991075 1027674 1052285 1063113 1060755 
2200.530 1048764 1031892 1014422 1000507 992337 992138 1000374 1017378 
2204.387 1041192 1069125 1098190 1125629 1149614 1171043 1190977 1211445 
2208.244 1233574 1257765 1281990 1304755 1323632 1337159 1345136 1348393 
2212.102 1347795 1345136 1341779 1339153 1338123 1339785 1343773 1349058 
2215.959 1353611 1355240 1352049 1344504 1333935 1323665 1316885 1315257 
2219.817 1318946 1325726 1332340 1335996 1335431 1331110 1325061 1319743 
2223.674 1316054 1313994 1312266 1308710 1301731 1291495 1278933 1265474 
2227.531 1252681 1241881 1233175 1227626 1225732 1228258 1236432 1249956 
2231.389 1267834 1288039 1308577 1327321 1343474 1357699 1371327 1386052 
2235.246 1403271 1422651 1444259 1467398 1491535 1516572 1543472 1571770 
2239.104 1601434 1631931 1662797 1693697 1724966 1756869 1789407 1821747 
2242.961 1851861 1877184 1896153 1907601 1912526 1913192 1912992 1914490 
2246.819 1919582 1928302 1939684 1952731 1966044 1978892 1991308 2003258 
2250.676 2014243 2024296 2033683 2042605 2053059 2066442 2083887 2105895 
2254.533 2131533 2158504 2185211 2209421 2230137 2247222 2260678 2270170 
2258.391 2274933 2273834 2266407 2252984 2235898 2217914 2202428 2191938 
2262.248 2186843 2186010 2187442 2188474 2187675 2184711 2180149 2175087 
2266.106 2170958 2168094 2167228 2168494 2172224 2178750 2188175 2199764 
2269.963 2212285 2224541 2234899 2242859 2249287 2255648 2263376 2273634 
2273.821 2286158 2299349 2311874 2322233 2330128 2336624 2343787 2353714 
2277.678 2368040 2387762 2412717 2442572 2476461 2513851 2554011 2596175 
2281.535 2638643 2679748 2717690 2750700 2777843 2799519 2815727 2827766 
2285.393 2836604 2842641 2846709 2849444 2851045 2852046 2852513 2852379 
2289.250 2850978 2848144 2843875 2838972 2834770 2833202 2835903 2843741 
2293.108 2856348 2872124 2889235 2905846 2920524 2933066 2943674 2952982 
2296.965 2961422 2969529 2977002 2984108 2990747 2997386 3004393 3012066 
2300.823 3019907 3027548 3033587 3036924 3036857 3032953 3025646 3015737 
2304.680 3004326 2992782 2982106 2973599 2968061 2966226 2968428 2973866 
2308.537 2981572 2989946 2997520 3003025 3006228 3007529 3007896 3008296 
2312.395 3009597 3011833 3014369 3016237 3016070 3013368 3007963 3000389 
2316.252 2992048 2984241 2978470 2975767 2976635 2981272 2989479 3001690 
2320.110 3018005 3038992 3064752 3093851 3123619 3149117 3164303 3163068 
2323.967 3140840 3095953 3030451 2950146 2862318 2775375 2696418 2629743 
2327.824 2576676 2536147 2505386 2481659 2463231 2449236 2439706 2435141 
2331.682 2435341 2439273 2445771 2453335 2461032 2468763 2476894 2485925 
2335.539 2496589 2508819 2522483 2537147 2552645 2568777 2585342 2601942 
2339.397 2617442 2631376 2642810 2651444 2658345 2664246 2670647 2678681 
2343.254 2688950 2701853 2718023 2738496 2765305 2800653 2846676 2903778 
2347.112 2971063 3044898 3120515 3192273 3254495 3302870 3334522 3349047 
2350.969 3348112 3335123 3315357 3293488 3273691 3258434 3248052 3241142 
2354.826 3236034 3230827 3224451 3216840 3208729 3201586 3196545 3194509 
2358.684 3195744 3200384 3207460 3216273 3226420 3236502 3246049 3254495 
2362.541 3261939 3269050 3277296 3288480 3304406 3325640 3351918 3381336 
2366.399 3411725 3440346 3465328 3485869 3502436 3516466 3529660 3543891 
2370.256 3560193 3579603 3602154 3627446 3655279 3685152 3716164 3748147 
2374.114 3780934 3814693 3850227 3888906 3931367 3978280 4029678 4084562 
2377.971 4141726 4199802 4257451 4313802 4368386 4420902 4470981 4518721 
2381.828 4563889 4606952 4648612 4689942 4731878 4775460 4820520 4866088 
2385.686 4910688 4952143 4988575 5018774 5041870 5057725 5066978 5070464 
2389.543 5069056 5064329 5057357 5049680 5041937 5034730 5027556 5019947 
2393.401 5010796 4999669 4986631 4972487 4958176 4945005 4933610 4924126 
2397.258 4916352 4909917 4904891 4901808 4901507 4904858 4912196 4923456 
2401.115 4937967 4954891 4973794 4994474 5017501 5043613 5073280 5106872 
2404.973 5144322 5185363 5230097 5278759 5331587 5388682 5449776 5513463 
2408.830 5578100 5642141 5704447 5764881 5823745 5882214 5940994 6000083 
2412.688 6058609 6114657 6166948 6213632 6253967 6288155 6316798 6340601 
2416.545 6360505 6377014 6390632 6401897 6411245 6419383 6426613 6433238 
2420.403 6438853 6443090 6445209 6444705 6441174 6434852 6426142 6416054 
2424.260 6405966 6397021 6391137 6389355 6392751 6401527 6415583 6433977 
2428.117 6455702 6480017 6506856 6536624 6570060 6607939 6650666 6698244 
2431.975 6749629 6803713 6859789 6916681 6974153 7032137 7090667 7149611 
2435.832 7209471 7270183 7332318 7396416 7463289 7533475 7607787 7686630 
2439.690 7770447 7859913 7955912 8059021 8169581 8287498 8411326 8539344 
2443.547 8669396 8799654 8929242 9058159 9187214 9317528 9450114 9585283 
2447.405 9723102 9862659 10003347 10144114 10284180 10422187 10557285 
2450.780 10688145 10814086 10934830 11050747 11162310 11270569 11375521 
2454.155 11476281 11571075 11657516 11733354 11796369 11845808 11881425 
2457.530 11903390 11911768 11906489 11886499 11851153 11799672 11732367 
2460.906 11650267 11555149 11449269 11334367 11211880 11082459 10946723 
2464.281 10804982 10657786 10506058 10351057 10193907 10035762 9878081 
2467.656 9721882 9568989 9421230 9280867 9150024 9030248 8922377 8826435 
2471.513 8741637 8666861 8600816 8542825 8492207 8448825 8412575 8383152 
2475.371 8359980 8342111 8327622 8314584 8301210 8285844 8267876 8247783 
2479.228 8226645 8206418 8189164 8175929 8167117 8162052 8158845 8155603 
2483.086 8150741 8143415 8133759 8123058 8112862 8104895 8100473 8100101 
2486.943 8103883 8111040 8120053 8129371 8137237 8142369 8143989 8142740 
2490.801 8139769 8137034 8136933 8141322 8150606 8164753 8182175 8201151 
2494.658 8220094 8238092 8254807 8271085 8287599 8304351 8320900 8336505 
2498.515 8349576 8358865 8364202 8365621 8364304 8361804 8359371 8358291 
2502.373 8358763 8361297 8365554 8371667 8379740 8389874 8402441 8417271 
2506.230 8434197 8452677 8471935 8490957 8508866 8524780 8537858 8547962 
2510.088 8554822 8558809 8560499 8560871 8560871 8561512 8563540 8566582 
2513.945 8570265 8573138 8574050 8571989 8566920 8559282 8550699 8543028 
2517.802 8537993 8536607 8539142 8544818 8552220 8559992 8566953 8572665 
2521.660 8577025 8580133 8582229 8583412 8583580 8582735 8581384 8580066 
2525.517 8579930 8581959 8587061 8595578 8607339 8621331 8636440 8651481 
2529.375 8665509 8677373 8687142 8694274 8699075 8702117 8704517 8707425 
2533.232 8712259 8720135 8731630 8746776 8765438 8787110 8811726 8838946 
2537.090 8868739 8901035 8934857 8968986 9002035 9032312 9058903 9081571 
2540.947 9101060 9118385 9135033 9151715 9168703 9185827 9202749 9219027 
2544.804 9234529 9249625 9264416 9279107 9293561 9307473 9320608 9332897 
2548.662 9344306 9354766 9364754 9373963 9382190 9388996 9394617 9399153 
2552.519 9403759 9409210 9416726 9426851 9439177 9453128 9467791 9482251 
2556.377 9495731 9508125 9519268 9528921 9537015 9543552 9548125 9550834 
2560.234 9551783 9551105 9548802 9544670 9538099 9528921 9517066 9503554 
2564.092 9489533 9477104 9467418 9461221 9457937 9456243 9454178 9450555 
2567.949 9444561 9436874 9428916 9422483 9419199 9420316 9425530 9434335 
2571.806 9445542 9457733 9469789 9480999 9490888 9499286 9506567 9513578 
2575.664 9521097 9530310 9542028 9556795 9574646 9595072 9617226 9640161 
2579.521 9662927 9685017 9706024 9725846 9744618 9762918 9781115 9799924 
2583.379 9820021 9842086 9866456 9892996 9921301 9950491 9980088 10009619 
2587.236 10038848 10068486 10098871 10130445 10163209 10197265 10231459 
2590.611 10265486 10298871 10331105 10362323 10392763 10422459 10451647 
2593.987 10480057 10507517 10533724 10558846 10582713 10605631 10628245 
2597.362 10651233 10675172 10701186 10729713 10761131 10795199 10831580 
2600.737 10869323 10907647 10945771 10983218 11019955 11056390 11092860 
2604.112 11129980 11168395 11208378 11249962 11293115 11337700 11383344 
2607.488 11429776 11476520 11523505 11570836 11618615 11667183 11716810 
2610.863 11767261 11817512 11866510 11912721 11955088 11993133 12027026 
2614.238 12057549 12085928 12113013 12138772 12163135 12185182 12204300 
2617.613 12220351 12234188 12247036 12260737 12276416 12294856 12315818 
2620.989 12338658 12362487 12387066 12412534 12439777 12469954 12503849 
2624.364 12541738 12583144 12626770 12671118 12714548 12756447 12796371 
2627.739 12834900 12872920 12911115 12950370 12991234 13033639 13077720 
2631.114 13123445 13170849 13220273 13272059 13326040 13382384 13440478 
2634.490 13499708 13559219 13618569 13677310 13735786 13794510 13854130 
2637.865 13915401 13978221 14042452 14107515 14172450 14236573 14299439 
2641.240 14360841 14420711 14479425 14537186 14594202 14650437 14706405 
2644.615 14761900 14817608 14873460 14929697 14986009 15042398 15098416 
2647.990 15154065 15209617 15265348 15321738 15379235 15438009 15497821 
2651.366 15558397 15619085 15679507 15739523 15799206 15858758 15918560 
2654.741 15978850 16039597 16100731 16162148 16223812 16285351 16346827 
2658.116 16408073 16468639 16528662 16587488 16644981 16701138 16755959 
2661.491 16810064 16863762 16917224 16970350 17022792 17073794 17122836 
2664.867 17169714 17214562 17258070 17301272 17345204 17390310 17436838 
2668.242 17484334 17532010 17579136 17625478 17670992 17715928 17760900 
2671.617 17805880 17851174 17896160 17940118 17982800 18023864 18063412 
2674.992 18101926 18139926 18177482 18214556 18250664 18285120 18317848 
2678.368 18348678 18378370 18407648 18437932 18469738 18504002 18540896 
2681.743 18580628 18623478 18669860 18720328 18775268 18835056 18899422 
2685.118 18968090 19040230 19115602 19193826 19275010 19359362 19447472 
2688.493 19539238 19634422 19732470 19832342 19933038 20034032 20134774 
2691.869 20235190 20335560 20436338 20538212 20641954 20748016 20856988 
2695.244 20968978 21084230 21202576 21323668 21446988 21571908 21698330 
2698.619 21825622 21953718 22082378 22211316 22340470 22469488 22598228 
2701.994 22726412 22853868 22980350 23105538 23228840 23349764 23467818 
2705.370 23582234 23692408 23798026 23898490 23993128 24081868 24163934 
2708.745 24239184 24306984 24366946 24418640 24461614 24495304 24519668 
2712.120 24534744 24541264 24540176 24532990 24520684 24504172 24483804 
2715.495 24459300 24429892 24394842 24353556 24306038 24252710 24194588 
2718.871 24132758 24068488 24002300 23934830 23866212 23796732 23727086 
2722.246 23658082 23591014 23527174 23467608 23413052 23363680 23319170 
2725.621 23279142 23243380 23211852 23185218 23164424 23150512 23144572 
2728.996 23146948 23157502 23175396 23199268 23227616 23258864 23291726 
2732.372 23325428 23359798 23395184 23431972 23470686 23511782 23555576 
2735.747 23601754 23650036 23699650 23750148 23800582 23850494 23899820 
2739.122 23948240 23996000 24042748 24088696 24133704 24177492 24220020 
2742.497 24261714 24302428 24342868 24383276 24423900 24464698 24505434 
2745.873 24545894 24585792 24624856 24663432 24701450 24739542 24777670 
2749.248 24815874 24854256 24892570 24931064 24969914 25009466 25050112 
2752.623 25092202 25135908 25181482 25228920 25278788 25331540 25387990 
2755.998 25448730 25514330 25584404 25658318 25735164 25813712 25892556 
2759.374 25971026 26048420 26124068 26197370 26267590 26333594 26394258 
2762.749 26448624 26495710 26535050 26566680 26590738 26607682 26617900 
2766.124 26621634 26619132 26610572 26596058 26575732 26550160 26519658 
2769.499 26485566 26449048 26411686 26375492 26341832 26311978 26286562 
2772.875 26265618 26248618 26234854 26223380 26213314 26204444 26196772 
2776.250 26190192 26184878 26180478 26176818 26172912 26168056 26161192 
2779.625 26151480 26138460 26121710 26100774 26076390 26048350 26017600 
2783.000 25984498 25949990 25914888 25879964 25845852 25813324 25782876 
2786.375 25755134 25730628 25709924 25693506 25681834 25674910 25672310 
2789.751 25673258 25677020 25682468 25689112 25696740 25705424 25715582 
2793.126 25727534 25741562 25757418 25774472 25791666 25808120 25822890 
2796.501 25835232 25844656 25850952 25853942 25853448 25849474 25842090 
2799.876 25831540 25818282 25802460 25784702 25764592 25741986 25716216 
2803.252 25686862 25653572 25617018 25577726 25537066 25496200 25456320 
2806.627 25417920 25381280 25346574 25313698 25282616 25253606 25227058 
2810.002 25203638 25184044 25169544 25160906 25159010 25164594 25177936 
2813.377 25198512 25225654 25257962 25294312 25333824 25376082 25421258 
2816.753 25469848 25522518 25579834 25641868 25708728 25780554 25857704 
2820.128 25941058 26031320 26129628 26235946 26350106 26471022 26597432 
2823.503 26727966 26861712 26998638 27138710 27282110 27428838 27578404 
2826.878 27729614 27881510 28032718 28182494 28330446 28476114 28619530 
2830.254 28760302 28898004 29032138 29162626 29289540 29413760 29536418 
2833.629 29659290 29784218 29913194 30048528 30192288 30346646 30513396 
2837.004 30694218 30890132 31101900 31330116 31576018 31841744 32130178 
2840.379 32446082 32795340 33184360 33620236 34111056 34663688 35286272 
2843.755 35986452 36770912 37645240 38610920 39664232 40792968 41974972 
2847.130 43177912 44356416 45458464 46428568 47209788 47756424 48036084 
2850.505 48034824 47759604 47236496 46507964 45623356 44636728 43601076 
2853.880 42559708 41550000 40599672 39726788 38942048 38249972 37649796 
2857.256 37136444 36702220 36338676 36035912 35784596 35576860 35404920 
2860.631 35262588 35144804 35047740 34968620 34906208 34860248 34831420 
2864.006 34821116 34830592 34860968 34912888 34986900 35082800 35201036 
2867.381 35341656 35504832 35690052 35895640 36118832 36354888 36598068 
2870.757 36841636 37078156 37300692 37503728 37682964 37836072 37963808 
2874.132 38068760 38155396 38229600 38297740 38366140 38439912 38522924 
2877.507 38617980 38726676 38849640 38987460 39140808 39309844 39495532 
2880.882 39698252 39917916 40154268 40405764 40670108 40943680 41221756 
2884.258 41498736 41768632 42025120 42262768 42477524 42667348 42832240 
2887.633 42975208 43101428 43217036 43330040 43448820 43581040 43735252 
2891.008 43919940 44144140 44419136 44757920 45175532 45689792 46319548 
2894.383 47083068 47997412 49073248 50312188 51701060 53211044 54792488 
2897.759 56373516 57871960 59195144 60251764 60970456 61303020 61234992 
2901.134 60785880 60006960 58971736 57759880 56456032 55135024 53855564 
2904.509 52665212 51595752 50666920 49890612 49271916 48812048 48510396 
2907.884 48365408 48376632 48543740 48867628 49348412 49984140 50768728 
2911.260 51690164 52728284 53856016 55037716 56230144 57388796 58465396 
2914.635 59414496 60199504 60792052 61177920 61356140 61339312 61149044 
2918.010 60812632 60359996 59818724 59212232 58560140 57876352 57170660 
2921.385 56449924 55718512 54979872 54237528 53496156 52762068 52043488 
2924.760 51349476 50689744 50072588 49504280 48988376 48525880 48115552 
2928.136 47754128 47437132 47159220 46913308 46691436 46484620 46282800 
2931.511 46076024 45854808 45610180 45334724 45022204 44667536 44267176 
2934.886 43819832 43326340 42789932 42216460 41614024 40991636 40359296 
2938.261 39727260 39104664 38500620 37923492 37379988 36875868 36414912 
2941.637 35998976 35627572 35298348 35006472 34745912 34509076 34287324 
2945.012 34071384 33852248 33621952 33374850 33108722 32825072 32529496 
2948.387 32229732 31935350 31655416 31396858 31164156 30958480 30778826 
2951.762 30621860 30483610 30359616 30245250 30136028 30028184 29917490 
2955.138 29800756 29675326 29539362 29391990 29233290 29064306 28886530 
2958.513 28702388 28514362 28325212 28137418 27953132 27774012 27601144 
2961.888 27435684 27278370 27130316 26992610 26866400 26752492 26651580 
2965.263 26563546 26488314 26425420 26374716 26336482 26311168 26299658 
2968.639 26302402 26320040 26352218 26398904 26459788 26535086 26625050 
2972.014 26730326 26851174 26987110 27136172 27294140 27454426 27608488 
2975.389 27745436 27853670 27922142 27941330 27904936 27811278 27663500 
2978.764 27469074 27239208 26987884 26728532 26474262 26236226 26021928 
2982.140 25836042 25680218 25553126 25451296 25369442 25301828 25242298 
2985.515 25185556 25127762 25066680 25002132 24935450 24868676 24804472 
2988.890 24743994 24687910 24634920 24582252 24526224 24462876 24389340 
2992.265 24304006 24207932 24103932 23997014 23892468 23795612 23710466 
2995.641 23638804 23581008 23535532 23501010 23475512 23458096 23448234 
2999.016 23445960 23450996 23463096 23480828 23502794 23527488 23553406 
3002.391 23579680 23605952 23632330 23658958 23686530 23715364 23746158 
3005.766 23779440 23815912 23856026 23900484 23949570 24003072 24060644 
3009.142 24121444 24184426 24248434 24312276 24374970 24436096 24495372 
3012.517 24553186 24610410 24668060 24727334 24789352 24854676 24923870 
3015.892 24996900 25073666 25153884 25236682 25321566 25407450 25493248 
3019.267 25578078 25660990 25741458 25819550 25895228 25969022 26041382 
3022.643 26113018 26184596 26257064 26331096 26407426 26486588 26568442 
3026.018 26652354 26737164 26821850 26905564 26988026 27069834 27151830 
3029.393 27235046 27320074 27406568 27493714 27580206 27664666 27746248 
3032.768 27825090 27901508 27976666 28051768 28127484 28204414 28282950 
3036.144 28363160 28445158 28529008 28614858 28702670 28792628 28884690 
3039.519 28978862 29075428 29174144 29274758 29377028 29480278 29584016 
3042.894 29688310 29793196 29899314 30007306 30117490 30229124 30341566 
3046.269 30453078 30562274 30668332 30771180 30871452 30970542 31070008 
3049.645 31170602 31272996 31376984 31482100 31587530 31692732 31797216 
3053.020 31900506 32002396 32102850 32202076 32300718 32399778 32500036 
3056.395 32602568 32707304 32814100 32921888 33029988 33137512 33244736 
3059.770 33352024 33460126 33569688 33680884 33793260 33906412 34019992 
3063.146 34133708 34248168 34363920 34481564 34601104 34722044 34843448 
3066.521 34964276 35083696 35201608 35318656 35435944 35554384 35674724 
3069.896 35797404 35922132 36048156 36174720 36300636 36425364 36548432 
3073.271 36669804 36790132 36910676 37032364 37156472 37283508 37413248 
3076.646 37545016 37677512 37809720 37940776 38070820 38200292 38329912 
3080.022 38460328 38591364 38722764 38853912 38984052 39113000 39240932 
3083.397 39368432 39496328 39625172 39755472 39887480 40021524 40157392 
3086.772 40295012 40433844 40573076 40711740 40849096 40984748 41118992 
3090.147 41253088 41388180 41525460 41665484 41807924 41951688 42095868 
3093.523 42239688 42383304 42527368 42673196 42821452 42972652 43126384 
3096.898 43281680 43437504 43592724 43746720 43899228 44049956 44198904 
3100.273 44346324 44492768 44639224 44787196 44938196 45093108 45251720 
3103.648 45412736 45573744 45732200 45886288 46035572 46181040 46324784 
3107.024 46469128 46615996 46766376 46920136 47076160 47233428 47390828 
3110.399 47548024 47704680 47860916 48016876 48172744 48328480 48484460 
3113.774 48640864 48798256 48956404 49115244 49274404 49433620 49592928 
3117.149 49753188 49915108 50079540 50247120 50417224 50588696 50759868 
3120.525 50929016 51095176 51258488 51419404 51579260 51739060 51899068 
3123.900 52059100 52218292 52376312 52532440 52687172 52841280 52996308 
3127.275 53153856 53315104 53480980 53651716 53826496 54003672 54181372 
3130.650 54357380 54529516 54697056 54859924 55019212 55176968 55335392 
3134.026 55496020 55659828 55826792 55996040 56166828 56337944 56508600 
3137.401 56678308 56846640 57012964 57177124 57338772 57498436 57656836 
3140.776 57814988 57973920 58134656 58297380 58461944 58627828 58794268 
3144.151 58960728 59126728 59292100 59456708 59620612 59783968 59947008 
3147.527 60110184 60274452 60440264 60608276 60778068 60949104 61120132 
3150.902 61290240 61458272 61623776 61786896 61947860 62107204 62265344 
3154.277 62422852 62580072 62737464 62895344 63054116 63213824 63374132 
3157.652 63534340 63694424 63854216 64013912 64174176 64335488 64497708 
3161.028 64660260 64821712 64980960 65137184 65290392 65441564 65591984 
3164.403 65743028 65895484 66049032 66202820 66355400 66505440 66652128 
3167.778 66795320 66935068 67072168 67207016 67340368 67473136 67606264 
3171.153 67740232 67875880 68012800 68150200 68286944 68421672 68553296 
3174.529 68681784 68806920 68929160 69048776 69165440 69278992 69389536 
3177.904 69497424 69604296 69712120 69822808 69937312 70055264 70174840 
3181.279 70293568 70409200 70520384 70626648 70729304 70829616 70928920 
3184.654 71027872 71126336 71223680 71319584 71414080 71506888 71598704 
3188.030 71689480 71778864 71866552 71952216 72035712 72118016 72200096 
3191.405 72282616 72366056 72450072 72533384 72614568 72692672 72766632 
3194.780 72836608 72902872 72965936 73026768 73086168 73145296 73205448 
3198.155 73268080 73333904 73403184 73475272 73548616 73621120 73691392 
3201.531 73758488 73822544 73884288 73944736 74004840 74064928 74125088 
3204.906 74184824 74244224 74303120 74361432 74418960 74474968 74528856 
3208.281 74580000 74628312 74674312 74719096 74764072 74810208 74857600 
3211.656 74906032 74954184 75001432 75047832 75093632 75140112 75188248 
3215.031 75238648 75291016 75344368 75397496 75449296 75499328 75547272 
3218.407 75593640 75639424 75685056 75731920 75780984 75833152 75889024 
3221.782 75948808 76011640 76076104 76140416 76202888 76262472 76319624 
3225.157 76375136 76430368 76486672 76544480 76603688 76663928 76724456 
3228.532 76784752 76844784 76904304 76963200 77021432 77078920 77136344 
3231.908 77194840 77256272 77322304 77394288 77472144 77554328 77638912 
3235.283 77723504 77807128 77889336 77971248 78053688 78137616 78222544 
3238.658 78307736 78391936 78474784 78556920 78639712 78724696 78812448 
3242.033 78902200 78992248 79079968 79164056 79244416 79322880 79402280 
3245.409 79485112 79573048 79665352 79760176 79855264 79948464 80038968 
3248.784 80127456 80215136 80303184 80391968 80481088 80569272 80655480 
3252.159 80738552 80818360 80894880 80968496 81039408 81108336 81175592 
3255.534 81242312 81309432 81377480 81446904 81516656 81585056 81649904 
3258.910 81709296 81762176 81808688 81849728 81886536 81920392 81952080 
3262.285 81981696 82009512 82035520 82060056 82083272 82105120 82124976 
3265.660 82141880 82154280 82161648 82163736 82161408 82155880 82148560 
3269.035 82139952 82130144 82118016 82102488 82082432 82057048 82026440 
3272.411 81990544 81950120 81905864 81858848 81810368 81762208 81715576 
3275.786 81671504 81629752 81589456 81548312 81504856 81457616 81406216 
3279.161 81351664 81295360 81238712 81182392 81126112 81069520 81012136 
3282.536 80953960 80895920 80839712 80786720 80737752 80692624 80650296 
3285.912 80609240 80567920 80525400 80481648 80437336 80393520 80351456 
3289.287 80312112 80276272 80244264 80216008 80191296 80169496 80149816 
3292.662 80131880 80115664 80101960 80092032 80087216 80088336 80095736 
3296.037 80108256 80123912 80140960 80157584 80173008 80187872 80203056 
3299.413 80219920 80239480 80262128 80287520 80315384 80345080 80376576 
3302.788 80410344 80446832 80486832 80530584 80578688 80631264 80688312 
3306.163 80749680 80815016 80883464 80954248 81026552 81099864 81174200 
3309.538 81249816 81327368 81407448 81490104 81575176 81661984 81750016 
3312.914 81838488 81927112 82015352 82103008 82190040 82276128 82360944 
3316.289 82445024 82528640 82611952 82695320 82777616 82857888 82934568 
3319.664 83006488 83072912 83134504 83192280 83247184 83300080 83350504 
3323.039 83397680 83440920 83479832 83514888 83548184 83581160 83615376 
3326.415 83650728 83686320 83719872 83749160 83772264 83787536 83794240 
3329.790 83791520 83779136 83756632 83724328 83682864 83634136 83579712 
3333.165 83520544 83456704 83386472 83307672 83217808 83116168 83003360 
3336.540 82882552 82757096 82629912 82502400 82373528 82241008 82101640 
3339.916 81953240 81794928 81627320 81451736 81269912 81082696 80890488 
3343.291 80693144 80490736 80283328 80071280 79855184 79635096 79411432 
3346.666 79184208 78953984 78721760 78489264 78258088 78029656 77804432 
3350.041 77582176 77362768 77145960 76932072 76721920 76516104 76314768 
3353.417 76116688 75920232 75723392 75525344 75326440 75128688 74935240 
3356.792 74748608 74570480 74400632 74237384 74078520 73922032 73766704 
3360.167 73612400 73460040 73310248 73163720 73020856 72881752 72746616 
3363.542 72615344 72488432 72365592 72246616 72130840 72017568 71906816 
3366.917 71798872 71694480 71594520 71498720 71406072 71314736 71222280 
3370.293 71126416 71026504 70922064 70813304 70700488 70582744 70458304 
3373.668 70324648 70179248 70020112 69846432 69658752 69457728 69244520 
3377.043 69019992 68784408 68537624 68279304 68008616 67724552 67425768 
3380.418 67110792 66778160 66427396 66058636 65673188 65273216 64860844 
3383.794 64438136 64006196 63565752 63117600 62662436 62201868 61737660 
3387.169 61272000 60806268 60340884 59875844 59410884 58945700 58480788 
3390.544 58017584 57558088 57104220 56657844 56219736 55790204 55368440 
3393.919 54952832 54541684 54132428 53722276 53308960 52891316 52469288 
3397.295 52044572 51620304 51200068 50786944 50382804 49987372 49599168 
3400.670 49215616 48834220 48453048 48071280 47688632 47305472 46921948 
3404.045 46538352 46154732 45771924 45390668 45012800 44640100 44273344 
3407.420 43913048 43558656 43209024 42863180 42520168 42180164 41843680 
3410.796 41511936 41185508 40864568 40548956 40237796 39929904 39624772 
3414.171 39321996 39021680 38724468 38431112 38142264 37858412 37579336 
3417.546 37304192 37031500 36759736 36487200 36213432 35938828 35664944 
3420.921 35394460 35130648 34875724 34631068 34396052 34169016 33947076 
3424.297 33726860 33506006 33282976 33057664 32831148 32605104 32381498 
3427.672 32161932 31947296 31738002 31533264 31332574 31134752 30939514 
3431.047 30746568 30556266 30368750 30184296 30002620 29822828 29643680 
3434.422 29464144 29283726 29102674 28922122 28743416 28567968 28396870 
3437.798 28230084 28066754 27905464 27744484 27582184 27417544 27250286 
3441.173 27080378 26908596 26736564 26565624 26397354 26232460 26071078 
3444.548 25911900 25752954 25592030 25427616 25259718 25089884 24921170 
3447.923 24757254 24600836 24452956 24312838 24178122 24045410 23912386 
3451.299 23777238 23639714 23500486 23360568 23220346 23080168 22939406 
3454.674 22797576 22655054 22512444 22371552 22234020 22100714 21971914 
3458.049 21846980 21724280 21601822 21478388 21352972 21225192 21095708 
3461.424 20965118 20834496 20704990 20577262 20451758 20328512 20206898 
3464.800 20086430 19966930 19848124 19730874 19616258 19505586 19399862 
3468.175 19298946 19202104 19107812 19014336 18920638 18825992 18730880 
3471.550 18636068 18542106 18449374 18357872 18266734 18176238 18086486 
3474.925 17998272 17912770 17830872 17752928 17678206 17605740 17533872 
3478.301 17461326 17387310 17312100 17235798 17159752 17084510 17010974 
3481.676 16940064 16872268 16808064 16748037 16692391 16640574 16592102 
3485.051 16546251 16501885 16458349 16415849 16374422 16334511 16296875 
3488.426 16261512 16228767 16198292 16169816 16143199 16118268 16095297 
3491.802 16074082 16055068 16038118 16023405 16011372 16002193 15996486 
3495.177 15995145 15998721 16008174 16024297 16047573 16077898 16115172 
3498.552 16158191 16205585 16255975 16307849 16360693 16414473 16470050 
3501.927 16528834 16592858 16663365 16741805 16829246 16926388 17033544 
3505.302 17151032 17278688 17415384 17559818 17709716 17862982 18018406 
3508.678 18175340 18334886 18498780 18668408 18844262 19025932 19211454 
3512.053 19398408 19584920 19769918 19953468 20136022 20318094 20498474 
3515.428 20675312 20845168 21005282 21153870 21291060 21418026 21537194 
3518.803 21650160 21756326 21853670 21938174 22005338 22051456 22074186 
3522.179 22072582 22047448 22000178 21932216 21844158 21736194 21607742 
3525.554 21457500 21284832 21089620 20872528 20635840 20382994 20118044 
3528.929 19844898 19566412 19284086 18997824 18707254 18411174 18109664 
3532.304 17802944 17492130 17177918 16860834 16541088 16218791 15894741 
3535.680 15570486 15248737 14931823 14621821 14319506 14024622 13736299 
3539.055 13454285 13179217 12912685 12656857 12413045 12180855 11957983 
3542.430 11740298 11523301 11302943 11077224 10846154 10611539 10376643 
3545.805 10145131 9920285 9705143 9501826 9311400 9134018 8968072 8810678 
3549.663 8658377 8507175 8354373 8198821 8041232 7884476 7731859 7586072 
3553.520 7448491 7319377 7197040 7079756 6966206 6855346 6746701 6640203 
3557.378 6535413 6431657 6328262 6224152 6119093 6013017 5906766 5801313 
3561.235 5698269 5599110 5504839 5416258 5332962 5253505 5174801 5092992 
3565.093 5003724 4903416 4790736 4667435 4538811 4411932 4293991 4190301 
3568.950 4102958 4031049 3971659 3921069 3875433 3831808 3787285 3740092 
3572.807 3688393 3631055 3568110 3500232 3429225 3357561 3287379 3220178 
3576.665 3156526 3095419 3035890 2976334 2915787 2853947 2791549 2729493 
3580.522 2669280 2612575 2560777 2515118 2476327 2444038 2416816 2391627 
3584.380 2364275 2329595 2282961 2221311 2144219 2055322 1960519 1868066 
3588.237 1785614 1717914 1666688 1630002 1603263 1581647 1560397 1535990 
3592.094 1506497 1471820 1432757 1391437 1350221 1310970 1274945 1243144 
3595.952 1215598 1192506 1174199 1160279 1150279 1143003 1136226 1127124 
3599.809 1113537 1093539 1067066 1035977 1003164 971980 945049 923897 908026 
3604.149 895575 883057 866756 842719 807630 759565 698695 627548 550871 
3608.489 474971 406347 349174 304973 271121 243437 216783 187645 154730 
3612.828 120061 87316 60772 43010 33897 30716 29026 23724 10934 -11994 
3617.650 -45457 -87961 -136192 -186504 -234426 -276514 -310454 -335451 
3621.507 -352005 -361904 -367168 -369651 -370048 -367830 -362004 -351807 
3625.365 -338299 -325353 -319460 -329558 -364420 -428509 -518701 -622572 
3629.222 -721986 -798524 -842906 -856299 -847701 -828752 -810364 -800013 
3633.080 -800939 -812216 -830406 -851107 -871180 -889003 -905205 -920812 
3636.937 -936781 -953147 -968917 -982504 -992885 -999497 -1003067 -1004918 
3640.794 -1006505 -1008852 -1012158 -1016190 -1019727 -1022108 -1022537 
3644.170 -1021182 -1018967 -1017381 -1018240 -1023826 -1036222 -1057046 
3647.545 -1087025 -1126024 -1171925 -1221952 -1271676 -1315712 -1349207 
3650.920 -1368101 -1371040 -1358852 -1335003 -1304348 -1273063 -1247096 
3654.295 -1230939 -1227800 -1237811 -1257734 -1281950 -1304084 -1319049 
3657.671 -1324367 -1320667 -1310427 -1297180 -1283404 -1271610 -1262756 
3661.046 -1257536 -1255884 -1257470 -1261930 -1268372 -1275277 -1280695 
3664.421 -1282149 -1277722 -1265696 -1246336 -1221556 -1195122 -1172289 
3667.796 -1158971 -1159401 -1174404 -1199153 -1222976 -1230444 -1208339 
3671.172 -1148529 -1052287 -927953 -789991 -654897 -539021 -458300 -424670 
3675.029 -442379 -504934 -597724 -703263 -808115 -906660 -999034 -1086827 
3678.886 -1170603 -1247988 -1314688 -1366449 -1401261 -1420153 -1427121 
3682.262 -1427187 -1424347 -1420384 -1414703 -1405522 -1392146 -1375565 
3685.637 -1359513 -1349967 -1353237 -1373881 -1413085 -1466749 -1526186 
3689.012 -1581949 -1625492 -1652526 -1663452 -1661273 -1650051 -1633579 
3692.387 -1615193 -1597069 -1581487 -1570130 -1564485 -1564980 -1571187 
3695.763 -1580662 -1590632 -1597333 -1597960 -1591094 -1577525 -1559004 
3699.138 -1539128 -1521299 -1508125 -1501223 -1500563 -1504525 -1510700 
3702.513 -1516808 -1520573 -1520870 -1517304 -1509842 -1498747 -1484416 
3705.888 -1467542 -1448752 -1429433 -1411599 -1397595 -1390692 -1393995 
3709.264 -1410344 -1440793 -1484251 -1536916 -1592282 -1641799 -1677381 
3712.639 -1693785 -1689098 -1666225 -1630905 -1590103 -1550288 -1516181 
3716.014 -1490228 -1472792 -1462424 -1456810 -1453739 -1452153 -1451856 
3719.389 -1453606 -1457767 -1464603 -1472528 -1479232 -1482699 -1481147 
3722.765 -1474807 -1465363 -1456017 -1450304 -1450799 -1458461 -1471769 
3726.140 -1487652 -1501223 -1507728 -1504261 -1490195 -1467542 -1440397 
3729.515 -1414175 -1393995 -1383261 -1382898 -1390659 -1402252 -1412623 
3732.890 -1418501 -1420846 -1423719 -1432702 -1452550 -1483524 -1520738 
3736.266 -1555637 -1578648 -1583666 -1569932 -1540845 -1501884 -1458197 
3739.641 -1413151 -1367770 -1322880 -1280100 -1243494 -1220994 -1222216 
3743.016 -1255785 -1323905 -1416454 -1511988 -1583831 -1613740 -1599446 
3746.391 -1552467 -1490129 -1429036 -1382898 -1358918 -1357861 -1375631 
3749.767 -1404630 -1437359 -1468962 -1497360 -1521596 -1539591 -1547812 
3753.142 -1542397 -1521398 -1486298 -1442048 -1395647 -1353898 -1322220 
3756.517 -1303919 -1299129 -1305538 -1320502 -1341247 -1365755 -1391815 
3759.892 -1416817 -1436896 -1447959 -1447035 -1433792 -1410608 -1382402 
3763.268 -1355021 -1333187 -1319643 -1314193 -1314259 -1316208 -1317628 
3766.643 -1318091 -1319115 -1323145 -1331965 -1345012 -1359777 -1372163 
3770.018 -1378043 -1375466 -1364897 -1349141 -1332229 -1317364 -1306430 
3773.393 -1299690 -1295627 -1291894 -1286344 -1277358 -1264903 -1250598 
3776.769 -1237052 -1227635 -1225157 -1231468 -1245510 -1264540 -1283503 
3780.144 -1297114 -1302267 -1298171 -1286840 -1272337 -1259287 -1251060 
3783.519 -1249276 -1253142 -1260212 -1267183 -1271213 -1270652 -1265729 
3786.894 -1257470 -1247195 -1236622 -1226875 -1218813 -1213295 -1210850 
3790.270 -1211379 -1214320 -1218251 -1221490 -1222382 -1220300 -1215972 
3793.645 -1211412 -1209066 -1210817 -1216732 -1224893 -1230774 -1230179 
3797.020 -1219276 -1198426 -1170967 -1143737 -1124801 -1122190 -1140895 
3800.395 -1181343 -1236523 -1294438 -1338868 -1357927 -1347490 -1311946 
3803.771 -1261765 -1209429 -1167134 -1144002 -1143275 -1162441 -1193040 
3807.146 -1223042 -1242008 -1244816 -1233582 -1214683 -1195320 -1180814 
3810.521 -1172751 -1168885 -1164688 -1155667 -1140069 -1119414 -1099386 
3813.896 -1087190 -1089570 -1109466 -1143902 -1183028 -1214485 -1227602 
3817.271 -1218086 -1189009 -1149256 -1110854 -1085438 -1082232 -1104971 
3820.647 -1150247 -1206720 -1258395 -1291696 -1299756 -1284065 -1252613 
3824.022 -1216533 -1185969 -1167960 -1165217 -1174866 -1190826 -1204704 
3827.397 -1209661 -1203317 -1187324 -1166208 -1145918 -1131245 -1124338 
3830.772 -1124338 -1127577 -1128965 -1124338 -1110425 -1087091 -1056617 
3834.148 -1022901 -991232 -967561 -957511 -964487 -989678 -1030239 -1079555 
3838.005 -1128568 -1168125 -1192842 -1201929 -1198889 -1189439 -1179889 
3841.380 -1174404 -1174404 -1178633 -1184119 -1187324 -1185672 -1177708 
3844.756 -1163862 -1145224 -1123347 -1099386 -1074168 -1047791 -1019628 
3848.131 -989215 -955693 -919059 -880373 -842840 -812150 -797069 -807256 
3851.988 -851736 -933277 -1044783 -1166308 -1272700 -1343228 -1369752 
3855.364 -1357002 -1317496 -1264540 -1208372 -1155204 -1108111 -1067161 
3858.739 -1031892 -1002042 -978207 -961544 -952949 -952585 -959528 -971595 
3862.596 -987100 -1004620 -1023198 -1041709 -1057410 -1067095 -1066995 
3865.971 -1054799 -1031991 -1002802 -975264 -958007 -957809 -977380 -1012786 
3869.829 -1053675 -1086926 -1103418 -1100377 -1082497 -1058600 -1038239 
3873.204 -1027793 -1029148 -1038966 -1050799 -1057641 -1055030 -1041742 
3876.579 -1021248 -998472 -979132 -967925 -967628 -978174 -997083 -1018769 
3880.437 -1036751 -1044321 -1037346 -1014736 -980025 -940054 -902957 -877826 
3884.294 -871279 -885333 -915951 -953577 -986009 -1002505 -998472 -975595 
3888.152 -940914 -903221 -871742 -853621 -852562 -868072 -895451 -928119 
3892.009 -958437 -980422 -990934 -989050 -975529 -951824 -920051 -882324 
3895.866 -841418 -800542 -763465 -733961 -715569 -710706 -719604 -740312 
3899.724 -769121 -800939 -831034 -856233 -875776 -890756 -903618 -916679 
3903.581 -931061 -946303 -959561 -967892 -968619 -960387 -943956 -921407 
3907.439 -895881 -870618 -848164 -830339 -818004 -810563 -806792 -805172 
3911.296 -803948 -801402 -796771 -790057 -782252 -775009 -770510 -770080 
3915.154 -774546 -783079 -793563 -803584 -811092 -814895 -815590 -814498 
3919.011 -812944 -811654 -810034 -806528 -799450 -787676 -771900 -754336 
3922.868 -738558 -727444 -723541 -726584 -734490 -743950 -751029 -752749 
3926.726 -747985 -737500 -722714 -706174 -690362 -676864 -667402 -662638 
3930.583 -662705 -667303 -675574 -685962 -696382 -704983 -709581 -709383 
3934.441 -703825 -693769 -680305 -664590 -648280 -632598 -618536 -606955 
3938.298 -598385 -593224 -591404 -592760 -596996 -603283 -610727 -618635 
3942.156 -625683 -631043 -633954 -633689 -630116 -623499 -614599 -604441 
3946.013 -594514 -585977 -579822 -576547 -576149 -577969 -581179 -584620 
3949.870 -587565 -589286 -589220 -587665 -584720 -580947 -576877 -573138 
3953.728 -569995 -567778 -566123 -564270 -561424 -556692 -550074 -541205 
3957.585 -530747 -519495 -508111 -497388 -487988 -479979 -473492 -468527 
3961.443 -465482 -463926 -463629 -464026 -464357 -463794 -461907 -458266 
3965.300 -453169 -446980 -440293 -433739 -427516 -421690 -416295 -411429 
3969.157 -407158 -403848 -401564 -400339 -399843 -399479 -398552 -396665 
3973.015 -393189 -388256 -382364 -376007 -369684 -363427 -357435 -351244 
3976.872 -344656 -337670 -330452 -323466 -316877 -310719 -305289 -300024 
3980.730 -294528 -288898 -283137 -277971 -274395 -273269 -275190 -279991 
3984.587 -286978 -294627 -301415 -306183 -308235 -307971 -306116 -304064 
3988.445 -303136 -303964 -306911 -311646 -317672 -324327 -331412 -338564 
3992.302 -345649 -352204 -357534 -360448 -359752 -355018 -346013 -333763 
3996.159 -319625 -305818 -294064 -285687 -281150 -280057 -281746 -284958 
4000.017 -288634 -292110 
##END=
