
##TITLE=mdmaHCL00446_1
##JCAMP-DX=5.01  $$ Nicolet v. 1
##DATATYPE=INFRARED SPECTRUM
##ORIGIN=UniL
##OWNER=Nicolet
##LONGDATE=2011/08/23
##TIME=08:46:22
##SPECTROMETER/DATA SYSTEM=Nicolet iS5
##DATA PROCESSING=
Ratio against background
%Transmittance->Absorbance
Truncated
ElementMultiply or ElementDivide
##COMMENTS=
Number of sample scans: 32
Collection length: 51.21 sec
Sample gain: 2.0
Background collected on: Mar Aout 23 08:42:46 2011 (GMT+02:00);
Number of background scans: 32
Background gain: 2.0
Sample spacing:  1.000
Number of scan points: 12415
Resolution points: 8192
Number of FFT points: 65536
Apodization: N-B fort;
Phase correction: Mertz;
Laser frequency: 15798.0 cm-1
Number of rejected sample scans: 0
Number of rejected background scans: 0
Bench serial number: ASB1000141;
##RESOLUTION=4.000
##XUNITS=1/CM
##YUNITS=ABSORBANCE
##FIRSTX=649.893372
##LASTX=4000.122314
##FIRSTY=0.114341
##MAXX=4000.122314
##MINX=649.893372
##MAXY=0.261315
##MINY=0.001766
##XFACTOR=1.000000
##YFACTOR=1.000000E-009
##NPOINTS=6950
##DELTAX=0.482117
##ZPD=6100
##XYDATA=(X++(Y..Y))
649.893 114341176 113664432 113084936 112638120 112322296 112112536 
652.786 111979112 111906952 111902672 111986320 112173240 112461488 
655.679 112827080 113234864 113655432 114080848 114524616 115014528 
658.571 115571656 116194704 116859280 117527080 118168768 118777792 
661.464 119376272 120001216 120687440 121446480 122259760 123083488 
664.357 123868152 124570704 125159424 125614840 125922960 126075448 
667.250 126079160 125968960 125812592 125682328 125628560 125656128 
670.142 125729680 125785280 125755448 125590456 125270424 124814040 
673.035 124266240 123682480 123102184 122536016 121970240 121380488 
675.928 120750528 120081120 119389184 118694992 118009608 117327736 
678.820 116632104 115904704 115141936 114357608 113580496 112837728 
681.713 112144368 111495360 110870712 110246288 109607056 108954800 
684.606 108305016 107676456 107079400 106510952 105956400 105399512 
687.498 104832872 104263984 103712536 103202896 102751552 102362048 
690.391 102025304 101726192 101453760 101204928 100986264 100807696 
693.284 100676576 100593448 100553144 100550384 100585256 100667296 
696.177 100812920 101037856 101353536 101760608 102252008 102816832 
699.069 103446856 104139352 104894664 105710896 106579008 107478936 
701.962 108385088 109272368 110124032 110935856 111714112 112467360 
704.855 113198448 113899920 114555936 115150568 115675000 116133832 
707.747 116541232 116915176 117268616 117603480 117914264 118194608 
710.640 118444752 118677016 118911696 119169536 119463648 119792440 
713.533 120140016 120482920 120798840 121071984 121293784 121462040 
716.425 121574256 121628568 121625280 121573552 121496144 121426104 
719.318 121403712 121461552 121613880 121851920 122145176 122451984 
722.211 122725200 122926208 123027048 123009280 122864600 122595992 
725.104 122218928 121764456 121277784 120813720 120420744 120132672 
727.996 119959904 119890296 119896536 119948552 120026376 120122320 
730.889 120239432 120382752 120552016 120738240 120926416 121103120 
733.782 121263120 121412296 121564176 121731968 121921232 122128360 
736.674 122342528 122553416 122756192 122955096 123158896 123374320 
739.567 123600688 123828272 124042568 124233376 124399432 124551112 
742.460 124703640 124871368 125059184 125261320 125465136 125659184 
745.352 125839144 126009760 126179904 126355200 126533376 126702920 
748.245 126849424 126963528 127047552 127115968 127189544 127284584 
751.138 127405864 127544328 127682936 127805400 127904936 127986432 
754.031 128062832 128145952 128239024 128333760 128415656 128470928 
756.923 128494712 128493144 128480584 128471824 128475608 128491552 
759.816 128513112 128534168 128552568 128572656 128600464 128638208 
762.709 128680352 128715288 128729912 128717528 128683432 128643248 
765.601 128616992 128619136 128654016 128714128 128786560 128859000 
768.494 128926752 128992840 129065392 129151496 129256648 129386824 
771.387 129553872 129777936 130085544 130495056 131000992 131558120 
774.279 132084488 132466536 132586256 132359784 131749840 130776168 
777.172 129497216 127986968 126304416 124474712 122490944 120325448 
780.065 117950440 115351384 112538752 109544160 106418448 103218352 
782.958 100004000 96837584 93774616 90865016 88149288 85650112 83374752 
786.332 81314776 79452408 77766544 76238784 74858544 73621664 72527592 
789.707 71576552 70766000 70091048 69545640 69124800 68826448 68649920 
793.082 68594344 68654184 68817248 69061600 69357192 69666640 69944080 
796.457 70142368 70210480 70097432 69762464 69176976 68333976 67250424 
799.832 65966716 64541840 63038668 61523932 60055584 58676448 57417952 
803.206 56295396 55310592 54454496 53711104 53062124 52490264 51984364 
806.581 51539224 51154928 50832868 50570792 50358768 50179312 50007224 
809.956 49815172 49580632 49287432 48929296 48508208 48031568 47509576 
813.331 46952732 46372744 45781860 45192848 44619504 44073500 43563016 
816.706 43091920 42660072 42264484 41902316 41572056 41273824 41008748 
820.081 40777536 40578824 40409876 40266984 40147800 40052008 39981960 
823.455 39941348 39934408 39963144 40027376 40124176 40248700 40393224 
826.830 40547324 40697328 40824964 40909128 40929628 40869156 40720216 
830.205 40486320 40182728 39832200 39461020 39094728 38752504 38447148 
833.580 38184916 37966124 37786944 37639928 37515572 37402236 37287692 
836.955 37162176 37019052 36856748 36678968 36493184 36308164 36131760 
840.329 35970360 35827700 35706308 35608076 35534752 35487612 35466792 
843.704 35470604 35495380 35536224 35588908 35650264 35719260 35796288 
847.079 35882112 35977344 36081276 36192512 36309604 36431848 36559500 
850.454 36693280 36833776 36980948 37134348 37294012 37461356 37639784 
853.829 37834264 38050424 38291660 38559572 38852900 39169060 39506092 
857.204 39863800 40244664 40653552 41096224 41578180 42104408 42679560 
860.578 43308404 43996420 44748700 45568040 46451908 47391268 48370148 
863.953 49365824 50354676 51314572 52228080 53086572 53890448 54650532 
867.328 55387936 56135380 56937216 57842588 58906916 60183824 61715280 
870.703 63531236 65640308 68027680 70648592 73427552 76260824 79005640 
874.078 81497144 83563000 85028528 85759256 85675616 84766656 83092536 
877.452 80772552 77971088 74859256 71609480 68378416 65285348 62422892 
880.827 59851504 57599552 55674104 54064088 52747924 51697332 50882484 
884.202 50275728 49850400 49582456 49451068 49436512 49523108 49700208 
887.577 49962724 50311816 50753128 51294472 51942424 52700000 53567480 
890.952 54543152 55626268 56820432 58133368 59579256 61175292 62937968 
894.327 64882188 67014552 69328544 71795632 74356872 76919848 79345752 
897.701 81466680 83103520 84079248 84265632 83601080 82105408 79874776 
901.076 77069312 73893400 70549344 67230728 64100624 61269140 58806484 
904.451 56740568 55066524 53757752 52775312 52079496 51631128 51399264 
907.826 51363088 51509192 51832348 52332016 53010084 53868392 54905080 
911.201 56110980 57466472 58935532 60460944 61970024 63372940 64571596 
914.575 65480552 66031940 66189744 65956460 65371728 64508432 63455188 
917.950 62315216 61186692 60148772 59262856 58560936 58048184 57706256 
921.325 57500780 57390764 57334344 57300848 57274232 57255296 57260016 
924.700 57316200 57459024 57720788 58129316 58701028 59437216 60320588 
928.075 61313476 62361456 63388504 64305828 65024220 65454088 65523708 
931.450 65190472 64444744 63316620 61872052 60211000 58446632 56692388 
934.824 55053736 53607368 52402816 51463900 50791712 50373240 50188464 
938.199 50216064 50433224 50814432 51330940 51943992 52606712 53268688 
941.574 53876308 54382356 54754372 54975132 55047680 54992056 54844136 
944.949 54646664 54442780 54273048 54166396 54140156 54200216 54343032 
948.324 54559156 54836092 55162036 55525384 55914816 56319384 56727464 
951.698 57127500 57510652 57871504 58210156 58531668 58844880 59160212 
955.073 59486532 59831272 60198860 60592236 61013008 61462472 61940640 
958.448 62445884 62975348 63524908 64090060 64668564 65260432 65867760 
961.823 66493428 67139880 67807088 68492816 69193304 69905672 70628984 
965.198 71364952 72116920 72888728 73682904 74500928 75343352 76211536 
968.573 77108440 78038496 79007272 80019008 81076432 82180304 83331112 
971.947 84530952 85784528 87099384 88483960 89946288 91491096 93120696 
975.322 94835688 96636744 98526896 100511128 102595176 104784408 107082624 
978.697 109492008 112016640 114664176 117446264 120378952 123476408 
981.590 126748488 130195080 133805992 137560576 141427120 145365344 
984.482 149317264 153199376 156904128 160287504 163179120 165413312 
987.375 166834544 167334896 166874256 165484976 163272640 160395536 
990.268 157064688 153506928 149941920 146580528 143586560 141074608 
993.160 139112256 137716896 136870992 136534224 136660352 137203696 
996.053 138124864 139393712 140982688 142864752 145013504 147399696 
998.946 149992384 152759920 155660256 158637184 161616720 164496528 
1001.839 167157056 169476352 171336208 172651344 173378592 173523520 
1004.731 173139696 172323184 171209152 169947008 168697904 167621648 
1007.624 166848528 166482944 166592720 167206576 168325760 169931424 
1010.517 171998656 174501024 177416128 180725984 184410640 188447984 
1013.409 192813296 197476064 202401616 207545360 212834944 218162736 
1016.302 223370160 228233568 232499136 235898416 238189904 239222432 
1019.195 238956800 237492304 235043984 231938288 228568752 225320208 
1022.087 222570368 220626224 219687248 219858784 221135680 223426752 
1024.980 226564880 230345072 234553472 238963888 243372048 247591504 
1027.873 251444368 254782768 257488288 259484256 260749168 261315488 
1030.766 261263936 260696704 259728848 258469072 257002560 255396032 
1033.659 253689344 251891440 249978768 247892976 245552688 242858144 
1036.552 239719520 236078448 231916976 227264784 222189312 216785136 
1039.446 211151904 205386960 199585152 193828624 188194016 182752944 
1042.339 177563280 172674432 168127680 163954240 160185424 156854720 
1045.232 153994512 151638624 149813856 148533664 147796960 147586896 
1048.125 147875808 148627472 149804784 151371632 153288784 155516608 
1051.018 158010848 160719552 163592288 166579152 169632720 172711072 
1053.911 175767744 178742752 181562640 184129808 186330112 188052736 
1056.804 189192496 189669744 189442432 188506080 186900976 184706608 
1059.697 182050176 179092672 176013456 173010768 170266176 167931904 
1062.590 166131024 164939200 164393312 164494784 165215152 166497280 
1065.483 168254144 170380320 172742976 175191872 177582784 179773536 
1068.376 181644080 183107184 184098320 184576176 184517600 183911040 
1071.269 182758496 181076656 178899856 176277152 173268608 169948000 
1074.162 166395248 162699840 158969696 155319312 151874192 148764976 
1077.055 146103616 143986208 142481168 141621168 141405968 141797648 
1079.948 142724848 144072688 145686736 147391648 148982800 150265168 
1082.842 151085824 151346512 151034176 150218288 149047152 147712832 
1085.735 146424256 145394144 144796048 144761504 145371632 146645136 
1088.628 148541120 150956016 153743056 156709392 159637056 162322032 
1091.521 164570320 166227744 167193856 167412704 166877712 165623280 
1094.414 163721632 161271696 158383920 155178096 151760640 148217600 
1097.307 144617344 141005792 137415712 133874624 130406024 127032504 
1100.200 123775304 120651000 117673336 114855912 112213216 109766624 
1103.093 107544176 105575840 103893952 102526864 101494816 100812120 
1105.986 100486440 100521104 100916488 101670072 102774728 104215120 
1108.879 105967056 107996064 110254992 112689920 115237488 117822040 
1111.772 120361768 122761240 124913728 126717928 128077016 128915120 
1114.665 129190160 128891496 128041240 126684696 124886912 122723008 
1117.558 120269232 117606008 114806792 111932120 109031888 106138360 
1120.451 103270048 100438256 97651856 94923288 92272608 89724736 87309144 
1123.827 85056576 82993648 81145640 79535288 78182320 77106032 76323536 
1127.202 75846952 75682968 75829872 76276976 77003400 77979376 79167312 
1130.577 80517536 81971208 83461512 84908936 86236904 87376968 88278864 
1133.952 88924360 89330160 89548904 89655280 89740384 89895664 90192984 
1137.328 90681208 91374448 92251592 93255136 94298264 95281552 96093576 
1140.703 96631896 96817040 96590344 95922952 94811704 93273864 91342848 
1144.078 89064544 86498696 83711432 80775504 77767808 74757736 71808808 
1147.453 68976032 66299884 63812920 61538208 59489760 57674544 56092808 
1150.829 54739112 53602980 52671012 51929388 51363720 50961544 50713016 
1154.204 50609136 50642308 50805864 51093124 51498372 52016892 52645540 
1157.579 53382124 54225856 55175052 56227428 57379004 58624036 59955568 
1160.954 61364192 62836788 64356468 65897680 67426536 68903336 70279624 
1164.330 71504936 72531592 73312248 73807576 73986344 73826312 73318448 
1167.705 72467528 71293808 69829000 68113912 66195764 64119132 61927916 
1171.080 59663752 57362968 55060696 52789416 50575856 48443820 46411572 
1174.455 44491412 42691880 41017888 39471072 38051472 36756884 35583800 
1177.831 34527300 33581608 32740742 31998974 31351984 30796468 30330372 
1181.206 29952170 29660388 29452726 29326262 29277348 29302230 29397698 
1184.581 29561068 29790250 30083114 30436694 30846480 31306826 31810012 
1187.956 32347370 32909236 33484712 34062136 34630276 35178000 35697492 
1191.332 36185268 36643816 37081804 37512864 37954880 38425540 38941900 
1194.707 39517956 40163244 40882336 41674564 42533580 43445780 44389444 
1198.082 45336524 46248704 47080780 47784940 48308004 48600400 48621556 
1201.457 48342480 47754312 46870268 45727120 44377884 42887096 41325092 
1204.833 39753400 38225224 36781872 35448924 34241252 33164296 32216884 
1208.208 31393866 30687996 30091318 29595756 29193776 28879202 28647030 
1211.583 28493662 28416716 28414028 28483048 28620344 28821058 29079576 
1214.958 29389046 29741778 30129422 30542046 30967872 31394578 31809122 
1218.333 32198756 32553244 32864024 33124744 33330806 33478770 33566464 
1221.709 33594096 33564672 33485032 33365872 33222132 33071038 32930180 
1225.084 32817316 32747388 32731206 32775722 32881964 33046044 33258472 
1228.459 33506438 33773560 34042064 34296108 34521240 34706356 34844632 
1231.834 34932672 34971528 34966396 34928004 34872280 34818924 34792288 
1235.210 34817560 34918596 35117428 35431776 35874336 36453972 37175496 
1238.585 38039248 39041364 40172948 41418688 42755676 44156536 45587068 
1241.960 47008112 48380408 49661572 50810816 51794268 52585172 53169624 
1245.335 53548740 53738064 53765552 53665736 53479700 53247976 53007460 
1248.711 52792412 52628108 52530312 52502976 52537564 52613596 52700976 
1252.086 52768240 52786312 52734604 52605964 52406440 52153840 51872336 
1255.461 51590380 51334892 51126112 50976708 50887476 50847172 50830260 
1258.836 50799976 50713016 50520948 50181508 49663616 48950768 48044708 
1262.212 46963624 45741032 44417592 43039704 41654908 40303192 39018852 
1265.587 37826636 36740840 35767896 34907324 34154172 33500426 32937042 
1268.962 32455150 32046058 31701892 31415488 31180070 30988974 30836626 
1272.337 30717084 30625734 30558080 30509628 30476216 30453612 30437370 
1275.713 30423794 30410326 30395506 30378732 30359794 30337586 30310264 
1279.088 30274450 30226104 30161280 30076404 29968892 29837876 29682812 
1282.463 29504218 29303790 29084676 28852288 28613974 28379926 28161740 
1285.838 27971896 27823040 27726788 27693448 27732298 27851266 28057388 
1289.214 28357184 28755630 29256364 29860130 30564192 31360104 32232124 
1292.589 33156928 34100088 35019292 35868792 36600448 37174740 37566292 
1295.964 37766632 37786076 37650880 37400284 37076392 36721944 36375964 
1299.339 36067916 35819784 35644512 35546476 35522848 35564452 35658324 
1302.715 35788836 35939908 36097552 36249200 36385332 36498664 36584332 
1306.090 36639596 36664760 36663136 36641508 36608304 36573880 36547352 
1309.465 36536900 36548540 36586352 36653472 36752232 36884704 37052680 
1312.840 37257148 37497912 37774368 38085580 38430896 38810360 39224324 
1316.216 39673272 40157068 40674952 41225984 41809968 42427652 43080980 
1319.591 43771308 44497908 45255616 46032628 46811140 47565728 48264900 
1322.966 48875788 49364972 49704960 49881656 49898272 49780536 49572276 
1326.341 49335828 49139064 49041344 49089536 49305692 49686984 50207248 
1329.717 50826424 51499452 52182532 52843264 53461900 54031888 54559532 
1333.092 55060396 55558032 56077052 56640820 57266596 57961464 58720748 
1336.467 59527420 60356760 61175516 61947444 62637180 63209264 63632696 
1339.842 63884920 63952140 63833220 63537256 63082428 62489844 61781584 
1343.218 60979300 60101168 59163936 58182348 57167448 56127308 55066940 
1346.593 53988740 52896104 51795352 50697716 49621712 48592208 47636716 
1349.968 46786048 46070096 45514428 45142552 44972188 45015444 45279924 
1353.343 45766916 46471344 47377892 48461048 49681300 50982444 52299836 
1356.719 53560320 54687208 55614520 56285248 56659580 56720404 56473356 
1360.094 55950096 55201464 54301132 53336420 52395188 51565564 50916384 
1363.469 50487192 50286180 50289604 50451056 50706800 50989820 51235820 
1366.844 51386212 51400604 51258752 50964264 50540192 50024400 49460164 
1370.219 48884648 48328332 47813012 47352284 46957604 46640452 46413340 
1373.595 46289320 46278080 46382000 46593936 46898356 47275212 47702316 
1376.970 48161044 48636384 49116840 49595044 50067568 50534312 50997908 
1380.345 51461816 51926816 52388160 52832224 53235240 53567480 53793156 
1383.720 53876308 53786176 53497692 52998552 52294040 51416940 50428948 
1387.096 49412268 48459860 47646552 47015348 46575384 46306720 46173928 
1390.471 46134020 46146988 46175108 46181632 46133248 45996968 45744716 
1393.846 45360544 44846160 44222492 43521736 42777720 42013844 41239136 
1397.221 40454172 39659912 38866776 38100372 37396924 36792044 36311044 
1400.597 35960752 35731744 35606136 35566216 35599444 35700336 35869008 
1403.972 36108212 36419200 36800160 37246140 37750004 38304612 38903268 
1407.347 39539768 40208352 40902064 41613480 42335852 43063048 43790916 
1410.722 44517584 45241976 45962452 46675244 47373864 48050740 48699316 
1414.098 49315788 49900872 50459352 50997052 51519040 52027464 52522160 
1417.473 53003568 53476032 53950772 54441992 54963404 55518872 56098280 
1420.848 56680836 57240740 57754884 58204056 58578188 58877092 59109492 
1424.223 59290468 59436756 59562916 59675844 59775944 59858500 59916804 
1427.599 59944728 59938676 59898472 59828116 59734692 59627452 59517576 
1430.974 59417112 59337188 59287240 59272884 59294080 59344212 59411988 
1434.349 59483568 59545736 59592748 59631672 59685572 59785908 59960588 
1437.724 60220628 60554296 60931072 61307560 61639432 61881680 61995708 
1441.100 61956920 61753092 61385296 60862372 60197600 59404464 58495460 
1444.475 57484704 56386308 55213392 53980632 52705092 51410860 50136324 
1447.850 48930704 47847784 46935272 46221320 45715264 45412848 45304896 
1451.225 45383276 45640028 46063796 46631044 47302808 48030088 48748392 
1454.601 49384944 49866008 50119480 50101292 49819032 49350048 48810528 
1457.976 48304116 47889920 47576672 47347076 47179980 47062060 46988324 
1461.351 46956348 46959860 46984188 47006452 47003496 46958196 46870600 
1464.726 46759000 46654876 46588516 46575568 46614332 46687784 46771360 
1468.102 46836532 46853988 46792984 46613596 46267832 45701056 44862692 
1471.477 43729132 42326868 40742744 39097192 37505136 36038036 34714472 
1474.852 33518784 32427982 31430732 30533160 29752636 29103030 28586830 
1478.227 28191650 27896526 27680028 27528838 27440098 27418920 27472394 
1481.603 27604108 27811596 28087750 28424710 28817058 29263522 29764524 
1484.978 30318080 30917384 31546768 32180666 32787730 33329054 33760952 
1488.353 34040240 34124708 33982908 33605628 33012330 32250826 31383254 
1491.728 30471382 29558336 28662178 27782488 26906198 26019852 25119338 
1495.104 24216518 23339380 22527204 21815762 21227802 20767896 20427794 
1498.479 20194020 20054642 20001382 20027438 20124674 20282264 20486456 
1501.854 20722262 20976002 21232498 21474908 21682202 21823010 21857748 
1505.229 21742916 21445212 20962996 20339102 19649294 18964490 18323586 
1508.604 17730526 17169990 16624702 16086083 15555959 15046240 14572546 
1511.980 14147152 13776348 13458933 13188302 12955798 12753104 12573457 
1515.355 12411273 12263191 12128346 12009756 11913061 11844343 11805970 
1518.730 11794496 11799944 11806924 11801681 11777235 11740400 11709900 
1522.105 11708573 11750613 11835116 11949060 12074208 12195917 12305763 
1525.481 12405647 12504259 12613705 12742491 12892853 13061500 13243604 
1528.856 13436308 13640177 13858371 14093858 14346732 14613905 14890193 
1532.231 15170637 15454283 15745502 16052214 16379926 16728720 17090992 
1535.606 17455600 17808952 18138580 18435892 18693140 18906102 19072496 
1538.982 19193204 19270472 19308750 19315642 19300124 19270992 19234590 
1542.357 19191576 19137936 19065850 18969232 18846442 18704798 18557010 
1545.732 18417880 18297284 18195206 18103862 18011154 17907624 17790690 
1549.107 17668130 17554400 17466086 17412520 17392932 17397966 17415384 
1552.483 17436320 17458808 17488576 17535942 17610122 17713236 17838572 
1555.858 17971852 18095260 18188226 18231972 18213588 18136506 18027664 
1559.233 17930516 17887908 17918882 18016576 18161000 18330532 18507458 
1562.608 18678440 18836372 18980136 19113940 19246124 19385380 19537296 
1565.984 19701540 19871640 20037120 20188154 20317298 20422688 20509172 
1569.359 20587580 20670726 20768766 20886190 21022008 21171020 21325722 
1572.734 21477030 21615158 21727484 21801060 21824960 21795590 21722084 
1576.109 21626338 21537436 21476682 21450922 21451512 21462408 21465822 
1579.485 21447684 21401422 21326800 21228704 21113588 20987094 20851112 
1582.860 20704954 20546030 20372820 20184856 19983062 19768046 19539100 
1586.235 19294546 19033652 18758626 18476894 18199768 17941084 17714582 
1589.610 17529354 17389930 17296412 17245556 17231730 17246556 17278826 
1592.986 17312858 17329548 17310202 17238728 17105604 16910920 16663194 
1596.361 16377002 16067687 15750140 15435297 15130802 14843562 14579947 
1599.736 14345464 14144277 13976988 13840345 13728605 13636382 13560588 
1603.111 13501861 13463102 13447552 13456335 13486241 13531087 13582706 
1606.487 13633578 13677071 13707846 13721115 13710856 13671018 13596585 
1609.862 13486241 13344251 13181061 13011958 12852102 12712808 12598356 
1613.237 12505452 12425423 12346941 12259919 12158399 12043003 11921474 
1616.612 11807843 11717184 11660749 11642745 11660613 11707279 11772538 
1619.988 11845194 11914560 11970960 12008802 12028218 12035304 12040482 
1623.363 12054108 12082794 12126642 12181434 12240766 12300343 12358361 
1626.738 12415978 12475342 12538362 12605758 12677155 12752421 12832580 
1630.113 12919682 13016294 13122933 13237796 13355287 13466862 13563629 
1633.489 13636279 13678781 13690270 13677926 13655256 13639186 13644622 
1636.864 13677926 13737872 13817427 13907430 13998684 14082974 14155471 
1640.239 14214764 14263999 14309062 14357041 14412593 14475896 14542086 
1643.614 14601946 14644645 14659930 14642075 14592454 14521803 14447258 
1646.990 14388412 14361492 14374233 14426089 14509504 14613803 14724537 
1650.365 14823230 14888478 14894034 14817162 14652835 14431570 14216956 
1653.740 14069283 14014253 14035676 14099813 14173203 14233664 14271018 
1657.115 14283962 14277559 14258384 14231849 14198981 14156977 14100327 
1660.490 14023801 13924604 13804018 13667053 13522267 13379616 13247839 
1663.866 13133110 13037975 12960987 12897290 12838791 12775249 12695067 
1667.241 12587782 12446904 12273007 12074514 11866851 11668101 11492849 
1670.616 11348176 11233334 11142150 11064649 10989199 10904148 10798290 
1673.991 10663491 10498726 10313223 10125799 9957271 9823173 9726151 9658624 
1677.849 9606386 9555543 9497457 9430643 9360760 9296235 9243295 9200278 
1681.706 9156385 9092466 8988064 8829816 8623292 8397003 8192911 8043899 
1685.564 7957802 7921188 7910930 7906375 7893249 7864907 7820947 7765016 
1689.421 7702380 7638338 7578047 7526362 7486514 7459951 7444480 7433492 
1693.279 7415695 7378217 7310145 7209438 7087098 6967519 6877596 6831784 
1697.136 6826499 6842016 6852888 6833029 6764672 6646292 6498448 6358252 
1700.993 6258572 6213228 6212858 6237866 6266909 6284927 6283112 6259110 
1704.851 6216387 6162545 6106928 6057131 6017150 5987653 5966724 5951070 
1708.708 5937668 5924199 5909722 5894574 5880468 5869149 5862231 5860048 
1712.566 5861928 5865992 5870325 5872676 5871198 5863474 5846278 5815417 
1716.423 5767768 5703104 5626835 5550177 5486786 5446622 5433067 5441724 
1720.281 5463902 5489168 5508832 5517625 5514470 5501987 5484504 5466653 
1724.138 5450951 5437899 5426558 5415587 5404516 5393311 5382308 5370969 
1727.995 5358691 5344770 5329943 5316526 5308007 5306933 5312635 5320015 
1731.853 5319277 5297945 5246395 5162964 5060105 4960555 4889376 4859520 
1735.710 4868266 4901976 4943865 4979894 5000406 5001780 4985860 4959047 
1739.568 4929254 4902780 4882976 4869673 4861129 4855466 4851847 4850272 
1743.425 4850809 4853389 4857242 4861564 4865619 4869472 4873158 4876844 
1747.282 4880027 4881233 4878419 4869338 4852651 4828058 4797437 4764271 
1751.140 4733218 4709569 4696875 4696540 4707258 4725480 4745344 4760117 
1754.997 4764204 4754355 4731141 4699487 4667602 4643321 4630729 4628720 
1758.855 4631700 4632068 4622490 4599116 4562483 4518219 4474663 4439715 
1762.712 4418526 4411631 4416350 4427965 4441757 4453741 4460837 4461608 
1766.570 4455816 4445372 4433890 4425823 4424752 4431781 4444066 4455582 
1770.427 4459063 4448284 4421070 4381741 4339838 4307243 4291214 4293590 
1774.284 4309853 4333045 4356371 4376453 4392585 4406375 4419229 4431513 
1778.142 4441455 4446142 4443531 4433723 4419530 4406174 4398074 4396936 
1781.999 4401020 4405639 4405505 4397137 4380134 4357208 4333781 4314739 
1785.857 4303461 4300784 4305636 4316345 4331003 4348105 4365441 4379666 
1789.714 4386895 4382645 4364470 4333045 4293757 4255209 4225999 4211746 
1793.572 4212783 4224895 4241624 4257652 4269564 4276189 4278330 4276791 
1797.429 4271973 4263373 4249989 4231453 4209003 4184914 4162701 4145071 
1801.286 4133430 4127209 4125001 4124533 4124633 4124566 4124365 4123763 
1805.144 4122626 4120351 4117073 4113327 4110584 4110918 4115200 4123563 
1809.001 4134233 4144771 4152699 4156245 4156010 4153401 4150457 4148651 
1812.859 4148049 4148082 4147848 4146610 4145139 4144804 4147313 4153803 
1816.716 4164307 4177822 4192944 4208133 4222519 4235903 4247747 4257752 
1820.573 4264812 4267824 4266017 4259090 4247981 4233996 4219073 4205088 
1824.431 4193947 4186988 4185483 4189531 4198598 4210441 4221549 4227739 
1828.288 4225095 4211579 4188829 4161898 4137679 4123028 4121321 4131624 
1832.146 4149755 4170295 4188862 4203114 4213520 4221917 4230516 4240554 
1836.003 4251160 4260696 4267556 4271738 4275319 4281576 4294326 4315776 
1839.861 4345494 4380636 4416618 4448853 4472789 4485878 4487854 4481124 
1843.718 4470646 4462779 4463917 4478480 4506803 4546578 4592485 4638800 
1847.575 4679458 4711110 4732582 4745913 4754221 4760954 4768224 4775962 
1851.433 4781992 4783634 4778709 4766549 4747789 4724073 4696842 4667368 
1855.290 4636154 4603737 4571222 4540418 4512930 4489762 4470278 4452770 
1859.148 4434560 4414174 4391548 4368721 4348841 4334718 4327857 4327757 
1863.005 4331873 4338600 4346599 4356137 4368085 4382711 4398443 4411664 
1866.863 4417354 4411396 4392250 4362496 4328460 4297773 4276959 4268693 
1870.720 4271839 4282580 4296434 4310054 4321465 4329899 4335555 4338600 
1874.577 4339269 4337964 4335922 4334618 4335487 4339503 4345862 4352991 
1878.435 4358446 4360756 4359985 4357944 4357308 4359818 4366077 4373976 
1882.292 4380335 4382410 4379230 4372269 4365207 4361827 4364504 4373306 
1886.150 4384652 4394359 4398141 4393455 4379799 4359216 4334618 4309451 
1890.007 4286227 4266853 4252599 4244234 4241992 4245673 4254406 4266017 
1893.865 4278665 4290343 4300617 4310054 4319692 4330568 4342750 4355333 
1897.722 4367115 4377222 4386025 4394962 4405605 4419195 4435765 4453975 
1901.579 4471918 4487720 4500843 4510820 4518287 4522907 4523744 4519056 
1905.437 4508309 4491837 4472789 4455113 4442995 4439280 4444066 4454477 
1909.294 4467366 4479116 4488925 4497127 4505664 4515976 4527728 4539145 
1913.152 4547047 4548855 4543029 4529570 4509314 4483133 4451632 4415480 
1917.009 4376352 4337830 4305904 4286429 4283216 4295363 4317416 4340340 
1920.866 4355166 4355468 4340240 4313467 4283183 4256815 4239851 4232791 
1924.724 4232657 4235233 4237341 4238245 4239416 4243431 4251127 4261801 
1928.581 4272977 4281576 4285726 4285425 4281844 4276390 4269396 4259893 
1932.439 4246509 4228843 4208099 4187490 4170763 4160259 4155776 4154739 
1936.296 4152866 4147714 4138448 4127877 4119281 4115434 4115769 4116872 
1940.154 4113360 4100884 4078608 4050346 4023525 4005767 4002356 4013760 
1944.011 4036233 4063858 4091485 4116070 4137478 4157114 4175982 4194483 
1947.868 4211679 4226668 4237910 4245940 4251127 4254305 4254774 4252264 
1951.726 4245505 4235769 4224828 4215861 4211880 4213085 4216664 4217936 
1955.583 4211713 4195319 4169659 4139184 4110417 4088207 4074193 4065765 
1959.441 4058105 4046433 4028976 4007372 3985970 3968984 3958284 3953201 
1963.298 3949723 3945210 3937787 3927823 3917358 3907528 3896930 3882521 
1967.156 3860657 3829067 3789290 3746242 3705904 3674225 3653274 3641880 
1971.013 3636868 3635064 3634529 3636167 3642482 3654644 3673657 3698385 
1974.870 3727627 3762719 3806304 3862028 3931100 4010817 4092020 4163102 
1978.728 4213854 4238111 4236739 4217333 4190066 4165009 4148350 4141927 
1982.585 4143533 4148751 4153803 4155074 4151059 4140656 4124566 4104362 
1986.443 4083592 4067805 4063022 4074226 4101653 4141024 4183208 4218337 
1990.300 4238646 4242795 4234866 4223791 4219642 4227271 4246710 4272073 
1994.157 4296601 4314404 4324310 4329397 4334852 4344022 4358279 4373574 
1998.015 4385858 4390577 4386493 4375515 4361726 4348272 4336525 4324912 
2001.872 4310455 4291916 4270634 4251193 4240252 4243297 4263206 4297639 
2005.730 4341578 4387631 4429505 4462277 4483903 4492574 4488322 4470278 
2009.587 4441054 4404367 4366077 4333011 4311861 4305101 4312263 4328761 
2013.445 4349477 4369892 4387631 4401823 4412835 4419931 4420936 4413304 
2017.302 4395564 4368721 4337730 4309987 4292084 4289306 4301822 4326720 
2021.159 4359049 4393957 4427363 4457323 4482162 4499136 4506066 4501078 
2025.017 4484071 4457323 4426493 4397840 4376453 4364236 4360019 4360454 
2028.874 4362061 4364102 4367583 4375649 4389238 4407781 4426894 4441522 
2032.732 4448853 4448954 4446744 4448686 4460168 4482932 4514537 4549090 
2036.589 4581000 4607287 4628652 4648847 4671554 4698784 4729433 4759815 
2040.447 4784940 4802194 4811038 4814590 4815260 4816667 4818945 4822664 
2044.304 4827154 4834022 4846721 4869941 4907002 4959449 5024104 5094433 
2048.161 5161824 5217354 5254243 5269604 5264103 5242237 5210881 5178556 
2052.019 5153307 5141841 5147775 5170475 5204778 5242405 5273930 5293316 
2055.876 5298313 5291639 5279598 5269402 5265076 5267793 5274802 5282013 
2059.734 5286876 5289090 5291840 5299353 5315252 5340241 5372042 5406026 
2063.591 5437496 5463432 5483364 5498296 5509806 5518430 5523195 5522725 
2067.448 5516249 5504470 5489772 5475411 5463768 5455916 5450783 5446723 
2071.306 5441892 5436859 5433269 5434074 5440650 5452763 5468029 5482357 
2075.163 5492793 5497759 5498531 5497893 5499135 5503430 5510645 5519068 
2079.021 5526685 5532692 5537994 5544673 5554775 5569475 5587934 5608105 
2082.878 5627137 5642947 5654562 5661846 5665404 5665035 5660402 5650231 
2086.736 5634052 5612335 5587665 5562796 5541485 5525309 5515410 5510879 
2090.593 5510074 5511584 5514839 5519403 5525410 5532591 5540511 5548029 
2094.450 5554707 5560346 5565816 5572193 5580214 5589847 5600520 5610724 
2098.308 5619685 5627137 5633347 5639120 5645096 5650869 5656173 5660839 
2102.165 5664733 5668660 5674401 5682626 5693771 5706898 5720159 5731876 
2106.023 5741277 5748362 5754338 5760415 5766627 5772201 5775256 5773913 
2109.880 5767366 5757158 5745474 5735939 5730634 5730029 5732615 5735401 
2113.738 5735301 5729996 5719017 5703406 5685747 5669298 5657213 5652379 
2117.595 5657146 5672320 5696658 5727377 5759005 5785296 5800675 5801951 
2121.452 5789661 5768373 5744937 5726303 5716902 5717876 5726336 5737684 
2125.310 5746548 5749671 5746011 5736106 5721267 5701727 5676918 5645062 
2129.167 5604883 5556889 5503195 5447830 5395391 5349365 5311394 5281644 
2133.025 5258804 5242237 5230533 5223256 5218896 5215140 5209339 5198206 
2136.882 5180367 5157063 5131011 5106838 5088667 5078543 5076096 5078241 
2140.740 5080957 5081426 5077705 5070296 5060776 5051356 5042808 5036171 
2144.597 5031110 5028025 5026350 5026350 5026182 5024573 5018741 5006070 
2148.454 4984686 4954523 4916284 4872756 4826819 4780652 4735998 4693358 
2152.312 4651827 4610133 4565731 4515139 4456419 4388970 4315375 4244334 
2156.169 4190368 4168522 4194449 4275152 4406007 4569983 4741324 4893196 
2160.027 5005065 5068452 5085013 5065737 5024305 4972956 4920909 4874197 
2163.884 4835563 4807387 4791674 4788793 4798308 4816667 4839283 4860023 
2167.741 4875202 4881837 4879960 4871114 4857845 4842533 4827422 4814288 
2171.599 4805142 4801725 4805678 4817337 4835631 4858180 4881434 4902277 
2175.456 4918329 4927846 4930460 4925333 4912029 4889409 4857677 4818577 
2179.314 4775728 4733519 4696741 4667368 4645833 4629690 4616094 4603971 
2183.171 4595031 4593055 4603034 4627648 4666664 4715833 4768291 4816433 
2187.029 4856036 4885925 4908376 4927109 4946010 4966219 4987569 5007981 
2190.886 5026215 5041434 5054977 5067313 5080186 5093763 5106805 5117835 
2194.743 5126149 5131212 5134598 5138555 5145394 5156761 5174197 5196596 
2198.601 5223591 5252935 5282382 5308711 5329105 5341147 5344937 5342992 
2202.458 5339168 5338698 5346413 5363588 5389353 5419983 5450011 5475344 
2206.316 5493027 5503329 5508497 5511584 5514940 5519504 5525242 5530679 
2210.173 5534471 5535343 5532424 5525612 5514269 5499101 5481384 5463835 
2214.031 5449441 5441355 5441321 5448635 5460647 5473129 5481518 5483498 
2217.888 5478532 5468767 5457661 5447964 5441489 5438100 5436255 5434342 
2221.745 5431155 5426424 5420654 5414749 5408274 5401329 5393143 5384354 
2225.603 5375397 5368151 5363287 5361844 5362884 5364427 5365098 5364092 
2229.460 5361777 5360033 5360838 5365736 5374625 5386233 5398612 5410220 
2233.318 5419916 5428169 5435550 5442361 5448300 5452628 5454507 5454440 
2237.175 5454105 5456453 5464036 5479606 5504034 5536384 5575046 5618209 
2241.032 5663424 5709147 5752995 5792347 5824249 5845506 5854809 5853029 
2244.890 5843693 5831570 5822838 5821730 5830025 5846648 5868679 5892357 
2248.747 5914290 5932461 5945562 5953691 5957218 5956143 5951205 5943714 
2252.605 5935518 5929338 5927557 5931252 5940120 5952683 5966220 5978751 
2256.462 5988930 5996858 6003375 6009221 6014865 6019501 6022760 6023465 
2260.320 6022021 6018594 6014227 6010128 6006601 6003745 6001191 5999008 
2264.177 5997429 5997294 5999210 6003341 6008448 6012916 6014764 6012177 
2268.034 6004786 5993196 5978784 5962929 5946973 5931622 5917447 5904852 
2271.892 5894742 5888427 5887286 5891887 5902030 5916439 5933503 5950903 
2275.749 5966993 5980934 5992625 6002267 6010934 6019535 6029648 6042616 
2279.607 6059785 6082298 6109785 6140969 6173535 6204388 6230975 6251177 
2283.464 6264388 6270842 6271716 6268489 6262304 6254303 6245597 6236656 
2287.322 6228824 6222606 6218236 6215749 6214405 6213699 6213396 6214472 
2291.179 6217967 6225497 6238101 6255513 6276523 6298979 6320832 6340534 
2295.036 6357882 6373215 6388043 6403309 6419147 6435121 6450153 6463100 
2298.894 6473358 6480891 6485802 6488392 6488661 6486239 6480858 6472450 
2302.751 6461890 6450556 6440098 6432127 6427050 6424965 6424427 6424192 
2306.609 6422880 6419786 6414877 6408857 6402166 6395642 6389556 6384042 
2310.466 6379267 6375568 6373551 6373517 6375837 6380646 6387236 6394869 
2314.323 6402367 6408689 6412926 6414507 6413666 6411043 6407479 6404520 
2318.181 6403107 6404452 6409127 6417129 6427958 6440535 6453247 6463941 
2322.038 6470230 6469255 6458628 6436466 6402502 6358320 6307250 6254303 
2325.896 6204523 6162578 6131157 6110994 6100342 6096142 6095033 6094462 
2329.753 6093252 6091874 6091673 6094428 6101047 6111700 6125545 6141474 
2333.611 6158042 6174005 6188961 6202809 6215614 6227917 6240723 6254202 
2337.468 6269161 6285667 6302610 6318680 6332061 6341172 6345677 6346417 
2341.325 6344971 6344131 6346081 6351797 6361547 6374627 6389993 6407882 
2345.183 6429437 6456812 6492192 6537364 6592027 6654266 6720823 6787658 
2349.040 6850566 6906076 6951695 6985499 7007016 7016478 7014828 7003682 
2352.898 6984961 6961122 6934457 6907625 6882511 6861001 6844070 6832255 
2356.755 6825287 6822662 6823504 6827105 6832693 6840030 6849287 6860765 
2360.613 6875105 6892610 6913314 6936679 6962166 6988328 7014559 7039680 
2364.470 7063489 7085818 7107002 7127582 7148196 7169485 7191920 7215266 
2368.327 7239152 7262871 7285581 7306337 7325410 7342865 7360086 7378150 
2372.185 7398236 7420650 7445424 7471514 7498482 7525856 7554142 7584116 
2376.042 7617262 7654693 7696849 7743293 7793217 7845069 7898041 7951221 
2379.900 8004172 8057130 8110095 8162761 8215062 8266391 8316274 8364168 
2383.757 8409704 8452170 8491194 8525896 8555734 8580573 8600377 8615417 
2387.615 8626333 8633770 8637656 8638299 8635291 8628565 8618561 8606326 
2391.472 8592875 8579627 8567697 8557626 8549651 8543501 8538871 8535425 
2395.329 8532688 8530390 8528125 8525490 8522145 8518259 8514407 8511400 
2399.187 8510622 8513427 8520590 8532992 8550394 8572699 8599330 8629714 
2403.044 8663176 8698703 8735518 8772606 8809427 8845844 8882435 8920043 
2406.902 8959346 9001121 9045100 9090943 9137638 9185082 9233175 9282559 
2410.759 9334353 9389098 9446796 9506466 9566415 9624747 9679800 9730488 
2414.616 9776676 9818157 9854931 9886894 9913471 9934489 9949948 9960458 
2418.474 9967272 9971917 9975511 9978901 9982054 9984563 9985275 9983512 
2422.331 9978596 9970052 9958220 9943914 9928285 9913200 9900928 9893776 
2426.189 9893470 9901064 9916319 9937845 9963407 9990904 10018740 10046477 
2430.046 10074521 10104026 10136584 10172741 10212767 10255817 10300499 
2433.421 10345662 10390557 10434914 10479479 10526154 10575923 10631029 
2436.797 10692492 10760791 10835418 10915156 10998137 11082799 11167715 
2440.172 11252479 11337768 11424470 11514046 11607623 11705883 11808728 
2443.547 11915718 12026311 12139897 12256204 12375134 12496450 12619914 
2446.922 12745426 12872580 13001237 13131300 13262290 13393250 13523020 
2450.298 13649887 13772209 13889092 14000599 14107686 14211580 14313513 
2453.673 14413244 14509606 14599581 14680048 14747914 14801323 14839859 
2457.048 14864305 14876272 14877163 14867871 14848430 14818122 14776058 
2460.423 14721109 14652698 14570662 14475143 14366732 14246503 14116003 
2463.799 13977228 13832238 13683602 13533240 13383067 13234072 13087008 
2467.174 12942007 12800023 12661838 12528779 12402340 12284324 12175641 
2470.549 12077308 11989932 11913436 11847782 11792318 11745813 11706701 
2473.924 11673173 11643255 11615689 11589587 11564847 11541913 11521123 
2477.300 11502648 11486216 11471144 11456549 11442295 11428245 11414945 
2480.675 11402903 11392767 11384433 11377460 11371270 11365250 11359127 
2484.050 11353107 11347394 11342190 11337292 11332021 11325627 11317397 
2487.425 11307398 11296107 11284953 11275500 11269446 11267780 11270841 
2490.801 11278050 11288524 11300392 11312193 11322770 11331000 11336748 
2494.176 11340455 11342938 11345353 11348686 11353856 11361236 11371031 
2497.551 11383072 11397155 11412768 11429402 11446241 11462638 11477166 
2500.926 11489209 11498157 11504009 11507650 11510202 11513196 11517755 
2504.302 11524764 11534325 11546235 11560186 11575600 11592105 11609086 
2507.677 11625762 11641146 11654248 11664289 11670824 11674160 11675726 
2511.052 11676814 11679129 11683656 11690668 11699484 11708844 11717320 
2514.427 11723073 11725048 11722427 11715278 11704079 11690396 11675623 
2517.802 11662179 11651492 11644889 11642506 11643528 11646318 11649041 
2521.178 11650062 11648531 11644481 11638763 11632535 11627225 11623652 
2524.553 11622325 11623448 11626953 11632195 11639069 11646795 11654419 
2527.928 11661430 11667420 11672254 11676406 11681138 11687400 11696046 
2531.303 11707347 11720827 11735464 11750239 11764673 11778086 11791126 
2534.679 11804200 11817683 11831710 11845739 11859326 11871958 11883536 
2538.054 11894467 11905638 11917795 11931554 11947357 11964761 11983392 
2541.429 12002739 12022053 12040925 12058946 12075843 12091652 12106029 
2544.804 12119283 12131753 12143951 12156048 12168212 12179832 12190226 
2548.180 12198711 12204709 12208185 12209957 12210946 12212547 12215682 
2551.555 12221271 12229144 12238924 12250104 12262237 12274711 12287527 
2554.930 12300309 12312785 12324238 12333919 12341009 12345066 12346021 
2558.305 12344453 12340839 12336373 12331669 12326931 12322056 12316500 
2561.681 12309479 12300378 12289095 12275870 12261180 12246048 12230881 
2565.056 12216159 12201880 12187840 12173562 12159046 12144224 12129640 
2568.431 12115910 12104325 12095638 12091038 12090493 12094446 12101872 
2571.806 12111548 12121974 12131310 12138227 12142044 12143100 12142452 
2575.182 12141771 12143133 12148040 12157070 12170155 12186273 12204129 
2578.557 12222259 12239675 12256068 12271984 12287731 12304263 12322329 
2581.932 12341759 12362588 12384510 12406568 12428116 12448574 12467226 
2585.307 12484241 12499962 12515171 12531064 12548900 12569637 12593615 
2588.683 12620801 12650717 12682308 12714855 12747610 12779890 12811489 
2592.058 12841521 12869576 12894969 12916951 12935624 12951327 12965186 
2595.433 12978739 12993522 13010797 13031760 13056584 13085062 13116580 
2598.808 13150459 13185979 13222459 13259249 13296008 13332326 13367964 
2602.184 13403024 13437061 13470450 13502751 13534129 13564382 13593611 
2605.559 13622262 13651016 13680628 13712156 13746559 13784317 13825601 
2608.934 13869900 13916496 13964499 14012679 14060249 14106180 14149891 
2612.309 14190800 14228562 14262938 14293789 14321185 14345190 14365911 
2615.685 14383686 14398414 14410812 14421430 14430576 14439174 14448080 
2619.060 14457535 14468325 14480829 14495183 14511594 14530197 14550754 
2622.435 14573162 14596909 14621479 14646290 14671068 14695643 14720389 
2625.810 14746097 14773761 14804340 14838350 14875929 14916905 14960561 
2629.186 15005799 15051728 15097524 15142948 15187999 15232951 15278218 
2632.561 15324485 15372129 15421186 15471863 15523713 15576805 15630661 
2635.936 15685208 15739970 15794808 15849274 15903024 15955923 16007831 
2639.311 16059125 16110186 16161734 16213942 16267017 16320510 16373837 
2642.687 16426207 16477278 16526563 16574476 16621467 16668186 16715117 
2646.062 16762432 16810234 16858422 16906890 16955948 17005804 17056942 
2649.437 17109396 17163578 17218630 17274344 17329962 17384964 17439424 
2652.812 17493338 17547086 17601152 17655844 17711200 17767080 17823142 
2656.188 17879068 17934626 17989810 18044862 18100234 18156440 18213554 
2659.563 18271676 18330360 18388566 18445398 18499852 18551234 18599512 
2662.938 18645094 18688816 18731954 18775198 18819520 18865094 18912158 
2666.313 18960510 19009628 19059408 19108954 19157916 19205360 19250798 
2669.688 19293714 19334314 19372838 19410256 19447264 19484758 19522984 
2673.064 19562252 19601974 19641736 19681154 19719676 19757054 19793048 
2676.439 19827452 19859812 19890056 19918154 19944414 19969602 19994616 
2679.814 20020186 20047496 20076782 20108742 20143484 20181732 20223908 
2683.189 20270774 20322888 20380216 20442484 20509000 20578790 20651164 
2686.565 20725738 20802482 20881568 20963170 21047224 21133416 21221294 
2689.940 21310062 21399578 21489912 21581206 21673982 21768486 21864892 
2693.315 21962780 22061914 22161766 22262654 22364260 22467324 22572224 
2696.690 22679352 22788740 22900006 23012944 23126782 23241108 23355672 
2700.066 23470440 23585766 23702206 23820042 23939346 24060012 24181204 
2703.441 24301588 24419902 24534778 24645126 24750380 24850326 24945418 
2706.816 25035720 25121478 25202480 25278190 25348226 25411700 25468336 
2710.191 25518124 25560786 25596704 25625876 25648196 25663660 25671922 
2713.567 25673046 25666930 25653678 25633784 25607844 25576496 25540334 
2716.942 25500170 25456742 25410506 25361644 25310502 25256978 25200934 
2720.317 25142650 25082372 25020944 24959280 24898324 24839378 24783142 
2723.692 24730212 24680652 24634852 24592770 24554378 24520052 24490220 
2727.068 24465506 24446086 24432276 24423900 24421164 24423688 24431400 
2730.443 24444298 24462210 24485102 24512656 24543964 24578536 24614862 
2733.818 24652420 24690646 24729334 24768796 24809382 24851238 24894360 
2737.193 24938292 24982196 25025366 25067206 25107856 25147354 25186290 
2740.569 25224916 25263054 25300492 25336458 25370424 25402498 25433168 
2743.944 25463276 25494020 25526032 25559732 25594596 25629706 25664540 
2747.319 25698638 25731896 25765260 25798874 25833264 25868184 25903176 
2750.694 25937154 25969654 26000680 26030934 26061752 26094686 26130752 
2754.070 26170906 26215214 26263188 26314514 26368626 26425174 26484510 
2757.445 26546674 26611876 26680012 26750802 26823542 26897070 26970292 
2760.820 27041550 27109436 27172572 27229648 27279920 27322862 27358290 
2764.195 27386628 27408086 27423086 27431944 27435262 27433038 27425732 
2767.571 27413592 27396792 27375934 27351550 27324274 27294776 27264152 
2770.946 27233352 27203578 27175570 27150278 27127848 27108592 27092190 
2774.321 27078542 27067610 27059288 27053470 27050366 27049486 27050332 
2777.696 27051954 27053082 27052270 27048286 27039858 27026354 27007312 
2781.072 26983018 26954142 26921568 26886458 26849588 26812050 26774588 
2784.447 26737798 26702140 26668420 26637488 26610008 26586864 26568230 
2787.822 26554106 26543892 26536952 26532338 26529308 26527654 26527406 
2791.197 26528992 26532936 26539384 26548646 26560340 26573866 26588696 
2794.573 26603914 26618710 26632448 26644322 26653798 26660280 26662994 
2797.948 26661548 26655490 26645060 26630370 26612122 26591302 26568934 
2801.323 26545652 26522194 26498458 26474404 26449330 26422604 26393658 
2804.698 26362216 26327926 26290928 26251538 26210430 26168230 26126074 
2808.073 26085010 26046484 26011972 25982810 25959734 25943554 25933952 
2811.449 25930470 25932652 25939720 25951116 25966698 25986152 26009474 
2814.824 26036740 26067664 26102146 26140254 26181922 26227182 26276424 
2818.199 26329968 26388554 26452710 26522900 26600074 26684662 26776948 
2821.574 26876694 26983442 27096458 27214724 27337364 27463852 27593798 
2824.950 27727318 27864268 28004620 28148024 28293382 28439392 28584882 
2828.325 28728018 28868188 29004330 29136406 29264374 29388940 29510600 
2831.700 29630272 29748628 29866198 29983590 30101510 30220810 30343058 
2835.075 30470032 30603620 30745998 30898846 31063460 31240952 31431944 
2838.451 31637636 31859926 32102138 32368292 32663290 32992810 33362470 
2841.826 33777604 34244152 34767556 35354848 36013304 36749924 37570812 
2845.201 38478324 39469768 40533352 41647652 42781776 43892520 44930296 
2848.576 45843316 46579184 47095216 47362296 47368172 47119556 46641116 
2851.952 45972288 45158140 44248284 43290724 42324604 41383916 40494436 
2855.327 39673020 38931500 38275372 37705156 37217044 36804016 36456856 
2858.702 36164996 35918460 35708972 35529536 35376164 35245984 35137296 
2862.077 35049284 34981116 34931844 34900928 34887572 34891880 34913856 
2865.453 34954252 35014192 35094904 35197512 35322752 35470388 35639512 
2868.828 35827664 36031344 36245488 36464644 36682680 36893068 37090320 
2872.203 37269532 37426936 37560476 37670248 37758212 37828372 37885996 
2875.578 37937916 37990096 38048504 38117880 38200944 38299184 38413052 
2878.954 38542404 38686108 38843984 39015624 39201256 39400900 39614356 
2882.329 39840812 40078608 40324972 40575548 40825400 41068692 41299584 
2885.704 41513064 41705604 41875492 42023732 42153512 42270216 42380452 
2889.079 42491556 42610692 42744632 42899644 43082184 43299364 43560052 
2892.455 43875808 44260208 44730228 45303976 45999216 46832584 47814492 
2895.830 48946468 50216844 51597728 53043324 54486988 55852600 57055208 
2899.205 58011640 58657296 58949460 58876220 58456868 57738764 56789768 
2902.580 55681752 54491460 53285956 52118236 51031076 50054256 49206340 
2905.956 48499652 47939872 47528724 47265384 47148288 47175544 47346704 
2909.331 47661936 48121548 48724260 49464844 50332168 51306964 52364052 
2912.706 53468872 54581096 55659300 56659092 57539856 58268696 58820976 
2916.081 59184404 59358876 59356448 59197616 58907332 58513240 58039852 
2919.457 57507664 56932876 56326212 55695156 55044936 54379124 53701656 
2922.832 53017232 52331156 51650384 50982856 50336740 49719976 49139548 
2926.207 48600400 48105964 47657348 47254228 46894816 46576232 46294668 
2929.582 46044452 45818940 45610108 45408396 45204432 44988800 44752484 
2932.958 44488176 44189768 43852492 43473688 43052548 42590444 42090716 
2936.333 41559076 41002812 40429804 39848472 39266864 38692552 38132712 
2939.708 37593968 37082632 36604484 36163984 35764156 35405640 35086644 
2943.083 34803020 34548252 34314648 34093708 33876928 33656644 33427272 
2946.458 33184934 32928358 32659218 32382462 32103706 31830832 31571708 
2949.834 31332254 31117454 30929550 30768086 30630748 30513324 30411000 
2953.209 30318436 30230330 30142280 30050198 29951142 29843058 29724712 
2956.584 29595650 29456132 29307192 29150084 28986372 28817872 28646322 
2959.959 28473566 28301446 28131726 27966172 27806826 27655238 27513092 
2963.335 27381334 27261118 27152642 27056186 26971490 26898408 26836724 
2966.710 26786324 26747348 26719546 26703018 26697770 26704076 26722222 
2970.085 26752880 26796754 26854522 26926714 27013554 27114374 27227920 
2973.460 27351832 27482312 27614066 27740314 27851940 27939420 27992816 
2976.836 28003242 27964864 27875504 27737488 27557538 27345658 27114234 
2980.211 26875354 26640728 26419784 26219578 26044232 25895546 25773136 
2983.586 25674524 25595686 25531442 25476452 25425052 25373342 25318722 
2986.961 25260278 25199494 25138752 25080686 25027544 24979880 24936502 
2990.337 24894606 24849624 24797000 24733402 24657120 24568754 24471640 
2993.712 24370834 24271770 24179872 24099170 24031542 23977336 23935600 
2997.087 23904720 23882840 23868382 23860156 23856936 23857916 23862048 
3000.462 23868698 23877520 23888616 23902444 23919600 23940466 23965396 
3003.838 23994178 24026358 24061204 24098294 24137066 24177246 24218618 
3007.213 24260838 24303374 24346058 24388604 24431330 24474796 24519492 
3010.588 24565948 24614336 24664588 24716040 24768408 24821382 24875132 
3013.963 24929940 24986268 25044742 25105296 25168104 25232924 25299440 
3017.339 25367510 25436680 25506846 25577550 25648688 25720012 25791560 
3020.714 25863646 25936414 26010214 26084588 26158800 26231582 26301804 
3024.089 26368378 26431194 26490814 26548752 26606802 26666694 26729764 
3027.464 26796580 26866788 26939724 27014576 27090322 27166258 27241712 
3030.840 27316440 27389910 27462122 27532686 27601250 27667986 27732756 
3034.215 27795734 27857626 27919350 27981896 28046678 28114828 28186948 
3037.590 28263324 28343462 28426586 28511848 28598684 28686530 28775420 
3040.965 28865318 28955910 29046768 29137326 29226804 29314992 29402058 
3044.341 29488470 29574866 29662020 29749656 29837734 29925796 30013590 
3047.716 30101580 30190440 30281310 30375216 30472768 30573258 30675550 
3051.091 30777722 30878176 30975772 31070186 31161666 31251132 31339518 
3054.466 31427492 31515270 31602814 31690024 31776748 31863208 31949934 
3057.842 32037356 32126396 32217742 32311532 32408058 32506782 32607208 
3061.217 32708838 32810454 32911808 33012330 33111978 33210828 33309232 
3064.592 33407412 33505398 33603372 33701364 33799456 33897960 33997308 
3067.967 34097648 34199484 34302780 34407672 34513672 34620768 34728720 
3071.343 34837380 34946712 35056864 35167908 35279912 35393168 35507352 
3074.718 35622464 35738040 35853608 35968776 36083184 36196616 36309572 
3078.093 36422664 36536576 36651784 36768316 36885604 37003176 37120200 
3081.468 37236576 37352472 37468508 37585408 37703528 37822516 37941788 
3084.844 38059896 38175908 38289380 38400744 38510872 38620880 38731892 
3088.219 38844784 38959844 39077328 39197812 39321528 39449412 39581868 
3091.594 39718544 39858460 39999620 40140020 40277236 40409948 40537500 
3094.969 40660648 40780888 40900172 41020400 41143216 41269780 41400684 
3098.344 41535524 41673544 41813616 41954460 42095208 42235488 42375336 
3101.720 42515272 42655944 42797612 42939728 43081488 43221504 43359000 
3105.095 43493572 43625660 43756360 43886912 44018680 44152392 44288204 
3108.470 44425996 44565640 44707016 44849904 44994052 45138544 45282280 
3111.845 45424108 45563260 45699656 45834404 45968828 46105096 46244392 
3115.221 46387272 46533004 46680184 46827416 46973664 47119004 47263980 
3118.596 47409860 47557560 47707640 47859180 48011436 48163044 48312928 
3121.971 48460788 48606696 48751248 48895288 49039452 49183848 49328372 
3125.346 49472568 49615996 49758352 49899980 50041244 50183000 50326324 
3128.722 50471708 50619448 50769512 50920932 51072888 51224452 51374684 
3132.097 51523516 51671168 51818052 51964532 52111100 52257828 52404796 
3135.472 52551812 52698992 52846404 52994360 53143036 53292624 53443280 
3138.847 53594920 53747628 53901176 54055116 54208884 54361772 54512948 
3142.223 54662184 54809816 54956560 55104064 55253656 55406080 55561232 
3145.598 55718212 55875208 56030456 56183004 56332552 56479732 56625756 
3148.973 56771716 56918104 57064920 57212048 57358960 57505584 57652484 
3152.348 57800004 57948968 58099504 58251264 58403724 58556084 58707660 
3155.724 58858272 59007300 59154744 59300420 59444320 59586744 59728192 
3159.099 59869644 60011904 60155696 60300984 60447196 60593188 60737976 
3162.474 60881052 61022696 61163808 61305428 61448272 61592272 61736744 
3165.849 61879808 62020472 62157480 62290544 62420136 62547200 62672660 
3169.225 62797384 62922344 63048252 63175572 63304664 63435444 63567408 
3172.600 63699448 63830228 63958668 64083724 64204940 64322384 64436056 
3175.975 64546028 64652340 64755596 64856528 64956872 65058736 65163904 
3179.350 65273368 65386824 65502508 65617724 65729776 65837064 65939216 
3182.726 66037304 66132940 66227904 66322736 66417248 66510260 66600368 
3186.101 66686900 66769428 66848724 66925296 67000052 67073828 67146992 
3189.476 67220408 67294944 67371048 67448912 67528064 67607152 67684736 
3192.851 67759752 67831872 67901760 67970992 68040976 68112400 68185200 
3196.227 68258168 68330016 68399952 68468016 68535096 68602304 68670056 
3199.602 68737904 68804360 68867608 68926552 68981000 69032616 69083504 
3202.977 69135752 69190856 69249104 69309384 69370328 69430592 69489448 
3206.352 69546616 69602112 69656144 69708616 69759544 69809232 69858304 
3209.728 69907648 69957896 70009128 70060280 70109776 70156112 70198408 
3213.103 70237240 70274712 70313320 70355464 70402384 70453584 70507016 
3216.478 70560336 70611088 70657800 70700136 70738664 70774504 70808624 
3219.853 70842248 70876496 70912976 70953696 71000560 71054560 71116064 
3223.229 71183752 71255664 71329144 71401976 71472520 71540368 71605544 
3226.604 71668336 71728792 71786800 71842112 71894776 71945224 71994648 
3229.979 72044512 72096424 72151816 72211792 72276320 72345472 72418752 
3233.354 72495360 72574192 72654200 72734464 72814200 72892960 72970640 
3236.729 73047232 73122704 73196896 73269496 73340416 73409784 73478448 
3240.105 73547752 73618952 73692688 73769288 73847872 73927136 74006256 
3243.480 74084848 74163488 74243600 74326432 74412864 74502424 74594040 
3246.855 74686000 74777264 74867248 74956064 75044832 75133808 75223512 
3250.230 75312760 75400696 75486200 75568672 75648304 75725840 75801704 
3253.606 75876392 75949592 76020992 76090080 76156920 76221992 76286416 
3256.981 76350640 76414720 76478216 76539816 76598352 76652936 76703264 
3260.356 76749960 76794040 76836712 76878712 76920600 76961656 77001024 
3263.731 77037496 77069432 77095392 77114464 77126368 77131432 77131080 
3267.107 77127088 77121464 77115288 77109672 77104408 77098984 77092856 
3270.482 77084864 77074456 77060840 77043152 77020680 76992632 76959128 
3273.857 76920680 76879072 76836000 76793728 76753272 76715280 76679144 
3277.232 76643808 76608392 76572504 76536176 76499672 76463040 76425776 
3280.608 76386824 76345024 76299488 76250080 76197560 76143376 76089056 
3283.983 76035800 75984488 75935264 75888032 75842696 75798944 75756536 
3287.358 75714912 75673376 75631264 75588672 75546328 75505552 75468184 
3290.733 75435544 75408304 75385760 75366840 75350288 75335976 75324704 
3294.109 75318080 75317928 75325176 75339528 75359304 75382440 75406648 
3297.484 75430776 75454616 75478744 75503424 75528696 75553376 75576600 
3300.859 75597936 75617776 75637888 75660568 75688176 75721504 75760912 
3304.234 75805376 75853584 75904608 75958280 76014760 76074680 76138328 
3307.610 76205568 76276104 76349256 76425104 76503072 76582896 76663216 
3310.985 76742680 76819784 76893512 76964944 77036232 77110736 77191432 
3314.360 77279664 77373928 77471344 77567400 77658328 77742368 77819928 
3317.735 77893504 77965656 78038464 78112264 78185968 78258208 78327576 
3321.111 78394168 78458664 78522184 78585352 78647808 78708456 78765888 
3324.486 78819400 78868984 78914952 78958112 78997976 79033344 79062920 
3327.861 79084744 79098536 79105096 79105568 79101840 79094448 79082792 
3331.236 79065344 79040576 79007432 78965744 78916504 78860800 78798976 
3334.612 78730776 78655320 78571768 78480224 78381824 78278920 78173352 
3337.987 78066376 77957408 77845296 77727192 77601032 77466160 77322064 
3341.362 77169592 77009448 76842488 76668712 76488680 76302920 76112544 
3344.737 75918616 75721976 75522824 75320648 75114984 74905600 74693400 
3348.113 74480352 74268832 74060832 73857616 73658960 73463696 73270240 
3351.488 73077616 72885552 72694112 72503712 72314048 72124984 71935136 
3354.863 71744584 71554320 71366472 71183984 71009960 70845952 70692224 
3358.238 70547592 70409936 70277128 70147896 70021352 69896944 69774208 
3361.614 69652288 69529856 69405864 69280504 69154256 69029352 68907720 
3364.989 68790888 68679648 68574096 68473376 68377024 68284424 68195320 
3368.364 68109144 68024776 67940112 67853176 67761880 67664880 67561432 
3371.739 67452432 67338160 67219280 67095676 66966420 66830524 66687128 
3375.115 66535368 66374624 66204092 66022372 65827892 65619268 65395452 
3378.490 65156476 64903312 64637416 64360232 64072208 63772968 63461244 
3381.865 63136072 62796584 62443168 62076892 61698968 61310688 60912884 
3385.240 60505884 60090056 59666412 59236916 58804244 58371280 57941020 
3388.615 57515004 57093868 56676908 56262768 55849740 55436948 55024024 
3391.991 54611716 54201604 53795480 53395168 53001472 52614456 52232864 
3395.366 51854784 51478004 51101400 50724712 50348760 49975808 49607672 
3398.741 49245784 48889912 48538444 48189368 47839908 47488620 47135104 
3402.116 46780104 46425028 46071420 45720124 45371616 45025588 44681748 
3405.492 44340016 44000784 43663908 43329856 42998512 42669396 42341952 
3408.867 42016216 41692144 41370756 41053104 40739868 40431696 40128392 
3412.242 39829368 39534068 39242092 38953428 38668828 38389124 38115132 
3415.617 37848112 37588368 37335824 37089452 36847480 36607368 36366852 
3418.993 36123728 35877396 35628976 35381088 35137476 34902076 34677360 
3422.368 34463948 34259892 34061920 33866148 33668816 33467964 33263336 
3425.743 33056270 32848514 32642286 32439050 32239546 32043702 31851120 
3429.118 31661440 31474370 31289268 31106170 30924428 30743652 30563696 
3432.494 30384632 30207206 30031628 29859100 29689800 29524182 29361962 
3435.869 29202884 29046414 28892126 28739946 28589448 28440382 28292534 
3439.244 28145230 27998082 27850774 27702736 27554256 27405262 27256072 
3442.619 27106934 26957810 26808068 26656900 26503776 26347254 26187376 
3445.995 26024672 25861150 25699588 25543638 25395964 25259052 25132504 
3449.370 25014696 24902886 24793456 24682966 24569104 24450854 24327940 
3452.745 24201278 24071674 23940360 23807896 23675228 23542772 23411478 
3456.120 23281868 23154498 23029924 22908424 22789752 22673800 22559906 
3459.496 22447156 22334680 22221640 22107234 21991256 21874332 21757546 
3462.871 21642358 21530474 21422028 21317266 21214894 21113414 21011402 
3466.246 20908268 20804046 20700126 20597584 20497572 20400982 20307922 
3469.621 20218076 20131268 20047356 19966132 19887212 19809626 19732124 
3472.997 19652690 19570398 19484514 19395738 19305770 19216926 19131494 
3476.372 19051170 18976328 18906586 18840974 18777966 18716006 18653742 
3479.747 18590104 18524056 18455700 18385802 18316016 18249076 18187500 
3483.122 18133120 18086520 18046244 18009530 17973130 17934040 17891120 
3486.498 17844406 17795800 17747578 17702330 17661850 17627238 17598666 
3489.873 17576100 17559644 17548500 17542050 17538634 17536252 17532872 
3493.248 17526938 17518176 17508136 17498926 17493888 17495580 17505584 
3496.623 17524246 17550362 17582932 17620128 17661194 17705090 17751408 
3499.999 17799218 17847996 17897232 17947126 17999066 18055294 18118474 
3503.374 18191406 18275546 18371732 18478934 18595430 18719396 18848898 
3506.749 18982074 19117784 19255130 19393454 19533104 19674672 19819302 
3510.124 19968700 20123806 20284556 20449882 20617980 20786352 20953398 
3513.500 21118042 21280342 21440966 21600602 21758660 21914164 22065086 
3516.875 22209782 22346784 22475592 22596098 22707944 22810180 22900810 
3520.250 22976994 23035688 23074436 23091908 23088170 23064340 23021888 
3523.625 22962182 22885966 22793628 22684834 22558718 22414882 22252958 
3527.000 22072616 21874438 21659528 21430104 21187930 20936084 20676878 
3530.376 20412616 20145150 19875558 19604540 19331438 19055808 18775960 
3533.751 18490308 18197902 17898922 17595148 17289756 16987232 16691668 
3537.126 16406421 16132779 15870545 15617952 15373502 15135537 14903910 
3540.501 14678403 14459248 14246297 14038174 13832784 13628005 13421716 
3543.877 13212861 13001647 12789751 12579562 12373941 12176595 11990544 
3547.252 11818023 11660035 11515407 11381644 11254281 11127975 10998341 
3550.627 10861951 10717963 10568386 10417435 10270100 10130615 10002262 
3554.002 9885403 9778980 9680375 9586671 9495188 9403894 9310994 9215271 
3557.860 9116151 9013333 8907462 8799451 8691131 8584763 8482274 8385314 
3561.717 8294726 8210335 8131025 8054531 7977983 7898041 7811771 7717794 
3565.575 7615677 7508292 7400124 7297442 7206002 7129333 7067935 7019374 
3569.432 6979506 6943177 6906480 6866420 6821820 6771975 6717794 6659852 
3573.290 6599461 6537734 6475948 6415213 6356302 6299585 6244656 6190709 
3577.147 6136534 6081256 6024373 5966086 5907203 5848663 5791777 5737148 
3581.004 5685747 5638416 5595922 5558500 5526316 5498027 5471217 5442495 
3584.862 5407569 5362448 5305156 5236033 5158270 5078275 5002953 4938939 
3588.719 4889879 4856371 4835329 4822932 4814021 4803769 4789028 4767755 
3592.577 4739013 4703708 4663214 4619811 4575877 4533353 4493444 4457289 
3596.434 4424517 4394861 4367918 4342783 4318688 4295530 4273412 4252967 
3600.292 4235401 4222319 4214624 4212817 4216363 4223122 4230851 4236237 
3604.149 4236605 4229077 4211646 4183007 4142462 4090615 4029210 3961493 
3608.006 3892450 3827763 3772578 3729966 3699689 3678937 3662630 3645255 
3611.864 3622701 3593367 3558389 3521676 3487940 3460786 3441615 3429091 
3615.721 3419540 3408085 3389551 3360400 3318662 3265478 3204923 3143042 
3619.579 3086509 3041762 3012434 2999288 2999488 3009197 3023711 3038759 
3623.436 3051839 3061649 3068290 3071426 3070225 3061149 3039660 3000256 
3627.293 2939037 2856982 2762637 2671480 2600808 2564010 2564310 2595175 
3631.151 2644010 2698152 2746432 2781545 2800486 2803554 2793616 2775209 
3635.008 2752200 2727726 2704153 2682349 2663279 2647577 2635810 2627209 
3638.866 2621275 2615675 2608442 2598142 2584676 2569010 2553878 2541580 
3642.723 2534081 2531614 2532248 2532781 2529382 2518117 2496422 2463565 
3646.581 2420547 2369805 2315438 2261644 2212252 2171491 2143020 2129868 
3650.438 2134329 2156739 2194802 2243792 2297084 2347751 2388862 2415250 
3654.295 2424046 2415350 2392327 2361277 2329895 2305212 2291255 2288623 
3658.153 2295152 2307077 2320368 2332327 2340788 2344686 2344353 2340422 
3662.010 2334259 2327563 2322067 2319469 2321101 2327397 2338457 2353348 
3665.868 2370271 2386230 2398224 2402056 2394726 2375469 2347684 2319635 
3669.725 2304479 2317403 2368372 2459599 2583742 2727259 2872625 3002424 
3673.583 3102027 3158829 3166405 3125488 3046634 2945643 2837638 2732427 
3677.440 2632576 2536714 2443105 2352482 2268105 2194935 2136893 2095373 
3681.297 2068273 2052093 2042905 2038144 2037612 2042139 2052526 2067374 
3685.155 2082855 2092843 2091212 2072734 2035881 1983719 1924141 1867301 
3689.012 1822346 1794730 1784782 1789773 1805244 1827171 1852892 1880445 
3692.870 1908200 1934958 1958788 1978127 1992207 2001327 2006354 2009449 
3696.727 2012146 2015541 2019502 2022565 2022332 2016540 2003225 1982221 
3700.584 1955061 1925140 1896918 1875188 1863474 1863674 1875154 1895853 
3704.442 1922544 1951599 1980290 2006320 2028291 2045968 2059184 2067840 
3708.299 2071602 2069538 2060249 2043171 2018371 1987713 1955160 1926305 
3712.157 1906403 1899680 1907501 1928168 1957757 1990842 2022631 2049097 
3716.014 2067674 2078161 2081490 2079858 2075364 2069937 2064078 2057187 
3719.872 2048331 2036247 2021067 2003724 1986415 1971536 1960885 1955227 
3723.729 1953496 1953862 1954329 1954162 1953663 1955227 1962217 1977561 
3727.586 2002526 2035814 2072934 2108458 2136128 2150679 2149880 2134296 
3731.444 2108125 2077661 2049330 2026493 2009050 1993505 1975464 1952498 
3735.301 1925706 1899714 1881544 1876885 1887567 1911728 1944976 1982354 
3739.159 2020601 2057886 2093376 2125706 2151778 2166030 2160602 2128336 
3743.016 2066009 1978959 1884439 1806009 1766251 1773071 1818719 1884539 
3746.874 1950634 2001161 2026060 2022465 1994204 1950401 1902077 1859115 
3750.731 1827504 1808937 1802982 1809303 1828136 1859414 1901544 1950634 
3754.588 2001227 2047099 2083021 2105861 2114785 2111622 2100234 2084853 
3758.446 2069238 2056121 2047599 2045235 2050062 2062347 2081290 2104063 
3762.303 2126938 2145717 2157272 2160136 2155674 2147482 2140057 2137126 
3766.161 2139990 2147349 2155740 2160968 2160569 2153443 2141389 2127603 
3770.018 2115883 2109324 2108991 2114418 2124008 2136028 2148648 2161068 
3773.875 2173156 2184578 2195468 2205625 2214217 2220045 2221377 2216715 
3777.733 2205059 2187442 2165896 2144918 2129335 2123342 2128769 2144485 
3781.590 2166596 2190306 2210787 2224375 2230003 2228471 2222010 2213784 
3785.448 2206358 2200963 2197965 2197366 2198398 2200996 2205225 2210587 
3789.305 2217048 2224008 2231069 2237996 2245124 2253017 2262010 2271636 
3793.163 2280429 2286058 2286691 2281029 2270137 2257180 2246789 2243325 
3797.020 2249387 2263442 2280230 2292954 2293486 2275966 2238130 2183845 
3800.877 2123575 2071103 2040708 2040075 2067674 2114052 2166196 2211952 
3804.735 2240728 2247389 2232168 2201595 2166396 2138692 2127504 2135329 
3808.592 2158970 2191238 2225707 2257913 2286725 2313639 2340988 2370038 
3812.450 2399557 2425245 2440606 2439407 2417948 2377468 2325831 2276532 
3816.307 2243325 2234966 2251752 2286292 2326131 2357545 2370271 2357978 
3820.165 2321734 2270470 2218980 2183179 2173089 2190139 2227172 2273668 
3824.022 2318236 2352248 2371704 2376801 2371871 2363309 2357812 2359178 
3827.879 2368006 2381099 2393926 2401822 2401822 2393560 2379667 2364708 
3831.737 2353448 2350183 2356746 2372537 2394493 2418015 2438040 2450136 
3835.594 2450702 2438340 2414250 2382398 2348717 2319602 2300548 2293686 
3839.452 2297917 2309842 2325065 2339456 2350183 2356079 2357812 2357046 
3843.309 2356246 2357712 2363242 2373470 2388262 2406853 2427478 2448703 
3847.167 2469629 2489857 2509885 2530248 2550945 2569977 2583176 2583476 
3851.024 2561844 2509985 2423180 2305911 2173722 2053192 1970438 1940982 
3854.881 1964280 2027026 2111455 2201329 2285859 2358911 2418315 2464531 
3858.739 2499255 2524149 2540747 2549979 2552545 2548779 2539147 2523649 
3862.596 2502720 2476927 2448070 2419548 2396525 2384231 2386130 2401789 
3866.454 2427011 2453368 2471595 2473828 2456101 2420381 2375102 2333026 
3870.311 2306144 2300182 2313040 2336391 2360477 2377401 2383864 2381932 
3874.168 2377901 2379367 2391561 2416016 2449436 2485458 2516684 2536914 
3878.026 2542313 2532581 2510119 2480826 2452302 2431610 2424379 2432409 
3881.883 2453668 2482492 2511419 2533448 2542113 2535114 2513551 2484258 
3885.741 2456667 2439873 2439440 2455101 2481359 2509919 2532814 2543779 
3889.598 2539880 2522849 2497588 2472129 2453601 2447770 2455901 2476561 
3893.456 2505586 2539280 2574076 2607642 2638643 2666113 2688783 2704987 
3897.313 2713455 2712355 2701453 2681515 2655178 2625942 2597475 2572443 
3901.170 2551912 2535314 2520883 2507353 2494456 2483325 2476461 2476894 
3905.028 2486324 2504853 2530282 2559144 2587609 2612442 2631676 2645110 
3908.885 2653678 2659379 2664213 2670080 2678181 2688883 2701753 2715723 
3912.743 2729560 2740930 2748032 2749033 2742897 2729927 2712122 2692451 
3916.600 2674714 2662246 2656812 2658145 2664846 2674247 2684583 2694651 
3920.458 2704553 2714823 2726292 2738429 2750300 2760136 2766072 2767606 
3924.315 2765105 2760503 2756168 2754134 2755535 2760003 2765905 2771274 
3928.172 2774308 2773875 2769640 2762470 2753101 2742597 2732261 2723158 
3932.030 2716323 2712855 2713322 2718023 2726226 2736929 2748566 2759903 
3935.887 2770073 2779110 2787647 2796651 2806722 2817661 2828700 2837938 
3939.745 2843141 2842774 2836004 2823564 2807222 2789815 2774408 2763671 
3943.602 2759403 2761904 2770173 2782445 2796251 2809290 2819528 2826098 
3947.459 2828733 2828133 2825631 2822630 2820195 2819028 2819328 2820862 
3951.317 2823230 2826332 2830367 2835170 2840973 2847710 2854847 2862018 
3955.174 2868856 2875493 2882564 2890769 2900543 2912218 2924860 2937336 
3959.032 2947811 2954850 2957986 2957552 2954650 2951314 2949212 2949345 
3962.889 2952114 2957052 2963457 2970363 2977269 2983941 2990413 2996719 
3966.747 3002658 3008029 3012634 3016370 3019507 3022577 3026380 3031385 
3970.604 3037625 3044732 3051972 3058279 3063051 3066054 3067422 3067622 
3974.461 3067188 3066721 3066221 3065753 3065453 3065453 3066154 3068256 
3978.319 3072327 3078467 3086576 3095786 3104963 3112973 3118379 3120749 
3982.176 3119647 3115576 3109369 3102060 3094952 3088945 3084474 3081737 
3986.034 3080269 3079401 3078601 3077266 3075164 3072427 3069391 3066388 
3989.891 3063518 3060848 3058379 3056277 3054575 3054008 3055142 3058045 
3993.749 3062583 3068056 3072828 3075698 3076098 3074129 3070659 3067122 
3997.606 3065286 3065920 3069157 3074196 3079668 3084174 3086810 
##END=
