
##TITLE=mdmaHCL00446_3
##JCAMP-DX=5.01  $$ Nicolet v. 1
##DATATYPE=INFRARED SPECTRUM
##ORIGIN=UniL
##OWNER=Nicolet
##LONGDATE=2011/08/23
##TIME=08:57:33
##SPECTROMETER/DATA SYSTEM=Nicolet iS5
##DATA PROCESSING=
Ratio against background
%Transmittance->Absorbance
Truncated
ElementMultiply or ElementDivide
##COMMENTS=
Number of sample scans: 32
Collection length: 51.19 sec
Sample gain: 2.0
Background collected on: Mar Aout 23 08:55:31 2011 (GMT+02:00);
Number of background scans: 32
Background gain: 2.0
Sample spacing:  1.000
Number of scan points: 12415
Resolution points: 8192
Number of FFT points: 65536
Apodization: N-B fort;
Phase correction: Mertz;
Laser frequency: 15798.0 cm-1
Number of rejected sample scans: 0
Number of rejected background scans: 0
Bench serial number: ASB1000141;
##RESOLUTION=4.000
##XUNITS=1/CM
##YUNITS=ABSORBANCE
##FIRSTX=649.893372
##LASTX=4000.122314
##FIRSTY=0.109774
##MAXX=4000.122314
##MINX=649.893372
##MAXY=0.240240
##MINY=-0.001830
##XFACTOR=1.000000
##YFACTOR=1.000000E-009
##NPOINTS=6950
##DELTAX=0.482117
##ZPD=6100
##XYDATA=(X++(Y..Y))
649.893 109774432 109013744 108378752 107904672 107588280 107399544 
652.786 107301880 107273800 107313296 107434464 107651192 107963048 
655.679 108349624 108780248 109224816 109669160 110118088 110587112 
658.571 111089280 111623832 112173360 112714184 113231640 113728016 
661.464 114226552 114757120 115345160 115994928 116689192 117394160 
664.357 118074488 118702960 119257432 119718056 120059192 120247864 
667.250 120260672 120108384 119851696 119579272 119371256 119264368 
670.142 119242960 119256992 119242392 119147304 118942984 118633336 
673.035 118245288 117814120 117362120 116888416 116375080 115802688 
675.928 115166816 114487616 113802288 113150112 112555584 112017752 
678.820 111513304 111008752 110478776 109913496 109319376 108710192 
681.713 108095536 107474272 106837416 106175720 105489312 104791960 
684.606 104106416 103453160 102841232 102263832 101702688 101140056 
687.498 100567632 99992576 99433944 98913688 98444760 98027488 97651024 
690.873 97302496 96976000 96677720 96422056 96226256 96101096 96045288 
694.248 96048560 96097824 96185112 96312560 96490824 96733072 97049072 
697.623 97440232 97901024 98423440 99004072 99644376 100350328 101124760 
700.998 101961656 102842656 103742872 104635432 105500208 106329256 
703.890 107122736 107883096 108607728 109284816 109897528 110433224 
706.783 110890000 111282272 111633768 111971440 112311864 112656928 
709.676 112995824 113313440 113601328 113862448 114110880 114364112 
712.569 114634800 114923216 115218648 115503392 115761768 115985240 
715.461 116170760 116318208 116425496 116486848 116497248 116459208 
718.354 116389632 116317384 116280784 116313400 116431176 116629208 
721.247 116881176 117149832 117394552 117582064 117689680 117702232 
724.139 117612000 117417952 117129136 116767184 116368584 115980736 
727.032 115647416 115400432 115250664 115186944 115182840 115209536 
729.925 115248632 115294648 115354968 115440152 115556520 115700040 
732.817 115860176 116024488 116187040 116351392 116527704 116725432 
735.710 116946880 117183720 117420952 117643408 117843592 118023696 
738.603 118194440 118367984 118549744 118737416 118922848 119098216 
741.496 119262096 119421416 119587168 119768480 119966544 120172784 
744.388 120372784 120554816 120715264 120861376 121006752 121163112 
747.281 121334960 121516784 121696096 121860688 122005736 122134504 
750.174 122256160 122378104 122500736 122616072 122712984 122782128 
753.066 122823712 122846616 122865304 122891600 122928976 122972112 
755.959 123011352 123040600 123061752 123086000 123127216 123195152 
758.852 123288008 123393112 123490544 123563472 123604208 123616584 
761.744 123611120 123598840 123584872 123566640 123538320 123496880 
764.637 123445768 123397032 123364848 123358688 123379424 123418912 
767.530 123464920 123507760 123544616 123579896 123621248 123675384 
770.423 123746136 123838752 123964008 124141952 124398592 124752208 
773.315 125198456 125695064 126165104 126502160 126596032 126368600 
776.208 125784920 124861920 123651336 122217480 120609496 118846568 
779.101 116919688 114803816 112476504 109930480 107180960 104262760 
781.993 101225512 98122624 95008936 91940368 88967216 86135440 83483848 
785.368 81035616 78801480 76778976 74956272 73318368 71850672 70542256 
788.743 69384944 68370784 67491256 66735812 66094360 65559424 65127760 
792.118 64801364 64583400 64475992 64475336 64569212 64735940 64947412 
795.493 65168948 65359600 65477588 65477236 65312572 64947180 64356544 
798.867 63537568 62510312 61317480 60017080 58668748 57331056 56050772 
802.242 54858536 53772980 52798960 51932188 51160780 50469848 49844900 
805.617 49274216 48752136 48279416 47861176 47502000 47201996 46951772 
808.992 46733316 46521164 46288108 46013288 45683900 45298276 44862212 
812.367 44386216 43880572 43353216 42810920 42260248 41709436 41168824 
815.742 40649952 40162336 39712848 39303640 38933784 38599584 38298100 
819.116 38026372 37782172 37563404 37367384 37191236 37033232 36894116 
822.491 36777620 36689672 36637148 36624708 36653872 36721620 36821544 
825.866 36945592 37084004 37226864 37363304 37479308 37559324 37587324 
829.241 37548880 37435892 37248848 36997908 36699952 36376868 36051968 
832.616 35744552 35470856 35241636 35061280 34928472 34835296 34769028 
835.990 34712388 34647648 34560848 34443716 34296716 34127436 33948256 
839.365 33772092 33608920 33464420 33339858 33234004 33145308 33073288 
842.740 33018370 32981298 32962066 32959100 32970644 32995346 33033316 
846.115 33086232 33156824 33246774 33355102 33478770 33612432 33750388 
849.490 33889360 34027768 34166756 34308480 34454624 34606272 34763824 
852.865 34928432 35102488 35290080 35496672 35726672 35983032 36266772 
856.239 36576980 36912512 37273832 37662476 38082324 38537664 39032120 
859.614 39569420 40152888 40786344 41474712 42223288 43035096 43908760 
862.989 44836788 45805316 46794020 47781684 48748320 49678364 50563832 
866.364 51405004 52211492 53002368 53807592 54668496 55631620 56749628 
869.739 58073484 59643340 61486520 63609524 65996028 68600632 71348200 
873.113 74137352 76828728 79262112 81270312 82684056 83372664 83259664 
876.488 82335520 80659744 78350312 75568360 72481544 69258512 66051656 
879.863 62977492 60126624 57558016 55300356 53360956 51729692 50385300 
883.238 49299936 48443712 47789564 47311380 46986920 46797264 46725492 
886.613 46758296 46886288 47105040 47414960 47820448 48327556 48941496 
889.987 49665028 50498360 51440440 52491684 53655764 54941332 56361596 
893.362 57932840 59670708 61588608 63691700 65973228 68404560 70928656 
896.737 73456432 75853984 77959624 79600392 80603696 80843032 80254912 
900.112 78852856 76724968 74021816 70939264 67673128 64413996 61324388 
903.487 58516460 56064080 53999396 52321436 51007412 50021164 49324360 
906.862 48878676 48652136 48621968 48772344 49095432 49589176 50254524 
910.236 51094432 52108856 53291388 54624872 56075240 57586348 59085952 
913.611 60483756 61681248 62592708 63149400 63314708 63089936 62512956 
916.986 61653788 60598332 59446712 58294424 57219076 56281400 55514200 
920.361 54924632 54497808 54203296 54003632 53860516 53745376 53642456 
923.736 53552112 53488208 53476404 53549188 53737128 54066112 54551376 
927.110 55193148 55974368 56858996 57796216 58716992 59542280 60193760 
930.485 60593492 60679560 60414144 59787388 58823936 57578932 56138168 
933.860 54600484 53065940 51628700 50357988 49299232 48473940 47883596 
937.235 47517524 47358420 47389420 47592200 47946532 48428524 49004884 
940.610 49632972 50266652 50855104 51353392 51729468 51965500 52062800 
943.985 52038708 51926216 51764852 51595604 51456740 51375764 51368868 
947.359 51441524 51590076 51805468 52076320 52392312 52743884 53121656 
950.734 53516356 53917232 54312732 54693336 55052380 55388728 55705744 
954.109 56011684 56316024 56627228 56952556 57296728 57662816 58053752 
957.484 58471992 58919252 59395880 59900376 60429180 60978080 61544128 
960.859 62125936 62724492 63342116 63980476 64639532 65317920 66012228 
964.233 66719816 67439856 68173496 68923104 69691304 70479544 71287792 
967.608 72115896 72964560 73836480 74736448 75670144 76642504 77656144 
970.983 78712032 79810392 80952968 82144272 83391576 84703672 86088696 
974.358 87551880 89095176 90718168 92420032 94201200 96064096 98012208 
977.733 100048808 102176536 104397328 106715056 109137176 111675632 
980.625 114346696 117166448 120147048 123293152 126600744 130055320 
983.518 133631792 137294832 140990704 144638528 148134880 151340256 
986.411 154091312 156230256 157609200 158125824 157741248 156483536 
989.304 154448976 151783344 148681648 145354560 142007776 138839984 
992.196 136007264 133620304 131745848 130403232 129578608 129235264 
995.089 129330144 129819976 130666152 131838888 133310376 135053936 
997.982 137043712 139251600 141648592 144204560 146880768 149624384 
1000.874 152366944 155013152 157452656 159572768 161264880 162450848 
1003.767 163091568 163192528 162803392 162012528 160944480 159736944 
1006.660 158538272 157495984 156730640 156338944 156384160 156893712 
1009.552 157869472 159294768 161147264 163402112 166037872 169036560 
1012.445 172378080 176040448 179999312 184224944 188683888 193333008 
1015.338 198104112 202896320 207564752 211906128 215692880 218686592 
1018.231 220674736 221526144 221209504 219816272 217540160 214673888 
1021.123 211571152 208578048 206035792 204222048 203318336 203420304 
1024.016 204523664 206545440 209334528 212705520 216464720 220407776 
1026.909 224349440 228120320 231558480 234529392 236926352 238680768 
1029.802 239774816 240239840 240149936 239598160 238688144 237516992 
1032.695 236160800 234678928 233107472 231455296 229702256 227797248 
1035.588 225668112 223225328 220387456 217100544 213345840 209147744 
1038.481 204563744 199676752 194574528 189344080 184071184 178831280 
1041.374 173695936 168732272 163994320 159527968 155369968 151547056 
1044.267 148086192 145015904 142365680 140167520 138448832 137225280 
1047.160 136500336 136262336 136489008 137149520 138210816 139640640 
1050.053 141402800 143459904 145769872 148283328 150951280 153725216 
1052.947 156558496 159410304 162236224 164980512 167575920 169934320 
1055.840 171952768 173532064 174578032 175019360 174818064 173970352 
1058.733 172512272 170515664 168096160 165400640 162593680 159858256 
1061.626 157362160 155246976 153627120 152572976 152118592 152265504 
1064.519 152986736 154229296 155912256 157937504 160181744 162504880 
1067.412 164772288 166851104 168628592 170022880 170972832 171439552 
1070.305 171401200 170847248 169781024 168219136 166195680 163758544 
1073.198 160965360 157885872 154593872 151171984 147718272 144337728 
1076.091 141145872 138264384 135798976 133840848 132456200 131676840 
1078.984 131502464 131896656 132790672 134074848 135603296 137210960 
1081.877 138707408 139910944 140680528 140924752 140631824 139866240 
1084.770 138765600 137508688 136290016 135308688 134727216 134669520 
1087.663 135212096 136374000 138118096 140348992 142931280 145686400 
1090.556 148412128 150918304 153024064 154583712 155501728 155723088 
1093.449 155238784 154078080 152306016 150012976 147300656 144280352 
1096.343 141051232 137693776 134272832 130832448 127405240 124018984 
1099.236 120698336 117467408 114349408 111362208 108520848 105838896 
1102.129 103330320 101013736 98913360 97055784 95470120 94182512 93212920 
1105.504 92576528 92282984 92337320 92741936 93494768 94588768 96008096 
1108.879 97727576 99712776 101916608 104286600 106761576 109269136 111732240 
1112.254 114061152 116155784 117920528 119264280 120114936 120431768 
1115.147 120203504 119450032 118212752 116552624 114540408 112247928 
1118.041 109751608 107121344 104414984 101680712 98949808 96241056 93566064 
1121.416 90933968 88356992 85853680 83447096 81164576 79034736 77083472 
1124.791 75335224 73813232 72537536 71527872 70801104 70369344 70238992 
1128.166 70408344 70868184 71599400 72574384 73758248 75103280 76552104 
1131.542 78038304 79483120 80809824 81950400 82854528 83503720 83913416 
1134.917 84133944 84237032 84309888 84440672 84698760 85132472 85757232 
1138.292 86554656 87471344 88425512 89322064 90053608 90521568 90648552 
1141.667 90377928 89682080 88557936 87022736 85109256 82861416 80336872 
1145.042 77599128 74717752 71766752 68812904 65917232 63132660 60498496 
1148.418 58045836 55796836 53764876 51957324 50374544 49012264 47861176 
1151.793 46909540 46145036 45554720 45127332 44853616 44724756 44733348 
1155.168 44872572 45135456 45516340 46011040 46616808 47333144 48160196 
1158.543 49097880 50144988 51298164 52551740 53898324 55327712 56825796 
1161.919 58374804 59948872 61514004 63031012 64452312 65728576 66813132 
1165.294 67660232 68230912 68494560 68428224 68021680 67277728 66214396 
1168.669 64861380 63258172 61450600 59483152 57399084 55239544 53039580 
1172.044 50832944 48650204 46516408 44454188 42481288 40609968 38849352 
1175.420 37204804 35679080 34272980 32985662 31814754 30757024 29808100 
1178.795 28963278 28217354 27565412 27003222 26527232 26134554 25822924 
1182.170 25590272 25434466 25353318 25344466 25405624 25534570 25729082 
1185.545 25986220 26302438 26672506 27090252 27547902 28036782 28548046 
1188.921 29071356 29596466 30113548 30613468 31090010 31541422 31971190 
1192.296 32388352 32806490 33242520 33713076 34233544 34816880 35471032 
1195.671 36200360 37004044 37876308 38804456 39767672 40738304 41677884 
1199.046 42540376 43276372 43831120 44153820 44203308 43950700 43387740 
1202.422 42528172 41409028 40083152 38614360 37072020 35517456 34004296 
1205.797 32574780 31256154 30064934 29007270 28082024 27283096 26601660 
1209.172 26028190 25553336 25168878 24868430 24646914 24500806 24427684 
1212.547 24425090 24490570 24621070 24812504 25060256 25358658 25700432 
1215.923 26077270 26478594 26891782 27303774 27700970 28070818 28403272 
1219.298 28690354 28925630 29104304 29222480 29277348 29268378 29198560 
1222.673 29074934 28908134 28713398 28507814 28308730 28133812 27997728 
1226.048 27912460 27886244 27922708 28020666 28173688 28371368 28599322 
1229.424 28840958 29080248 29302230 29494570 29649108 29761010 29830032 
1232.799 29860236 29860980 29846748 29835748 29850192 29913086 30045794 
1236.174 30267844 30594518 31036660 31602244 32295402 33117592 34066256 
1239.549 35135068 36311408 37575868 38904248 40265676 41624236 42943276 
1242.925 44183132 45304636 46275168 47068148 47669328 48078020 48308004 
1246.300 48384740 48340520 48213988 48043304 47863176 47705492 47593828 
1249.675 47542404 47554936 47623552 47729792 47846636 47946420 48003072 
1253.050 47998784 47927364 47794336 47615604 47412480 47209976 47032184 
1256.426 46896620 46814572 46785860 46799000 46828560 46838452 46785788 
1259.801 46622964 46308672 45812976 45120384 44233496 43171252 41967052 
1263.176 40661452 39300164 37930144 36591324 35317864 34135284 33058592 
1266.551 32095428 31245900 30505504 29865844 29317046 28849172 28452304 
1269.927 28117654 27838162 27607038 27418850 27268914 27152608 27065812 
1273.302 27004666 26964404 26940676 26928690 26923682 26921710 26920052 
1276.677 26916704 26910850 26901546 26887444 26865908 26833832 26787382 
1280.052 26723138 26638192 26530718 26399822 26244744 26065834 25864034 
1283.427 25642114 25405062 25160308 24918502 24691560 24492744 24335648 
1286.803 24232458 24194130 24230636 24349772 24558830 24864008 25269798 
1290.178 25779148 26392498 27106686 27912708 28794610 29728792 30680706 
1293.553 31607698 32464080 33201742 33781616 34178656 34384684 34410184 
1296.928 34281300 34036296 33716476 33363544 33015474 32701336 32442942 
1300.304 32253928 32139384 32097250 32119368 32193228 32303288 32433372 
1303.679 32569532 32699264 32812990 32904018 32967356 33000816 33004786 
1307.054 32982622 32940690 32887720 32834004 32789122 32761466 32757714 
1310.429 32782332 32838612 32929502 33057448 33224742 33432890 33682176 
1313.805 33971796 34300052 34665408 35066312 35502172 35972412 36477184 
1317.180 37016200 37589560 38197836 38842244 39523836 40243244 40998332 
1320.555 41782936 42584708 43386168 44162772 44883592 45516192 46026844 
1323.930 46386720 46580176 46608544 46496348 46286596 46041688 45829876 
1327.306 45711620 45735036 45923892 46276828 46769628 47363664 48015804 
1330.681 48682968 49333308 49947000 50516816 51047880 51555084 52060856 
1334.056 52588536 53161084 53794916 54496456 55260200 56068416 56895516 
1337.431 57707428 58467408 59139980 59689756 60086820 60309740 60347204 
1340.807 60199808 59879116 59404692 58798704 58083292 57279640 56405552 
1344.182 55476664 54506976 53507140 52484920 51445364 50391028 49325032 
1347.557 48253420 47186924 46142860 45145164 44219668 43396128 42703356 
1350.932 42166144 41807520 41645024 41691376 41954972 42438504 43137988 
1354.308 44040164 45120460 46340452 47644332 48967420 50235704 51371700 
1357.683 52308136 52987544 53369276 53435972 53193068 52671796 51922520 
1361.058 51018220 50045480 49091760 48245160 47574972 47121624 46894224 
1364.433 46869272 47000060 47222052 47467216 47670440 47773436 47737264 
1367.809 47544584 47202808 46739364 46196076 45618904 45046356 44508480 
1371.184 44025024 43606316 43259864 42993024 42814252 42733956 42760536 
1374.559 42895984 43134292 43461012 43856820 44299908 44771472 45256020 
1377.934 45741588 46220804 46690184 47149656 47601740 48048964 48491868 
1381.310 48925696 49338468 49709792 50014884 50223616 50304932 50231428 
1384.685 49978784 49532836 48895068 48092192 47179128 46231752 45338068 
1388.060 44570448 43971780 43552728 43296176 43169312 43131696 43145088 
1391.435 43172716 43177804 43126424 42984612 42723428 42327196 41798948 
1394.811 41162048 40450788 39700212 38932916 38155576 37365472 36560544 
1398.186 35749444 34958600 34227304 33595028 33091776 32726738 32491356 
1401.561 32366290 32331560 32371718 32478612 32650716 32889898 33197560 
1404.936 33573120 34012860 34511232 35061928 35658540 36294404 36962768 
1408.312 37655248 38363388 39079612 39797776 40514472 41228608 41940340 
1411.687 42648380 43349628 44038040 44706684 45350060 45965400 46554396 
1415.062 47121624 47671660 48206988 48726080 49224596 49699576 50153280 
1418.437 50597708 51050268 51530192 52046736 52593176 53149512 53688684 
1421.813 54184824 54615436 54968024 55240296 55440748 55585596 55694028 
1425.188 55783460 55862924 55934000 55991328 56026912 56032340 56002296 
1428.563 55935620 55836812 55715200 55582920 55454680 55345328 55267236 
1431.938 55230212 55237664 55286696 55366404 55460024 55548204 55611544 
1435.313 55639116 55635460 55625516 55647284 55737876 55917040 56177648 
1438.689 56490108 56810012 57091524 57289772 57367924 57304060 57088688 
1442.064 56724784 56221280 55589364 54839892 53982436 53028464 51990524 
1445.439 50880884 49713656 48504836 47277280 46067000 44921112 43891016 
1448.814 43022988 42344324 41863596 41576252 41472820 41545368 41787348 
1452.190 42189696 42732712 43380384 44085528 44783080 45397108 45849024 
1455.565 46061032 45985256 45631012 45082852 44467440 43897028 43434464 
1458.940 43087488 42835788 42655212 42529924 42453664 42422648 42429368 
1462.315 42457904 42483484 42481180 42433280 42340016 42220772 42108716 
1465.691 42035524 42017272 42052060 42122588 42204740 42270400 42291436 
1469.066 42237864 42070348 41740216 41192392 40374824 39263636 37885276 
1472.441 36327544 34711848 33152998 31721000 30431540 29266146 28198474 
1475.816 27215536 26322682 25537840 24876360 24342202 23923730 23600216 
1479.192 23349694 23158062 23022308 22947546 22942202 23011092 23153274 
1482.567 23362560 23631596 23954856 24330532 24758658 25236962 25758896 
1485.942 26310112 26867424 27403038 27882394 28266470 28515988 28591146 
1489.317 28461008 28114122 27565836 26859528 26053064 25205850 24359866 
1492.693 23533470 22726588 21926152 21117380 20294522 19465594 18654882 
1496.068 17898336 17229800 16672352 16232172 15903505 15674800 15535113 
1499.443 15476395 15491744 15573233 15710870 15892817 16106542 16340910 
1502.818 16583564 16818984 17027066 17175712 17223008 17122390 16836446 
1506.194 16361175 15740108 15053306 14376528 13752338 13185536 12659280 
1509.569 12153458 11655951 11165472 10690896 10246250 9843102 9488957 
1512.944 9184440 8925082 8704078 8514306 8348969 8201523 8066885 7942549 
1516.802 7830697 7737188 7669633 7632301 7623163 7632335 7643126 7638675 
1520.659 7608562 7556772 7502257 7470266 7479368 7532329 7618071 7718435 
1524.516 7817911 7906914 7986285 8065029 8155367 8266830 8401630 8556511 
1528.374 8725883 8906785 9099470 9307270 9532917 9775558 10030337 10288964 
1532.231 10543196 10789934 11034331 11288660 11565018 11870085 12200551 
1535.606 12546035 12891454 13221537 13524318 13788661 14006657 14172860 
1538.982 14285742 14347314 14364472 14349643 14317315 14280537 14247427 
1542.357 14218633 14187137 14142155 14074144 13979418 13864358 13742695 
1545.732 13631048 13541410 13474723 13422775 13371551 13308581 13227514 
1549.107 13133349 13039340 12963138 12917224 12904288 12917873 12947195 
1552.483 12983143 13022508 13069559 13133486 13223723 13343840 13488907 
1555.858 13646058 13797725 13922210 13996288 14001249 13933294 13815545 
1559.233 13694271 13621646 13627287 13710583 13853480 14032528 14226987 
1562.608 14420060 14601329 14767282 14920540 15069429 15223755 15391353 
1565.984 15573371 15764605 15954306 16131058 16284732 16410550 16511004 
1569.359 16595785 16679307 16774487 16889666 17026790 17182468 17349444 
1572.734 17517760 17675582 17807260 17895988 17927064 17892984 17801840 
1576.109 17677998 17556572 17465156 17415764 17401554 17404932 17405278 
1579.485 17385276 17335582 17254346 17146688 17020138 16882052 16735917 
1582.860 16581258 16415231 16235095 16039150 15827451 15600606 15358638 
1586.235 15101023 14828338 14543525 14253864 13970282 13705522 13471647 
1589.610 13276228 13122694 13010387 12936647 12897017 12885139 12892239 
1592.986 12904732 12905039 12875344 12799034 12666615 12477524 12240322 
1596.361 11969496 11680593 11387937 11101324 10826858 10568861 10331410 
1599.736 10117930 9931031 9771084 9635519 9520149 9421501 9338550 9273657 
1603.594 9231280 9215203 9226372 9260726 9310452 9365905 9418149 9459935 
1607.451 9486146 9493123 9476630 9431964 9355275 9245156 9105459 8945545 
1611.308 8780112 8623968 8488355 8378322 8291349 8219216 8150708 8075493 
1615.166 7986758 7883363 7771728 7664270 7575687 7517495 7495043 7507348 
1619.023 7548411 7608697 7677086 7742247 7793385 7823746 7832046 7824422 
1622.881 7812243 7808195 7821891 7855933 7906881 7968230 8033840 8099461 
1626.738 8163638 8226475 8288782 8351265 8414366 8479773 8550530 8629883 
1630.595 8721421 8826333 8942772 9064452 9182408 9285741 9363434 9406941 
1634.453 9413138 9387879 9345592 9306085 9288415 9302294 9348064 9418724 
1638.310 9504332 9594259 9679359 9754005 9816462 9869235 9918115 9969544 
1642.168 10027828 10093241 10160869 10221994 10266741 10284994 10271050 
1645.543 10225421 10157002 10081473 10017621 9983648 9990158 10040068 
1648.918 10128953 10247539 10381293 10509826 10607872 10642404 10581695 
1652.293 10410920 10156459 9888250 9681528 9577119 9566822 9616820 9689862 
1656.151 9758919 9809413 9836154 9841983 9832324 9812633 9785080 9747939 
1660.008 9697045 9627287 9535220 9420553 9286249 9139297 8989620 8847299 
1663.866 8721691 8618831 8540223 8482307 8436967 8392847 8335558 8251160 
1667.723 8129810 7968567 7774326 7562503 7353582 7165577 7009104 6886652 
1671.581 6793077 6718501 6650128 6574702 6478706 6351730 6190877 6005156 
1675.438 5814812 5642712 5506786 5411025 5347118 5299353 5251661 5193712 
1679.295 5123433 5047736 4977614 4922786 4884383 4853054 4808760 4727657 
1683.153 4590443 4395799 4167485 3946948 3772277 3657952 3596240 3567008 
1687.010 3550639 3532232 3503706 3462823 3411124 3351952 3289315 3228023 
1690.868 3173715 3131829 3105998 3096020 3095820 3093350 3073061 3020107 
1694.725 2927695 2804054 2674014 2569143 2509852 2497588 2514751 2534381 
1698.583 2526216 2466664 2348018 2187475 2023663 1894955 1822712 1802083 
1702.440 1814327 1837053 1852626 1850297 1826006 1782653 1727993 1672110 
1706.297 1623218 1585704 1559899 1543372 1532233 1522989 1513247 1501876 
1710.155 1489607 1477904 1468828 1463309 1461347 1461547 1461480 1459086 
1714.012 1452570 1440569 1421886 1394362 1354575 1299404 1228158 1145295 
1717.870 1061419 990179 942160 921805 925823 945846 971748 993798 1006352 
1722.209 1007481 999212 985928 972578 962483 956804 954745 954878 955974 
1726.549 957136 957369 955277 949366 938740 924561 910317 900787 900256 
1730.888 908856 921407 926554 908889 855003 759798 634914 505986 404058 
1735.228 348345 339889 365622 406944 446876 472814 478453 464323 436594 
1739.568 404257 375405 354811 342973 337866 337004 338761 342575 348610 
1743.907 356933 367114 378456 390527 402831 415699 428800 441735 452780 
1748.247 459381 458651 448369 427307 396563 359819 322613 291511 271883 
1752.586 266545 274967 293501 316213 335379 344763 339425 318899 287731 
1756.926 253814 225999 209424 204916 207733 210916 206805 190032 160199 
1761.266 121055 80655 47284 27767 24453 36382 59280 88046 117244 141604 
1766.087 157050 161359 154862 141339 126225 115620 112736 116647 122182 
1770.427 121618 107533 76413 30716 -20045 -63778 -91274 -99457 -91208 -73253 
1775.249 -52348 -32370 -14611 1722 17561 32538 44203 49173 44666 30915 11199 
1780.553 -7753 -20045 -21934 -14611 -2551 8250 12226 6991 -6229 -23027 
1785.375 -38731 -49234 -52911 -49631 -40587 -26970 -10138 8349 25580 37443 
1790.196 39166 26806 -662 -39759 -82760 -120657 -145864 -155602 -152124 
1794.536 -140796 -127547 -116848 -111183 -110521 -114198 -120856 -129832 
1798.393 -141426 -155635 -171997 -189717 -206740 -221047 -231478 -237406 
1802.251 -239426 -238565 -236015 -232538 -229028 -225915 -223597 -222040 
1806.108 -220914 -218828 -214920 -208594 -200116 -191737 -186173 -186603 
1809.966 -194718 -210151 -230286 -251116 -268865 -281084 -287508 -289759 
1813.823 -290289 -290587 -291117 -290753 -287806 -280356 -267739 -250156 
1817.680 -229591 -207667 -186074 -165539 -146295 -128309 -111614 -96608 
1821.538 -83854 -74611 -69874 -70602 -77294 -89055 -103962 -118636 -129369 
1825.877 -132913 -128905 -119266 -108500 -102604 -107042 -124234 -152853 
1829.735 -186902 -218364 -239526 -246314 -239393 -223232 -203097 -183457 
1833.592 -166466 -152124 -138776 -124532 -109063 -92864 -77228 -63049 -49764 
1837.932 -35451 -17494 6030 35488 69056 103257 134246 158343 172629 176308 
1842.754 169546 155028 137627 122845 117144 124734 146742 180883 222452 
1847.093 265186 303017 332428 352457 364594 372387 378754 384922 390295 
1851.433 392484 389002 379616 365390 349406 334716 322978 313760 305238 
1855.772 294959 281664 265915 249571 234420 221358 209457 196197 179325 
1860.112 157348 131263 103489 77076 54310 36150 22299 12226 6229 5500 11530 
1865.416 24652 42546 60639 72569 73033 60009 36515 9178 -13253 -24385 -22265 
1870.720 -9542 7985 24685 36614 42513 43937 43043 42214 42678 45130 49306 
1876.024 55801 64914 76513 89901 102727 111709 114393 109389 97458 81484 
1880.846 64980 50764 40524 34328 31412 31743 35885 44898 59976 79926 102064 
1886.150 121353 132788 133086 121188 100010 74160 49206 29887 17925 13088 
1890.971 13386 16302 19814 22929 25248 26905 28463 30848 35388 43540 56232 
1896.275 72702 91592 109356 122546 129540 130004 126789 123972 126259 136367 
1901.097 155128 180386 208297 235017 256864 271485 278017 276956 268833 
1905.437 255737 240652 225966 215490 211678 215590 226662 242476 259981 
1909.776 275994 288859 297645 302254 302519 297745 287002 269728 246852 
1914.116 220231 192882 166961 143958 123972 105478 87350 70150 55536 46356 
1918.938 44302 48345 54243 56298 49306 30815 2982 -28096 -54502 -69774 
1923.760 -71696 -63049 -49598 -38168 -33232 -35551 -42608 -50725 -56953 
1928.099 -59802 -60465 -60531 -61227 -62585 -62685 -60167 -54667 -47279 
1932.439 -40421 -36843 -37903 -42707 -50062 -58278 -66428 -75936 -87895 
1936.778 -103067 -120657 -137848 -151031 -158384 -160372 -159676 -161498 
1940.636 -170043 -185908 -206939 -226842 -238665 -236777 -219888 -189187 
1944.493 -149541 -106546 -64540 -27235 3048 25944 41121 50366 56961 64616 
1949.315 76712 95071 118437 141936 159768 166729 160166 142102 117509 92453 
1954.137 70780 52918 35322 12557 -19979 -63148 -113104 -162260 -203461 
1958.476 -229856 -238963 -232604 -214754 -189386 -160306 -130031 -100848 
1962.334 -76002 -59339 -53640 -60531 -78487 -102504 -127911 -149839 -166267 
1966.673 -178357 -189286 -201805 -217371 -235585 -253865 -270322 -283965 
1970.531 -294792 -303170 -310454 -315917 -319460 -322042 -324228 -327340 
1974.388 -331114 -330849 -317970 -280918 -209091 -97800 46356 207170 361046 
1978.728 486249 567559 602098 596092 564374 523435 486083 461636 453079 
1983.067 458850 474506 494707 512488 520847 514445 489632 446180 389897 
1987.407 329344 274834 235779 215689 212872 222684 237503 252355 265849 
1991.747 280106 298375 322513 351197 379484 402698 416562 419414 414306 
1996.086 405020 395137 386979 380744 373846 365754 356038 345858 336507 
2000.426 328316 318369 303083 278149 241548 195137 144786 97756 62130 43937 
2005.248 44567 62694 95767 139317 189800 243802 296717 343802 380976 404854 
2010.069 415069 414472 407640 399680 395137 395767 401173 410525 422896 
2014.409 437855 455765 475999 496300 513417 522937 521046 507412 484756 
2018.749 457291 431354 412449 403295 405186 416562 435467 459281 485121 
2023.088 508772 527316 539093 543075 542444 543075 549179 565767 593172 
2027.428 626983 661129 688972 705798 711174 708917 703143 698430 698530 
2031.767 704238 716683 738721 773340 823764 891059 970452 1052352 1126725 
2036.107 1182738 1216030 1229321 1230118 1228457 1232743 1245902 1265740 
2039.964 1287075 1303924 1312033 1312432 1308112 1302495 1299172 1298274 
2043.822 1298441 1298773 1299338 1302163 1311767 1333004 1369133 1422318 
2047.679 1491103 1571404 1656078 1735611 1798856 1834824 1836454 1801218 
2051.537 1735644 1652220 1568046 1501011 1464572 1463109 1491037 1536157 
2055.394 1581780 1614437 1627973 1622918 1606090 1586535 1571870 1566416 
2059.251 1570839 1583542 1602465 1626211 1653916 1684550 1716816 1748220 
2063.109 1776764 1801751 1824509 1847601 1873257 1902908 1933993 1963082 
2066.966 1985217 1997033 1998798 1993738 1986348 1981122 1980390 1982853 
2070.824 1985549 1985183 1979192 1967609 1952398 1935823 1920281 1907900 
2074.681 1898749 1894289 1896120 1905937 1925706 1955360 1992373 2031719 
2078.539 2068306 2097105 2115484 2124041 2125240 2121910 2117515 2113453 
2082.396 2109957 2107593 2106028 2105262 2106560 2109058 2111921 2113653 
2086.253 2112454 2107293 2098803 2088914 2078993 2070071 2061947 2052259 
2090.111 2039909 2023464 2003824 1983719 1966743 1954994 1950002 1950601 
2093.968 1954894 1960919 1967575 1974599 1983319 1994270 2007020 2020368 
2097.826 2032585 2042372 2050195 2057753 2067174 2080092 2096938 2115783 
2101.683 2134196 2150646 2163699 2173589 2181414 2187875 2192670 2195301 
2105.541 2195135 2191938 2187609 2184445 2185277 2191605 2202694 2215949 
2109.398 2228438 2237197 2241427 2242592 2243125 2245357 2250020 2256048 
2113.255 2260545 2260944 2255715 2244657 2229903 2214151 2199098 2185677 
2117.113 2173622 2161301 2147649 2131966 2114185 2095007 2075397 2055788 
2120.970 2036580 2018903 2003424 1991408 1984118 1981056 1980590 1980324 
2124.828 1976928 1967709 1951999 1930432 1904739 1877617 1850263 1823012 
2128.685 1795495 1765918 1732983 1696525 1656377 1613440 1569775 1527544 
2132.542 1489374 1459220 1440735 1436081 1445921 1467597 1494827 1521194 
2136.400 1539947 1547662 1544702 1534760 1522357 1511618 1504004 1497786 
2140.257 1489973 1478303 1461347 1442198 1425044 1414207 1413110 1422485 
2144.115 1440469 1465270 1494228 1526514 1561229 1597975 1634160 1666123 
2147.972 1690238 1702113 1699219 1681789 1651022 1609449 1559466 1502341 
2151.830 1438375 1368037 1290697 1206560 1116427 1021563 924428 830934 
2155.687 751068 699226 693352 751433 883688 1088490 1347462 1630035 1901311 
2160.027 2128669 2292287 2387863 2423713 2415183 2380866 2337990 2296451 
2163.884 2262943 2240095 2227006 2223875 2229537 2242160 2259812 2279230 
2167.741 2296451 2306744 2306311 2291554 2260112 2213085 2152610 2083887 
2171.599 2014143 1949968 1897684 1862409 1844873 1843509 1855488 1875620 
2175.456 1899314 1922777 1941648 1952132 1952298 1940283 1916953 1886535 
2179.314 1855687 1832062 1822579 1830798 1854722 1889064 1924840 1953630 
2183.171 1970205 1972635 1962350 1943977 1922011 1900379 1883074 1872725 
2187.029 1871594 1881777 1904340 1937521 1977494 2019269 2055755 2083021 
2190.886 2099269 2104962 2103730 2099802 2095273 2092377 2092077 2094874 
2194.743 2102332 2117714 2142487 2177951 2222277 2271303 2319235 2361043 
2198.601 2393160 2414783 2427145 2431610 2428577 2417482 2396125 2363442 
2202.458 2320301 2271569 2224042 2185943 2164265 2162467 2180582 2214816 
2206.316 2259046 2307210 2353514 2392760 2421914 2438807 2442072 2433342 
2210.173 2415550 2393493 2373237 2360277 2357679 2365308 2380133 2397191 
2214.031 2410718 2417315 2414950 2404155 2387596 2367973 2347718 2328863 
2217.888 2311740 2296284 2283027 2271036 2260045 2250153 2240428 2230603 
2221.745 2221011 2211353 2202095 2194002 2187109 2180615 2174688 2168161 
2225.603 2160302 2151112 2140689 2129035 2117182 2105828 2096139 2089547 
2229.460 2087183 2089913 2097904 2110023 2124174 2138192 2149713 2157405 
2233.318 2161501 2163532 2165330 2168927 2175853 2185910 2199098 2214084 
2237.175 2229604 2244524 2258280 2269504 2278131 2284693 2289489 2294452 
2241.032 2301781 2313006 2329096 2349650 2372604 2394792 2413317 2425779 
2244.890 2431610 2432176 2430010 2428178 2429877 2436974 2450602 2470462 
2248.747 2495322 2522349 2549079 2571610 2587009 2594275 2593542 2587109 
2252.605 2579376 2574843 2577009 2586875 2603809 2623742 2642810 2657178 
2256.462 2664746 2665646 2661646 2654745 2646777 2638543 2629609 2619342 
2260.320 2607009 2592575 2576743 2561111 2546812 2535081 2526815 2522050 
2264.177 2520717 2523083 2528315 2535747 2544612 2553411 2560444 2565410 
2268.034 2567477 2567343 2566577 2566343 2567377 2570776 2575876 2581476 
2271.892 2586875 2590842 2592675 2592709 2591542 2590275 2589942 2591709 
2275.749 2595842 2603009 2612542 2624109 2637476 2652478 2668780 2686883 
2279.607 2706787 2728193 2750500 2773208 2795017 2815527 2833969 2849845 
2283.464 2862952 2872925 2879095 2881263 2879562 2874592 2867855 2860918 
2287.322 2855514 2852246 2851245 2851579 2851846 2851279 2849277 2846843 
2291.179 2845375 2846476 2851112 2859483 2870623 2882831 2894872 2905947 
2295.036 2915753 2925260 2935334 2946743 2959754 2973765 2987277 2999088 
2298.894 3007629 3012200 3012734 3010031 3005460 3000923 2998354 2998788 
2302.751 3002724 3009597 3017872 3025346 3030517 3032219 3030718 3027448 
2306.609 3024078 3022209 3022977 3025980 3029950 3033220 3033954 3031051 
2310.466 3024578 3014802 3002958 2990880 2979671 2970830 2965592 2964458 
2314.323 2967493 2974333 2983807 2994317 3004726 3013735 3020908 3026714 
2318.181 3032219 3038826 3048169 3061883 3080836 3105531 3134966 3166773 
2322.038 3196879 3219344 3227922 3217207 3183995 3128191 3054008 2968595 
2325.896 2880296 2797451 2726592 2670813 2630442 2603442 2586409 2576609 
2329.753 2572010 2571410 2574710 2581509 2591175 2602842 2615575 2628543 
2333.611 2641943 2655912 2670914 2686716 2703086 2719090 2734261 2748699 
2337.468 2762904 2777743 2793950 2811458 2829567 2846876 2862218 2874693 
2341.325 2884265 2891070 2896006 2899342 2901310 2902144 2902911 2905646 
2345.183 2913318 2929363 2957118 2997920 3051505 3115142 3185030 3256665 
2349.040 3325373 3387347 3439812 3480926 3510453 3529126 3539180 3543089 
2352.898 3543724 3543657 3544592 3547298 3551841 3557654 3564235 3571518 
2356.755 3579235 3587754 3597343 3607666 3618425 3629150 3639474 3649398 
2360.613 3659222 3669280 3679572 3690231 3700858 3711184 3721310 3731771 
2364.470 3742732 3755031 3768902 3783809 3799251 3814225 3828131 3840767 
2368.327 3852300 3863365 3874431 3886031 3898301 3911507 3926151 3942334 
2372.185 3960791 3981556 4004162 4028240 4052888 4077437 4101887 4127008 
2376.042 4153602 4183375 4217367 4255979 4299011 4346230 4396099 4447816 
2379.900 4500274 4552538 4603838 4653201 4700023 4743870 4785008 4823837 
2383.757 4860995 4897183 4932638 4967225 5000607 5032048 5061379 5088734 
2387.615 5114180 5138052 5160349 5180031 5195926 5206623 5211183 5209339 
2391.472 5202029 5191097 5178891 5167625 5158941 5153643 5151732 5152503 
2395.329 5154649 5156861 5157834 5156828 5153442 5148412 5142612 5137482 
2399.187 5134766 5135705 5141237 5151832 5167055 5186570 5210244 5237810 
2403.044 5269369 5305391 5345508 5389353 5436490 5485947 5536854 5588773 
2406.902 5641503 5695047 5749570 5805142 5861660 5919160 5977676 6036837 
2410.759 6096881 6157638 6218707 6279717 6339659 6397694 6452642 6503359 
2414.616 6548767 6588023 6620488 6645922 6665202 6679737 6691278 6701945 
2418.474 6713251 6725702 6739096 6752153 6763359 6771235 6775038 6774566 
2422.331 6770629 6764335 6756662 6748720 6741384 6735259 6731053 6729875 
2426.189 6732029 6738153 6748216 6761912 6778975 6799102 6822897 6851037 
2430.046 6884329 6923313 6967755 7016680 7068608 7121822 7175346 7228910 
2433.904 7282683 7338147 7395776 7456311 7519551 7584858 7651051 7717693 
2437.761 7784446 7851648 7920244 7991347 8066211 8146251 8232453 8325224 
2441.618 8425076 8531302 8643133 8759386 8878782 9000072 9122445 9245495 
2445.476 9369020 9492885 9617396 9742179 9866998 9991785 10115862 10239296 
2449.333 10362323 10484571 10605970 10726759 10846255 10963849 11078958 
2452.708 11189984 11295360 11393685 11482983 11561682 11629064 11684643 
2456.084 11728248 11760384 11781627 11792386 11792931 11783091 11762665 
2459.459 11731413 11688592 11633045 11564303 11481554 11384909 11275023 
2462.834 11154117 11024646 10889912 10752843 10615444 10479072 10343999 
2466.209 10209511 10075301 9941031 9806939 9674548 9545957 9423228 9308794 
2470.067 9204982 9113139 9034240 8968174 8914259 8870666 8835497 8806383 
2473.924 8781633 8760198 8741603 8725916 8713442 8703774 8695898 8688663 
2477.782 8680787 8671322 8660438 8648811 8637724 8628430 8621298 8615924 
2481.639 8611700 8607474 8602946 8598451 8595105 8594125 8596288 8601662 
2485.497 8609165 8617478 8624982 8630457 8633296 8633634 8631607 8627956 
2489.354 8623360 8618526 8614606 8612882 8614437 8620081 8629984 8642997 
2493.211 8657632 8672303 8685182 8695998 8705126 8713037 8720879 8729466 
2497.069 8738561 8747790 8756884 8765269 8773113 8781295 8790356 8800568 
2500.926 8811963 8823831 8835193 8845473 8854197 8861265 8867048 8871783 
2504.784 8875604 8878816 8881488 8883619 8886155 8889401 8894035 8900529 
2508.641 8908983 8918758 8929377 8940133 8950179 8959717 8968072 8975277 
2512.499 8980926 8984580 8985459 8983531 8978829 8971726 8963337 8954914 
2516.356 8947372 8941588 8937901 8936514 8936920 8939186 8942840 8947811 
2520.213 8954204 8961679 8970102 8978998 8987523 8994727 9000242 9003185 
2524.071 9003861 9002947 9001053 8999700 9000140 9003489 9009984 9019862 
2527.928 9032548 9046723 9061677 9076158 9089184 9100215 9108977 9115644 
2531.786 9121126 9126201 9131920 9139127 9148128 9159092 9171647 9185556 
2535.643 9200346 9215947 9232769 9250876 9270745 9292172 9314887 9338212 
2539.500 9361673 9384595 9406874 9428374 9448760 9467892 9485401 9500979 
2543.358 9514493 9526618 9538099 9549751 9562249 9575459 9588534 9600627 
2547.215 9610756 9618344 9624035 9629116 9635519 9644429 9656423 9670618 
2551.073 9685627 9698977 9708633 9713614 9713512 9709176 9702331 9695012 
2554.930 9689083 9685661 9685594 9688304 9693454 9699858 9706363 9712428 
2558.788 9717782 9722254 9726252 9729913 9732827 9734351 9733538 9729201 
2562.645 9721034 9708972 9693725 9676480 9658388 9640025 9621867 9603947 
2566.502 9586299 9569566 9554492 9542231 9533764 9529158 9528040 9528887 
2570.360 9530140 9530648 9529903 9528514 9527634 9528683 9532342 9538608 
2574.217 9546973 9556152 9565264 9573461 9580845 9587857 9595038 9603439 
2578.075 9613669 9626034 9640974 9658523 9678681 9700840 9724558 9748651 
2581.932 9772067 9794027 9813921 9831883 9848152 9863168 9877099 9890488 
2585.790 9903098 9915505 9928285 9942320 9958796 9978834 10002940 10031015 
2589.647 10062551 10096022 10130004 10163040 10194178 10222876 10249541 
2593.022 10274646 10299278 10324454 10350888 10378747 10407764 10436950 
2596.397 10465087 10491360 10515393 10537832 10559967 10583256 10608857 
2599.773 10637174 10667600 10698639 10728525 10756002 10780525 10802978 
2603.148 10824820 10847785 10873570 10903095 10936189 10972446 11011051 
2606.523 11051359 11092860 11135556 11178968 11223203 11267815 11312669 
2609.898 11357359 11401814 11445833 11489414 11532250 11573627 11612864 
2613.274 11649348 11682533 11712521 11739516 11764060 11786802 11807979 
2616.649 11827727 11845773 11862219 11877032 11890450 11903356 11916127 
2620.024 11929715 11944462 11960742 11978623 11998209 12019396 12042253 
2623.399 12066714 12092741 12120373 12149573 12180105 12211899 12244617 
2626.775 12278426 12313160 12348850 12385908 12424399 12464941 12507976 
2630.150 12553675 12601938 12652559 12704893 12758119 12811797 12865037 
2633.525 12917771 12969965 13021995 13074202 13127236 13181334 13236806 
2636.900 13293753 13351972 13410917 13470075 13528591 13585714 13640963 
2640.276 13694168 13745533 13795536 13844757 13893813 13943149 13992969 
2643.651 14042863 14092968 14142805 14192169 14240921 14289338 14337725 
2647.026 14386391 14435783 14486071 14537426 14589782 14642726 14695916 
2650.401 14749079 14801734 14854156 14906756 14959601 15013654 15069120 
2653.777 15126034 15184190 15242938 15301556 15359256 15415418 15469665 
2657.152 15521927 15572409 15621798 15670849 15720353 15771030 15823293 
2660.527 15876904 15931483 15986070 16039563 16090827 16139416 16185362 
2663.902 16228698 16270250 16310636 16350405 16389562 16428031 16465645 
2667.278 16502572 16538782 16575063 16611861 16649732 16688913 16729373 
2670.653 16770525 16811958 16853082 16893558 16933520 16973002 17012284 
2674.028 17051324 17089958 17127732 17164060 17198566 17230662 17260724 
2677.403 17288756 17315512 17342100 17369136 17397346 17427352 17459118 
2680.779 17492786 17528248 17565440 17604188 17645180 17688766 17735636 
2684.154 17786340 17841300 17900580 17963944 18031186 18102032 18176238 
2687.529 18253430 18333712 18416912 18502894 18591454 18682210 18774472 
2690.904 18867654 18960960 19053940 19145970 19237048 19326866 19416182 
2694.280 19505794 19596464 19689198 19785004 19884196 19986844 20092398 
2697.655 20200234 20309242 20418590 20527758 20636222 20744470 20852816 
2701.030 20962022 21072718 21185320 21299448 21414336 21528976 21642148 
2704.405 21752564 21859386 21961980 22060276 22154060 22243472 22328086 
2707.781 22407486 22480932 22547726 22607234 22658930 22702952 22739402 
2711.156 22768732 22791464 22808086 22818912 22824254 22824150 22818598 
2714.531 22807492 22790730 22768662 22741532 22709690 22673382 22633202 
2717.906 22589084 22541374 22490144 22435816 22378844 22320308 22261050 
2721.281 22202390 22145238 22090676 22039360 21991954 21948666 21909982 
2724.657 21875692 21846074 21820710 21799284 21781620 21767336 21756538 
2728.032 21749186 21745774 21746538 21751764 21761586 21776116 21794928 
2731.407 21817956 21844994 21875936 21910678 21948736 21989968 22033538 
2734.782 22078856 22125050 22171460 22217698 22263246 22308100 22352156 
2738.158 22395448 22438258 22480758 22523086 22565280 22607408 22649052 
2741.533 22690208 22730500 22769604 22807736 22845382 22882928 22920824 
2744.908 22959282 22998340 23037854 23077338 23116858 23156174 23195738 
2748.283 23235446 23275470 23315254 23354520 23392526 23428824 23463796 
2751.659 23498318 23533294 23570130 23609764 23652728 23698812 23747874 
2755.034 23799426 23853086 23908466 23965676 24024362 24084178 24144704 
2758.409 24205132 24265216 24324786 24384084 24443178 24502280 24560688 
2761.784 24617526 24671218 24720178 24763288 24799244 24828012 24849940 
2765.160 24865168 24874430 24877972 24876150 24868852 24856360 24838854 
2768.535 24817102 24791772 24764130 24735192 24706254 24678336 24652560 
2771.910 24629624 24610200 24594454 24582006 24572398 24564650 24557990 
2775.285 24551466 24544734 24537548 24530290 24523524 24517564 24512656 
2778.661 24508940 24505646 24501612 24495690 24486504 24472902 24454394 
2782.036 24431084 24403464 24372798 24340556 24308176 24277234 24248750 
2785.411 24223524 24202048 24184498 24170730 24160360 24153146 24148452 
2788.786 24145718 24144914 24145650 24147926 24152024 24158224 24166876 
2792.162 24178122 24191994 24208004 24225626 24243984 24262204 24279198 
2795.537 24294230 24307088 24317252 24324822 24329972 24332742 24333406 
2798.912 24332110 24328782 24323944 24317498 24309684 24300396 24289604 
2802.287 24276710 24261362 24242934 24220932 24195498 24166876 24136226 
2805.663 24104528 24073426 24043902 24017184 23993756 23973554 23956292 
2809.038 23941552 23928492 23917114 23907486 23899784 23895128 23894112 
2812.413 23897964 23907346 23922612 23943826 23970436 24002092 24038020 
2815.788 24077838 24121480 24168874 24220162 24275904 24336000 24401010 
2819.164 24471114 24546208 24626680 24712708 24804646 24902642 25006938 
2822.539 25117442 25233976 25356022 25482706 25612906 25745642 25879858 
2825.914 26014822 26150354 26285998 26422250 26559248 26696608 26834148 
2829.289 26970818 27105450 27237056 27365066 27488946 27609440 27727318 
2832.665 27843990 27960622 28078878 28199854 28325106 28456230 28594828 
2836.040 28742354 28900306 29069690 29251332 29445742 29654180 29877876 
2839.415 30119550 30382286 30670750 30990218 31346604 31746272 32195940 
2842.790 32702230 33272282 33913040 34630136 35427928 36307012 37262928 
2846.166 38284092 39350112 40431844 41489548 42477196 43346444 44047352 
2849.541 44539796 44795388 44801596 44564172 44105556 43462992 42679740 
2852.916 41803548 40881388 39951992 39048756 38196676 37411444 36703268 
2856.291 36075876 35528636 35057836 34656940 34319092 34035796 33799132 
2859.667 33601760 33437114 33299468 33185006 33090736 33014652 32956026 
2863.042 32914310 32889508 32881502 32891010 32918528 32964748 33031278 
2866.417 33118952 33228532 33359930 33512450 33683892 33871592 34072276 
2869.792 34282336 34497704 34714004 34925924 35128136 35315276 35482360 
2873.167 35626312 35746312 35844216 35923856 35991132 36052688 36114404 
2876.543 36181380 36257592 36345448 36446336 36561048 36690180 36833628 
2879.918 36991484 37163260 37349076 37548628 37761428 37986628 38222836 
2883.293 38467316 38716024 38964012 39205572 39435008 39647024 39838228 
2886.668 40006524 40152232 40277708 40387404 40487084 40584244 40686956 
2890.044 40803488 40942112 41111344 41319048 41574572 41888556 42272884 
2893.419 42743024 43315692 44007752 44835504 45809404 46931764 48191032 
2896.794 49560432 50994668 52428424 53786776 54985628 55942332 56592428 
2900.169 56892116 56828360 56418376 55708456 54764932 53659776 52469400 
2903.545 51261360 50088800 48994348 48007032 47145076 46420016 45837424 
2906.920 45399276 45105536 44955100 44946572 45078956 45351972 45764708 
2910.295 46315016 46997776 47802396 48711400 49701656 50741212 51792364 
2913.670 52815688 53768592 54611604 55313188 55849020 56207176 56386800 
2917.046 56398532 56260768 55995700 55628644 55182276 54676084 54126348 
2920.421 53544880 52940044 52318152 51683484 51039644 50390620 49741372 
2923.796 49098292 48468828 47861252 47283672 46742836 46243620 45788896 
2927.171 45379116 45013128 44688392 44401300 44147620 43921332 43716120 
2930.547 43524412 43337616 43147212 42944664 42721084 42469012 42181260 
2933.922 41851740 41476788 41055036 40587920 40079804 39537808 38970500 
2937.297 38386444 37794900 37204228 36621680 36054956 35510800 34995628 
2940.672 34515680 34075144 33676516 33320002 33003676 32722916 32472078 
2944.048 32244008 32030754 31823990 31615432 31398214 31166828 30918842 
2947.423 30655318 30380830 30102254 29828188 29567558 29327114 29111604 
2950.798 28922832 28759914 28619954 28498616 28391528 28293806 28200878 
2954.173 28108854 28013880 27912744 27803082 27682960 27551572 27408792 
2957.549 27255720 27094236 26926998 26757040 26587216 26420136 26257628 
2960.924 26100808 25949954 25805414 25667106 25535556 25411490 25296032 
2964.299 25190330 25095676 25012836 24942468 24884570 24839098 24805454 
2967.674 24783038 24771250 24769428 24777670 24796648 24827836 24873378 
2971.050 24935696 25016978 25118074 25238366 25375238 25524134 25678566 
2974.425 25830378 25971166 26090958 26180830 26232566 26239502 26197792 
2977.800 26106932 25970252 25794056 25587918 25363154 25131098 24902782 
2981.175 24687632 24492814 24322964 24180118 24063830 23971172 23897614 
2984.551 23837824 23785636 23736010 23685236 23631176 23573696 23514056 
2987.926 23454284 23396408 23341720 23290676 23242050 23194026 23143908 
2991.301 23088904 23027094 22957398 22879958 22796770 22710912 22625838 
2994.676 22545282 22472488 22409790 22358262 22317972 22288498 22268686 
2998.052 22257072 22252468 22253586 22259304 22268826 22281452 22297044 
3001.427 22315390 22336494 22360180 22386100 22413766 22442794 22472732 
3004.802 22503614 22535718 22569712 22605942 22644862 22686614 22730884 
3008.177 22777532 22826418 22877584 22931094 22987022 23045120 23104944 
3011.552 23165890 23227336 23288894 23350848 23413614 23477786 23543824 
3014.928 23611828 23681456 23752004 23822842 23893412 23963470 24033012 
3018.303 24102320 24171676 24241392 24311784 24383102 24455796 24529904 
3021.678 24605500 24682580 24760306 24838046 24915062 24990864 25065242 
3025.053 25138400 25210766 25282756 25354512 25426246 25498308 25571154 
3028.429 25645244 25721382 25800034 25881230 25964378 26048314 26131456 
3031.804 26212504 26290330 26364434 26435208 26503282 26570062 26636712 
3035.179 26704922 26775892 26850928 26930664 27015246 27103900 27195536 
3038.554 27288424 27381300 27473170 27563612 27653014 27742152 27831908 
3041.930 27923096 28016108 28111256 28208550 28307598 28408120 28509230 
3045.305 28609868 28709148 28806152 28900732 28993456 29085704 29179032 
3048.680 29274796 29373448 29474890 29577526 29679902 29780740 29879508 
3052.055 29976382 30072248 30167778 30263866 30360364 30457058 30553530 
3055.431 30649878 30746140 30843350 30941898 31042354 31144328 31247502 
3058.806 31351198 31455062 31558954 31662970 31767304 31871874 31976502 
3062.181 32080732 32184270 32287228 32389958 32493144 32597422 32703444 
3065.556 32810918 32919492 33028632 33137762 33246740 33355818 33465136 
3068.932 33575016 33685608 33796768 33908492 34020852 34133852 34247992 
3072.307 34363344 34480056 34597804 34716336 34835044 34953464 35071232 
3075.682 35188244 35304100 35418944 35532880 35646236 35759876 35874840 
3079.057 35992140 36112388 36235728 36361336 36487560 36612992 36736512 
3082.433 36857756 36977484 37096852 37217404 37339868 37464640 37590716 
3085.808 37717080 37842180 37965472 38086556 38206228 38325532 38445812 
3089.183 38568440 38694112 38823368 38955640 39090376 39226316 39362008 
3092.558 39496328 39628404 39758304 39886788 40014984 40144056 40275240 
3095.934 40408748 40544192 40680988 40818008 40954928 41091636 41228424 
3099.309 41366056 41504752 41644804 41785780 41927056 42067868 42208028 
3102.684 42347104 42485344 42622900 42760096 42896932 43033596 43170116 
3106.059 43306576 43443216 43580528 43718576 43857916 43998948 44141536 
3109.435 44285488 44430368 44575480 44719980 44863168 45004272 45143364 
3112.810 45280808 45417340 45554388 45692628 45832820 45975128 46119356 
3116.185 46264884 46411496 46558820 46707156 46856500 47007444 47159960 
3119.560 47314040 47469288 47625216 47781536 47937912 48093896 48249532 
3122.936 48404076 48557116 48708064 48856208 49001208 49143108 49282384 
3126.311 49419692 49556568 49694336 49834160 49976816 50122376 50270484 
3129.686 50420052 50569864 50719128 50867248 51014268 51160740 51307148 
3133.061 51453908 51600640 51746936 51892124 52035716 52177904 52319424 
3136.437 52461512 52605480 52752116 52901904 53054672 53209324 53364856 
3139.812 53519992 53673348 53823796 53970432 54112608 54250784 54385992 
3143.187 54520348 54656244 54796060 54941176 55091876 55246804 55403932 
3146.562 55560556 55715200 55866692 56015716 56163208 56310708 56459168 
3149.938 56609224 56760464 56912628 57064880 57216584 57366980 57515832 
3153.313 57662552 57807044 57949160 58089428 58228456 58366808 58504900 
3156.688 58642884 58780648 58917656 59054176 59190248 59326516 59464036 
3160.063 59603240 59743972 59885884 60028228 60170200 60311952 60453668 
3163.438 60595932 60738736 60881700 61023796 61163580 61299588 61431668 
3166.814 61560088 61686288 61811536 61937008 62062748 62188676 62313952 
3170.189 62437924 62560708 62682456 62803744 62924640 63045068 63164428 
3173.564 63282280 63398132 63511908 63623948 63733904 63841476 63946112 
3176.939 64047320 64145020 64240360 64334988 64431020 64529420 64630492 
3180.315 64732752 64833872 64931632 65024792 65113672 65199636 65284536 
3183.690 65370148 65457092 65544664 65631680 65717204 65800436 65881796 
3187.065 65962128 66042200 66122332 66202784 66283064 66362888 66442268 
3190.440 66521384 66600404 66678904 66755632 66829628 66899784 66965768 
3193.816 67028784 67090304 67151864 67214104 67276840 67338320 67397208 
3197.191 67452320 67504184 67554312 67605064 67658600 67716192 67777296 
3200.566 67840744 67904704 67968048 68029616 68089728 68148648 68206408 
3203.941 68263088 68318464 68372328 68425080 68477016 68528736 68580104 
3207.317 68630552 68678792 68724008 68765736 68804440 68841592 68879104 
3210.692 68918208 68959408 69002008 69044896 69087152 69128416 69168744 
3214.067 69209304 69250696 69292976 69335504 69377168 69417096 69455200 
3217.442 69492448 69529888 69569136 69610704 69654704 69700296 69746784 
3220.818 69793712 69841368 69890216 69940968 69993984 70048768 70104240 
3224.193 70159464 70213448 70266024 70317448 70367976 70417968 70467344 
3227.568 70515984 70563688 70610624 70657448 70704856 70753912 70805000 
3230.943 70858240 70913904 70971880 71032048 71094648 71159632 71226576 
3234.319 71294976 71364208 71433960 71504464 71576432 71650792 71727976 
3237.694 71807632 71888368 71968528 72046112 72120280 72191328 72260392 
3241.069 72328688 72397264 72465880 72533776 72599448 72661960 72721736 
3244.444 72780224 72839816 72902912 72971072 73044368 73122112 73202856 
3247.820 73284944 73367480 73450120 73532256 73613936 73694248 73772584 
3251.195 73848304 73921048 73991288 74059192 74126232 74192616 74258728 
3254.570 74324344 74388840 74451880 74512848 74571184 74626776 74678760 
3257.945 74727080 74771400 74812176 74850008 74885832 74920280 74954024 
3261.321 74987064 75018720 75048608 75076496 75102064 75125072 75145312 
3264.696 75162208 75174656 75181832 75182816 75177808 75167176 75151856 
3268.071 75133136 75112104 75089416 75065544 75040888 75015848 74990560 
3271.446 74965320 74939536 74912288 74882168 74848544 74810912 74770416 
3274.822 74728656 74687488 74648296 74610960 74574176 74535896 74493968 
3278.197 74447120 74395368 74339488 74281416 74222680 74164632 74107880 
3281.572 74052984 74000520 73951144 73905488 73863976 73826384 73791712 
3284.947 73758368 73724880 73690016 73652912 73613504 73571888 73528448 
3288.323 73483584 73437712 73391728 73347400 73305936 73268784 73236976 
3291.698 73210192 73187680 73168624 73152664 73140040 73131760 73129096 
3295.073 73132504 73142160 73156312 73173088 73191408 73210352 73229960 
3298.448 73251216 73274400 73299232 73324568 73348296 73368936 73385840 
3301.823 73400160 73413936 73430184 73451128 73478528 73512632 73553128 
3305.199 73599096 73649576 73703792 73761160 73820936 73882360 73944816 
3308.574 74007952 74071992 74136840 74203032 74270248 74338152 74406024 
3311.949 74473392 74540424 74608280 74678168 74751400 74828192 74907208 
3315.324 74986392 75063304 75136608 75206064 75273200 75339648 75406688 
3318.700 75474640 75541712 75605672 75664152 75715984 75761576 75802576 
3322.075 75841080 75878840 75916600 75954456 75991824 76028016 76063000 
3325.450 76096832 76129168 76159328 76185712 76206560 76220464 76226736 
3328.825 76225632 76217376 76202488 76180376 76149776 76109784 76059840 
3332.201 76001536 75937168 75869928 75802416 75735424 75668056 75597584 
3335.576 75521128 75436720 75344016 75243848 75138104 75028016 74913856 
3338.951 74794736 74668760 74534320 74390488 74236992 74074472 73903608 
3342.326 73725432 73540808 73350736 73156936 72960960 72764472 72568360 
3345.702 72372640 72175760 71976032 71772144 71563536 71351712 71138944 
3349.077 70927872 70721072 70519288 70322704 70130336 69940888 69752848 
3352.452 69565784 69379040 69192288 69005776 68819896 68635480 68453904 
3355.827 68276584 68104728 67938488 67777032 67618888 67462536 67307328 
3359.203 67153336 67002648 66857032 66717804 66585108 66457288 66332116 
3362.578 66207492 66082360 65957188 65833360 65712968 65597036 65485680 
3365.953 65377780 65271712 65166064 65060548 64955452 64851688 64749828 
3369.328 64649492 64549176 64447044 64340868 64229220 64111144 63986772 
3372.704 63856096 63719748 63577952 63430996 63278748 63121052 62957152 
3376.079 62785560 62603920 62409848 62200912 61975644 61733572 61475868 
3379.454 61204360 60920780 60626104 60320324 60002624 59671776 59327120 
3382.829 58969004 58598360 58217128 57827104 57430204 57027476 56619720 
3386.205 56207368 55790772 55370284 54946180 54519032 54089304 53657752 
3389.580 53225392 52793532 52364052 51938840 51519748 51108592 50705868 
3392.955 50312188 49926816 49548248 49175056 48804892 48435968 48066876 
3396.330 47696952 47326236 46955648 46586008 46218260 45852264 45487644 
3399.706 45123620 44760272 44398068 44038552 43683988 43336192 42996060 
3403.081 42662852 42334136 42006692 41677664 41344664 41007656 40667748 
3406.456 40327116 39987700 39651420 39318988 38990396 38665464 38343808 
3409.831 38025396 37710576 37399452 37091836 36787356 36485400 36185452 
3413.207 35887544 35591932 35300180 35014160 34735792 34466712 34208020 
3416.582 33959260 33718660 33483494 33249852 33013866 32772794 32525924 
3419.957 32274984 32023336 31776074 31538106 31312808 31100868 30900660 
3423.332 30708372 30519474 30329770 30136526 29939108 29738442 29536312 
3426.708 29334948 29136262 28940930 28748974 28560006 28373100 28187514 
3430.083 28002606 27818202 27634616 27452028 27271208 27092614 26916422 
3433.458 26742696 26571120 26401828 26234538 26069494 25907326 25748664 
3436.833 25593928 25443322 25296172 25151532 25007852 24863730 24717828 
3440.208 24569700 24419412 24267706 24116190 23966376 23819378 23676242 
3443.584 23535848 23396548 23255546 23109730 22957152 22797644 22633622 
3446.959 22468964 22309216 22159186 22021476 21896078 21779982 21669002 
3450.334 21558258 21444204 21325166 21201532 21074422 20945088 20814994 
3453.709 20683722 20551276 20417374 20282334 20147822 20015954 19888670 
3457.085 19767354 19652206 19542252 19435586 19330400 19224720 19117332 
3460.460 19007586 18895130 18779870 18662042 18542246 18421302 18300464 
3463.835 18181248 18064688 17952030 17843820 17740330 17641040 17545670 
3467.210 17453324 17363102 17274138 17185984 17098230 17010836 16924114 
3470.586 16838202 16753478 16669702 16586628 16503708 16420737 16337745 
3473.961 16255148 16173908 16094163 16016081 15939217 15862882 15786629 
3477.336 15710458 15635125 15561420 15490164 15421255 15354244 15288274 
3480.711 15222828 15158422 15096838 15040648 14991839 14951473 14918175 
3484.087 14888993 14860088 14828133 14791004 14749388 14704965 14660169 
3487.462 14616681 14575425 14535952 14498061 14461816 14428967 14401838 
3490.837 14382727 14372487 14369815 14371117 14371664 14367554 14356390 
3494.212 14339506 14319952 14302898 14293139 14294234 14308137 14334746 
3497.588 14373171 14422116 14479904 14544998 14615345 14688376 14761077 
3500.963 14831082 14896880 14959292 15020891 15085585 15158148 15242080 
3504.338 15339656 15451021 15574710 15708432 15848413 15991639 16134910 
3507.713 16275305 16411651 16543979 16674349 16805550 16941994 17086752 
3511.089 17241626 17406520 17578896 17755724 17933384 18109354 18282148 
3514.464 18451310 18616734 18778000 18934310 19084198 19226486 19360192 
3517.839 19484966 19600796 19707470 19804008 19888566 19958292 20010334 
3521.214 20041942 20051554 20038230 20002596 19945906 19870148 19777514 
3524.590 19669852 19548422 19413478 19264306 19099398 18916762 18715314 
3527.965 18494944 18256748 18003624 17738880 17466120 17187914 16906614 
3531.340 16623532 16339637 16055206 15770411 15484670 15197230 14906995 
3534.715 14613631 14317897 14021953 13728981 13442528 13165145 12898144 
3538.091 12640279 12389146 12141975 11896579 11652377 11410046 11171421 
3541.466 10938126 10711578 10491360 10276886 10065908 9856151 9645615 
3544.841 9432878 9217910 9002238 8789308 8584053 8391259 8215502 8058311 
3548.698 7918185 7790315 7667306 7541836 7407774 7262602 7107777 6948462 
3552.556 6791360 6642692 6506756 6384546 6274439 6173098 6077694 5984932 
3556.413 5893230 5800944 5707233 5610958 5510812 5406160 5297575 5186302 
3560.271 5075492 4968666 4869237 4780183 4702870 4636522 4578455 4523878 
3564.128 4466763 4400350 4319390 4220646 4105901 3980553 3854138 3736817 
3567.986 3636634 3556719 3494821 3444921 3399302 3351685 3298129 3237804 
3571.843 3172580 3105164 3038626 2974399 2912918 2852546 2792616 2731860 
3575.700 2670314 2608675 2547779 2488391 2430910 2374536 2318902 2263143 
3579.558 2207057 2150745 2094841 2040108 1988013 1939884 1897451 1861710 
3583.415 1833626 1812497 1796128 1780391 1760063 1729390 1683951 1621954 
3587.273 1545201 1459785 1374053 1296480 1233674 1188585 1160710 1146126 
3591.130 1139648 1135429 1127921 1112773 1087394 1051222 1005688 953284 
3594.988 897633 842055 789174 740613 697136 658541 624462 594831 569450 
3599.327 548980 534184 525658 523402 526321 532293 538496 542146 541184 
3603.667 534515 522174 504626 482235 454538 420409 377958 325896 264556 
3608.006 196993 128015 64417 11033 -29521 -58610 -80541 -100848 -124599 
3612.346 -155039 -192134 -233267 -274031 -310057 -338233 -357799 -369750 
3616.203 -376636 -381900 -389878 -403947 -427152 -460617 -502783 -549842 
3620.061 -596169 -635774 -665020 -682389 -689204 -688377 -683216 -675673 
3623.918 -666145 -654103 -638255 -618403 -597856 -582139 -580021 -600503 
3627.776 -649603 -726882 -822766 -920911 -1003794 -1060352 -1087983 -1091685 
3631.633 -1080018 -1061277 -1042866 -1029082 -1022471 -1023529 -1032024 
3635.008 -1046866 -1066797 -1090462 -1115845 -1140961 -1163267 -1181079 
3638.384 -1193239 -1200178 -1203217 -1204572 -1206423 -1210355 -1216699 
3641.759 -1224992 -1233582 -1240389 -1243593 -1241743 -1234507 -1222844 
3645.134 -1208603 -1194758 -1184746 -1182400 -1190892 -1212833 -1249078 
3648.509 -1298369 -1357267 -1419888 -1478869 -1525822 -1553854 -1559367 
3651.885 -1542067 -1506374 -1459121 -1409386 -1366119 -1337217 -1327769 
3655.260 -1339132 -1367407 -1403970 -1439307 -1465429 -1477581 -1476392 
3658.635 -1465429 -1449743 -1433726 -1421143 -1413613 -1411533 -1413977 
3662.010 -1419327 -1425932 -1431976 -1435377 -1434882 -1429036 -1416388 
3665.385 -1396671 -1370049 -1337811 -1302895 -1269462 -1242338 -1225686 
3668.761 -1220862 -1224761 -1228098 -1217822 -1180616 -1108276 -1000587 
3672.136 -864599 -713816 -564634 -433938 -339954 -296912 -311911 -380874 
3675.993 -489379 -618867 -753311 -884539 -1010769 -1132270 -1249111 -1358126 
3679.851 -1454630 -1533714 -1592678 -1631929 -1654540 -1664541 -1665003 
3683.226 -1657742 -1642360 -1618593 -1587892 -1553160 -1519912 -1494355 
3686.601 -1482534 -1488181 -1511691 -1549463 -1595253 -1642393 -1685830 
3689.977 -1723257 -1754840 -1781272 -1802952 -1818856 -1828193 -1830206 
3693.352 -1825554 -1815622 -1803183 -1790413 -1779490 -1770812 -1763585 
3696.727 -1756787 -1748900 -1738900 -1726987 -1714313 -1702762 -1694610 
3700.102 -1691441 -1694346 -1702960 -1715535 -1729363 -1741276 -1748537 
3703.478 -1749263 -1742596 -1729363 -1710386 -1687547 -1662726 -1637804 
3706.853 -1614499 -1594593 -1579638 -1571418 -1571748 -1581586 -1601757 
3710.228 -1632259 -1670813 -1714313 -1757249 -1793911 -1819318 -1830404 
3713.603 -1826808 -1810838 -1786684 -1758866 -1732300 -1710683 -1696260 
3716.979 -1689329 -1688834 -1692332 -1697448 -1702036 -1705171 -1706888 
3720.354 -1707944 -1708769 -1709726 -1710749 -1710749 -1709363 -1706557 
3723.729 -1703257 -1700749 -1700947 -1704709 -1711772 -1719957 -1725765 
3727.104 -1724676 -1713785 -1691969 -1661042 -1625129 -1589806 -1561183 
3730.479 -1543718 -1539359 -1546788 -1562041 -1579803 -1596343 -1610901 
3733.855 -1626383 -1647113 -1676391 -1713884 -1754972 -1791799 -1816150 
3737.230 -1823574 -1813907 -1791073 -1759427 -1723158 -1683619 -1640610 
3740.605 -1593405 -1543256 -1494619 -1455984 -1438680 -1452913 -1503139 
3743.980 -1581817 -1669162 -1738471 -1770350 -1760417 -1717647 -1658435 
3747.356 -1599017 -1553325 -1529487 -1529751 -1550024 -1583567 -1622026 
3750.731 -1659425 -1692761 -1720386 -1741012 -1752299 -1752035 -1739362 
3754.106 -1716162 -1686491 -1655497 -1627703 -1606577 -1592744 -1585251 
3757.481 -1582312 -1582378 -1585118 -1591391 -1601493 -1614466 -1627142 
3760.857 -1634867 -1634405 -1624204 -1606147 -1584788 -1565871 -1553788 
3764.232 -1550585 -1554415 -1560919 -1564584 -1562107 -1553061 -1540944 
3767.607 -1531468 -1529487 -1538666 -1558476 -1584986 -1611825 -1632556 
3770.982 -1642558 -1640709 -1628067 -1607897 -1584062 -1559929 -1537544 
3774.358 -1518261 -1501884 -1488114 -1476260 -1466122 -1458494 -1454564 
3777.733 -1455984 -1463910 -1478010 -1496336 -1515290 -1530643 -1539558 
3781.108 -1540944 -1536091 -1528662 -1522256 -1520143 -1524139 -1533681 
3784.483 -1546359 -1559367 -1569569 -1575247 -1575809 -1572309 -1565772 
3787.859 -1557617 -1549298 -1541836 -1536058 -1532657 -1531667 -1532294 
3791.234 -1532987 -1531700 -1526549 -1516808 -1503403 -1489237 -1478010 
3794.609 -1473618 -1477548 -1488940 -1503502 -1514266 -1515092 -1501950 
3797.984 -1475368 -1440298 -1405456 -1381312 -1377283 -1398586 -1443600 
3801.360 -1502511 -1559268 -1598423 -1611033 -1597597 -1566168 -1529289 
3804.735 -1500431 -1490063 -1503337 -1538171 -1584788 -1629552 -1658600 
3808.110 -1664838 -1648862 -1617140 -1577624 -1537478 -1500332 -1466353 
3811.485 -1433462 -1399379 -1363509 -1328364 -1299096 -1281851 -1281785 
3814.861 -1300285 -1332989 -1369521 -1397727 -1407966 -1397199 -1369290 
3818.236 -1333781 -1302763 -1287765 -1297081 -1333451 -1392542 -1461697 
3821.611 -1524238 -1566333 -1580563 -1568975 -1539095 -1501620 -1466452 
3824.986 -1440661 -1427121 -1424380 -1427682 -1430423 -1427319 -1416090 
3828.362 -1397827 -1375896 -1354657 -1337679 -1326481 -1320436 -1316934 
3831.737 -1312607 -1304514 -1290870 -1271511 -1247988 -1223406 -1201169 
3835.112 -1185506 -1181012 -1190892 -1216864 -1257271 -1307652 -1360041 
3838.487 -1406314 -1440397 -1459319 -1464108 -1458659 -1447563 -1435113 
3841.863 -1424380 -1416586 -1411632 -1408593 -1406182 -1402880 -1397562 
3845.238 -1389107 -1376754 -1359942 -1338505 -1313036 -1283536 -1250399 
3848.613 -1213427 -1172817 -1128932 -1084183 -1043494 -1014901 -1008125 
3851.988 -1033578 -1096643 -1193602 -1308412 -1417543 -1499209 -1542199 
3855.364 -1547911 -1525723 -1487553 -1442973 -1399148 -1359744 -1326085 
3858.739 -1298039 -1275640 -1258296 -1246005 -1238274 -1234342 -1233252 
3862.114 -1234607 -1238637 -1246633 -1259915 -1277656 -1297312 -1313169 
3865.489 -1319049 -1310394 -1286608 -1252117 -1215608 -1187059 -1175659 
3868.865 -1185936 -1216038 -1256809 -1294867 -1319974 -1327307 -1319478 
3872.240 -1303357 -1287533 -1277854 -1276433 -1281224 -1286840 -1287566 
3875.615 -1279274 -1261137 -1235532 -1206423 -1178997 -1157848 -1146976 
3878.990 -1148331 -1161450 -1183127 -1207612 -1227734 -1237646 -1234045 
3882.365 -1218516 -1196080 -1174767 -1163003 -1167332 -1189703 -1225686 
3885.741 -1265366 -1297081 -1310658 -1302763 -1276169 -1238704 -1199517 
3889.116 -1167431 -1148793 -1146513 -1159137 -1181806 -1207976 -1230906 
3892.491 -1245807 -1250399 -1244684 -1229915 -1208240 -1181905 -1153288 
3895.866 -1124470 -1097899 -1075787 -1059988 -1051725 -1050998 -1056815 
3899.242 -1067062 -1078828 -1089636 -1098130 -1104608 -1110755 -1119381 
3902.617 -1132468 -1150974 -1172751 -1194428 -1211081 -1218813 -1216368 
3905.992 -1204704 -1187489 -1168588 -1151602 -1138879 -1130617 -1125627 
3909.367 -1122091 -1118588 -1114424 -1109598 -1104740 -1100014 -1095288 
3912.743 -1090132 -1083786 -1076515 -1069012 -1063029 -1059922 -1060352 
3916.118 -1063294 -1066995 -1068912 -1067260 -1061740 -1053642 -1045048 
3919.493 -1038272 -1034735 -1033908 -1034305 -1034569 -1033115 -1030140 
3922.868 -1026239 -1023198 -1022174 -1023826 -1027859 -1032851 -1037710 
3926.244 -1041346 -1043395 -1043726 -1042536 -1039924 -1035759 -1030272 
3929.619 -1024091 -1018306 -1014472 -1013711 -1016587 -1022372 -1029181 
3932.994 -1034966 -1037445 -1036156 -1031429 -1024454 -1017017 -1010339 
3936.369 -1004720 -999199 -992819 -984058 -972058 -956982 -940451 -924482 
3940.227 -911355 -903684 -902626 -908677 -920679 -936219 -952221 -965809 
3944.084 -974306 -977017 -974306 -967991 -960354 -953676 -948981 -946700 
3947.942 -945576 -944022 -940517 -933938 -924217 -911983 -898559 -885233 
3951.799 -873197 -863178 -855671 -850810 -848859 -849322 -851537 -854580 
3955.656 -856961 -857391 -855043 -849520 -841253 -831497 -821212 -811555 
3959.514 -803419 -797234 -793100 -791083 -791017 -792670 -795779 -799285 
3963.371 -802460 -804147 -803783 -800806 -795482 -788040 -778978 -768658 
3967.229 -757280 -744810 -731546 -717587 -703428 -689931 -677427 -666046 
3971.086 -655724 -646196 -637461 -629454 -623135 -618900 -617775 -619892 
3974.944 -624789 -631009 -637428 -642325 -644872 -644740 -641928 -636832 
3978.801 -629984 -621745 -612746 -603514 -594977 -588128 -583661 -582039 
3982.658 -582966 -585812 -589551 -593157 -596003 -598220 -600238 -602720 
3986.516 -606128 -610628 -616021 -621911 -628065 -634153 -640306 -645931 
3990.373 -650232 -652151 -650066 -643086 -631142 -615757 -599213 -585249 
3994.231 -576911 -576315 -583396 -596169 -611091 -624525 -633325 -635873 
3998.088 -632664 -625021 -615690 -607220 -601165 -598187 
##END=
