
##TITLE=mdmaHCL00446_6
##JCAMP-DX=5.01  $$ Nicolet v. 1
##DATATYPE=INFRARED SPECTRUM
##ORIGIN=UniL
##OWNER=Nicolet
##LONGDATE=2011/08/23
##TIME=09:14:53
##SPECTROMETER/DATA SYSTEM=Nicolet iS5
##DATA PROCESSING=
Ratio against background
%Transmittance->Absorbance
Truncated
ElementMultiply or ElementDivide
##COMMENTS=
Number of sample scans: 32
Collection length: 51.20 sec
Sample gain: 2.0
Background collected on: Mar Aout 23 09:13:11 2011 (GMT+02:00);
Number of background scans: 32
Background gain: 2.0
Sample spacing:  1.000
Number of scan points: 12415
Resolution points: 8192
Number of FFT points: 65536
Apodization: N-B fort;
Phase correction: Mertz;
Laser frequency: 15798.0 cm-1
Number of rejected sample scans: 0
Number of rejected background scans: 0
Bench serial number: ASB1000141;
##RESOLUTION=4.000
##XUNITS=1/CM
##YUNITS=ABSORBANCE
##FIRSTX=649.893372
##LASTX=4000.122314
##FIRSTY=0.110343
##MAXX=4000.122314
##MINX=649.893372
##MAXY=0.249995
##MINY=-0.002801
##XFACTOR=1.000000
##YFACTOR=1.000000E-009
##NPOINTS=6950
##DELTAX=0.482117
##ZPD=6100
##XYDATA=(X++(Y..Y))
649.893 110342560 109628640 108982992 108455984 108072120 107832808 
652.786 107725152 107729864 107828600 108005576 108244688 108527448 
655.679 108833840 109150472 109474496 109820000 110211136 110671024 
658.571 111209928 111817192 112460880 113101784 113708432 114268104 
661.464 114789448 115293960 115805240 116335880 116883952 117436448 
664.357 117976960 118491192 118965472 119384080 119722680 119949680 
667.250 120039880 119995368 119860288 119702216 119581320 119519840 
670.142 119498848 119472016 119385560 119200448 118900376 118499944 
673.035 118033392 117541024 117048952 116559816 116057640 115521936 
675.928 114942256 114325272 113691632 113063608 112452896 111854784 
678.820 111250984 110619976 109951096 109247312 108525872 107806048 
681.713 107102216 106417168 105745680 105079992 104418352 103767320 
684.606 103138176 102540200 101975520 101436856 100913272 100397544 99891896 
687.981 99407448 98960456 98562360 98214016 97905048 97617832 97337984 
691.355 97061624 96798200 96564768 96380480 96257840 96198256 96196064 
694.730 96243168 96336384 96480560 96686464 96964360 97320408 97751808 
698.105 98249448 98802232 99402704 100049264 100745352 101493824 102291848 
701.480 103128224 103986128 104845904 105691712 106515400 107313928 
704.373 108085288 108825032 109522456 110163696 110738104 111241864 
707.265 111680776 112066424 112410576 112719336 112991272 113221320 
710.158 113408896 113562680 113704424 113862104 114061896 114319624 
713.051 114633800 114987376 115352120 115699656 116005576 116252896 
715.943 116432776 116541352 116579712 116555048 116485072 116398128 
718.836 116327992 116309632 116367928 116509424 116721312 116975080 
721.729 117235448 117464936 117633160 117716656 117697888 117566608 
724.621 117322264 116977416 116560864 116116256 115695592 115342912 
727.514 115087040 114932800 114864336 114853192 114871240 114902104 
730.407 114942560 114999720 115081808 115192088 115323808 115466008 
733.300 115607936 115745712 115884888 116035312 116204832 116394136 
736.192 116594960 116795192 116985440 117164456 117340024 117524432 
739.085 117727128 117947608 118175648 118394656 118591096 118759888 
741.978 118906600 119042392 119179040 119320096 119460768 119591568 
744.870 119705136 119801480 119890248 119984888 120096328 120226880 
747.763 120369328 120510432 120637616 120746632 120841288 120931584 
750.656 121025704 121125712 121226576 121319368 121396880 121458936 
753.548 121511304 121562672 121618224 121675264 121724816 121756872 
756.441 121767008 121761040 121753104 121758712 121788144 121839512 
759.334 121900224 121952608 121982792 121987488 121974056 121955376 
762.227 121942032 121936680 121933688 121923072 121898464 121862144 
765.119 121824984 121801216 121801088 121825776 121867448 121914384 
768.012 121956120 121989944 122019960 122054192 122099880 122162072 
770.905 122246584 122365328 122538392 122791488 123142392 123586456 
773.797 124081152 124549120 124884224 124975672 124744920 124156416 
776.690 123227888 122012936 120579880 118982416 117243912 115356744 
779.583 113293608 111027288 108542720 105848696 102975824 99973720 96899200 
782.958 93812160 90773776 87837336 85048760 82444232 80043664 77854656 
786.332 75872608 74085672 72479352 71040592 69759232 68627872 67639368 
789.707 66786312 66059680 65451004 64953872 64566060 64289496 64127736 
793.082 64083764 64154932 64330144 64587852 64897656 65220036 65507016 
796.457 65708728 65772564 65647864 65295628 64692372 63837448 62753624 
799.832 61487664 60102196 58661848 57232460 55868276 54606984 53472320 
803.206 52471568 51598920 50839760 50175000 49586948 49061044 48590172 
806.581 48172672 47810388 47503924 47248944 47032924 46837564 46639052 
809.956 46414228 46145700 45823028 45443824 45011952 44534360 44019556 
813.331 43475772 42912480 42340528 41771988 41220300 40696892 40210168 
816.706 39763968 39357876 38988696 38651844 38343736 38062468 37806936 
820.081 37577420 37373776 37195492 37042760 36915220 36813684 36739756 
823.455 36695080 36681416 36699844 36750972 36833992 36946892 37084256 
826.830 37236536 37389484 37523376 37616120 37647592 37602064 37473564 
830.205 37266608 36996392 36682820 36348476 36014564 35696632 35405568 
833.580 35147212 34922836 34730512 34564724 34417356 34278500 34137684 
836.955 33986812 33821660 33643036 33456546 33271528 33097748 32942656 
840.329 32810740 32703228 32617498 32549672 32495714 32451938 32416128 
843.704 32387424 32366112 32353904 32353226 32367148 32398276 32448188 
847.079 32516390 32600530 32696798 32800484 32907590 33015438 33122812 
850.454 33230178 33338428 33449568 33565352 33688440 33821804 33969076 
853.829 34133456 34317656 34522784 34748820 34995232 35261476 35549064 
857.204 35860984 36201656 36575828 36988132 37441816 37939292 38483680 
860.578 39078304 39728056 40437876 41210644 42044904 42933328 43862500 
863.953 44812652 45762644 46691696 47582252 48424004 49215024 49963728 
867.328 50689112 51422128 52205292 53085372 54114300 55341416 56804760 
870.703 58531704 60530564 62789308 65268980 67901056 70589576 73198624 
874.078 75568840 77531952 78916672 79590248 79475048 78561488 76909800 
877.452 74639136 71911864 68895608 65757760 62648276 59679416 56936952 
880.827 54475084 52318824 50473756 48929664 47666816 46659676 45879920 
884.202 45300480 44893664 44634928 44502824 44478560 44549044 44706500 
887.577 44948596 45277644 45698440 46216236 46834616 47554420 48375036 
890.952 49295892 50318664 51449204 52697420 54077180 55604652 57294348 
894.327 59159072 61203824 63421784 65785132 68236384 70686224 72999640 
897.701 75014232 76557480 77460344 77601864 76926528 75457416 73290904 
901.076 70584192 67535648 64340560 61184676 58223416 55560628 53261048 
904.451 51348244 49814464 48630896 47757456 47153276 46779112 46603488 
907.826 46605444 46772024 47098468 47585728 48238316 49060932 50055076 
911.201 51214832 52522680 53944616 55423508 56886712 58244408 59398348 
914.575 60264288 60775932 60900188 60642296 60045348 59183796 58147192 
917.950 57036880 55947192 54952044 54106268 53436196 52943564 52608732 
921.325 52399040 52276892 52205104 52156492 52117188 52088200 52083716 
924.700 52128920 52256072 52496248 52876984 53415888 54115912 54962236 
928.075 55919528 56935064 57935264 58833800 59544636 59981584 60076356 
931.450 59788912 59110172 58069468 56729084 55183704 53540568 51906800 
934.824 50382916 49041456 47929436 47068556 46458584 46085716 45929416 
938.199 45968716 46182368 46547756 47039756 47623996 48257568 48892876 
941.574 49477948 49966368 50325468 50537664 50605824 50550132 50406100 
944.949 50215876 50021016 49859728 49758464 49732456 49787076 49919380 
948.324 50121784 50384296 50697044 51049704 51431264 51830668 52235408 
951.698 52633716 53016184 53377444 53716732 54038156 54349192 54658876 
955.073 54975288 55305812 55656700 56032452 56437092 56873380 57342172 
958.448 57842096 58369460 58918944 59485200 60064408 60655516 61259448 
961.823 61878432 62514408 63167684 63837484 64522004 65220080 65932312 
965.198 66660784 67408200 68176368 68966200 69776976 70608128 71460992 
968.573 72338856 73247408 74193200 75181560 76215880 77297560 78427344 
971.947 79607320 80842152 82138512 83504688 84947656 86471592 88078216 
975.322 89767632 91540752 93400512 95352280 97402168 99556400 101819464 
978.697 104194392 106685352 109298496 112043440 114931632 117972696 
981.590 121169944 124517568 128000440 131593792 135264064 138970704 
984.482 142658480 146248960 149643648 152710096 155293264 157243072 
987.375 158420048 158729616 158140128 156687728 154475824 151656656 
990.268 148430544 145011104 141604560 138407280 135571376 133202288 
993.160 131361784 130064624 129293368 129009072 129167408 129723576 
996.053 130638536 131881800 133425592 135243632 137311280 139601808 
998.946 142087216 144738064 147514304 150361088 153206832 155952480 
1001.839 158484480 160687952 162453552 163703520 164400176 164551264 
1004.731 164208448 163462160 162438752 161277168 160127696 159139200 
1007.624 158434128 158110752 158233744 158831296 159905616 161439552 
1010.517 163410032 165791680 168562400 171704576 175198720 179024224 
1013.409 183158960 187575376 192241936 197117136 202132464 207185424 
1016.302 212125312 216740496 220791984 224028016 226222976 227236880 
1019.195 227035056 225713056 223475136 220630304 217550880 214599504 
1022.087 212131168 210432320 209686480 209987104 211323712 213605648 
1024.980 216672864 220331712 224381856 228612528 232832832 236867744 
1027.873 240549216 243737360 246320608 248227680 249441232 249995344 
1030.766 249969376 249461888 248582112 247431456 246088144 244612544 
1033.659 243040176 241378720 239606176 237668624 235491408 232982096 
1036.552 230057024 226660960 222775440 218426464 213674976 208608176 
1039.446 203319296 197901072 192445168 187032608 181739136 176635248 
1042.339 171776912 167210656 162973488 159092496 155594960 152510560 
1045.232 149869440 147703936 146040304 144891984 144258368 144122912 
1048.125 144458816 145230688 146402080 147937856 149800112 151950256 
1051.018 154345424 156935952 159672960 162509360 165399632 168304176 
1053.911 171178496 173964960 176593456 178970992 180990352 182548896 
1056.804 183550576 183924608 183635488 182683152 181107984 178986544 
1059.697 176439632 173618880 170693472 167850304 165259904 163063936 
1062.590 161375552 160262160 159753888 159848000 160514432 161698016 
1065.483 163317136 165274096 167446560 169695552 171887104 173888752 
1068.376 175587648 176900752 177766688 178145504 178015120 177365504 
1071.269 176200384 174537920 172413216 169874944 166981376 163802656 
1074.162 160413376 156896944 153353952 149891760 146628736 143688720 
1077.055 141178848 139190112 137786560 136997392 136818688 137209872 
1079.948 138098864 139372704 140882864 142462912 143921600 145078192 
1082.842 145792896 145977744 145624544 144801824 143651408 142355568 
1085.735 141112032 140121728 139548208 139514816 140095792 141305984 
1088.628 143102608 145382784 148004080 150781136 153506704 155988032 
1091.521 158044192 159531904 160359056 160475360 159877360 158599360 
1094.414 156712528 154312336 151505312 148406240 145116336 141716368 
1097.307 138269856 134819344 131394792 128021968 124723512 121521696 
1100.200 118437136 115485672 112679520 110029768 107548208 105252680 
1103.093 103167888 101321192 99743000 98460672 97494440 96859696 96564936 
1106.468 96614552 97009640 97747496 98820040 100210496 101893152 103832496 
1109.844 105981176 108286272 110687056 113111848 115484248 117715488 
1112.737 119706312 121362176 122593272 123329376 123531360 123190712 
1115.630 122329400 120991072 119238424 117143320 114777920 112218584 
1118.523 109533288 106778096 103997792 101220624 98462424 95733112 93041952 
1121.898 90402696 87838024 85375608 83047280 80885824 78918648 77169824 
1125.273 75659416 74402992 73414168 72703904 72279256 72142576 72290248 
1128.648 72711936 73389528 74296872 75400848 76655784 78006296 79387520 
1132.024 80722472 81936432 82963968 83758328 84304816 84623504 84769232 
1135.399 84817248 84856920 84976416 85243576 85702136 86362200 87199248 
1138.774 88154400 89141312 90062664 90811184 91289568 91423152 91158840 
1142.149 90471984 89361872 87847112 85960648 83746152 81259880 78563432 
1145.525 75724696 72815680 69902120 67044788 64296760 61697900 59280440 
1148.900 57067340 55072128 53301656 51756192 50430512 49315712 48400408 
1152.275 47673284 47122808 46738408 46511168 46431740 46491072 46680296 
1155.650 46989836 47411412 47937912 48564120 49286428 50102780 51010876 
1159.026 52008116 53090836 54253972 55491800 56796184 58155944 59555388 
1162.401 60971140 62371476 63719132 64968840 66073604 66989116 67671424 
1165.776 68083496 68195944 67987344 67448296 66582828 65409592 63958668 
1169.151 62269440 60387448 58355968 56217776 54013240 51777212 49542824 
1172.527 47340684 45195756 43130304 41161904 39302300 37560368 35941276 
1175.902 34447236 33078186 31832152 30705278 29692036 28786288 27981790 
1179.277 27272406 26653624 26122378 25676562 25315172 25036914 24839974 
1182.652 24721372 24677354 24703694 24796718 24953418 25171790 25450136 
1186.028 25786144 26176256 26615082 27094800 27605662 28136922 28676054 
1189.403 29210714 29729502 30222480 30683480 31111688 31511884 31894266 
1192.778 32273702 32668256 33094742 33569004 34103496 34706036 35380116 
1196.153 36123980 36930804 37787704 38673900 39562996 40419296 41200696 
1199.529 41862688 42355648 42633316 42657588 42400800 41853236 41026044 
1202.904 39951992 38679624 37269392 35787688 34293956 32840438 31468138 
1206.279 30202838 29059416 28043178 27152502 26381546 25722860 25168244 
1209.654 24709518 24338734 24049296 23835198 23691988 23616868 23607666 
1213.030 23662562 23779336 23954472 24183412 24460108 24777248 25126604 
1216.405 25498588 25882146 26265794 26637310 26984536 27297528 27567424 
1219.780 27787646 27953804 28062868 28114262 28109172 28051874 27950058 
1223.155 27814138 27658346 27498796 27351622 27233386 27157968 27135994 
1226.531 27173912 27273712 27432154 27641184 27889318 28161492 28440382 
1229.906 28709892 28954316 29160608 29320484 29428828 29485846 29496840 
1233.281 29472584 29429360 29386672 29367916 29397166 29496344 29686180 
1236.656 29982666 30397924 30940440 31615112 32423626 33363256 34427364 
1240.031 35603152 36870452 38204020 39572216 40937492 42262332 43506392 
1243.407 44631036 45604880 46403460 47014976 47440940 47696364 47807168 
1246.782 47805096 47727572 47610908 47488432 47389940 47336912 47341016 
1250.157 47402984 47511464 47644520 47771620 47862176 47888368 47831360 
1253.532 47685820 47459160 47170968 46846792 46517072 46211000 45950484 
1256.908 45749796 45610620 45521568 45457400 45381728 45252600 45024044 
1260.283 44656920 44123088 43408320 42514904 41460388 40275928 38999496 
1263.658 37674836 36347180 35055248 33832444 32702978 31680114 30769294 
1267.033 29968004 29269832 28664940 28143532 27696698 27316476 26996558 
1270.409 26731384 26515396 26343274 26209266 26107740 26033362 25981508 
1273.784 25947810 25928218 25918898 25915626 25915064 25914078 25910422 
1277.159 25903034 25890830 25872404 25845922 25808368 25756330 25686720 
1280.534 25596950 25485588 25352194 25197458 25022524 24828994 24619736 
1283.910 24398908 24172376 23948868 23738076 23551658 23402352 23301376 
1287.285 23260088 23288544 23395500 23588636 23874964 24259260 24744732 
1290.660 25331294 26014470 26784704 27624694 28510786 29409150 30279034 
1294.035 31077056 31757858 32284160 32632430 32794912 32782548 32621998 
1297.411 32353156 32018806 31662046 31321534 31025272 30792484 30633094 
1300.786 30548588 30534226 30580298 30674910 30804114 30953640 31111046 
1304.161 31264308 31403448 31520758 31610336 31669282 31697936 31700254 
1307.536 31683002 31655416 31627656 31608838 31606630 31626336 31671312 
1310.912 31743598 31845130 31977824 32143630 32344338 32581064 32853838 
1314.287 33162258 33504896 33880548 34287968 34726276 35194600 35692784 
1317.662 36221176 36781048 37374680 38003984 38670024 39370824 40099936 
1321.037 40844800 41587372 42303528 42963324 43535948 43990444 44301188 
1324.413 44455616 44457564 44332344 44122392 43887168 43690800 43589320 
1327.788 43626504 43822948 44175792 44660556 45239732 45871892 46516188 
1331.163 47142304 47732084 48279380 48789952 49278744 49767532 50278520 
1334.538 50833240 51446444 52123352 52858420 53634580 54427756 55206692 
1337.914 55936940 56585520 57118692 57507364 57730400 57775664 57643252 
1341.289 57343420 56894688 56318704 55636928 54870040 54035080 53146744 
1344.664 52218292 51259348 50277068 49276148 48259420 47230732 46196996 
1348.039 45169352 44165632 43208728 42323904 41539132 40881932 40375840 
1351.415 40042924 39899900 39958492 40225800 40702680 41383624 42253932 
1354.790 43288452 44449600 45683720 46929364 48116400 49171568 50031576 
1358.165 50642196 50966424 50989224 50718680 50187684 49446912 48568420 
1361.540 47636308 46734204 45944960 45332700 44933564 44753252 44767360 
1364.916 44929780 45178068 45447208 45675328 45806936 45805132 45652836 
1368.291 45355872 44939080 44440276 43901572 43358488 42839736 42364892 
1371.666 41945924 41592476 41314052 41121324 41025608 41035260 41152504 
1375.041 41370648 41675548 42048372 42468536 42918076 43382396 43849668 
1378.417 44312492 44766808 45211968 45649856 46082768 46510728 46928736 
1381.792 47324052 47675212 47956260 48136240 48183964 48072612 47780240 
1385.167 47295272 46622452 45791472 44859200 43901756 43005356 42239980 
1388.542 41645680 41231048 40978160 40854192 40819504 40836540 40869048 
1391.917 40880656 40837776 40706900 40459556 40080860 39574068 38962308 
1395.293 38279680 37560692 36828184 36089488 35342912 34586932 33829680 
1398.668 33095316 32419554 31838108 31377770 31046446 30836306 30730244 
1402.043 30710754 30764918 30886324 31074102 31329866 31654526 32046236 
1405.418 32500356 33010650 33570184 34172276 34809952 35476320 36163304 
1408.794 36862696 37567704 38273020 38976552 39678572 40380748 41083004 
1412.169 41782280 42471644 43141680 43782852 44388236 44955576 45487236 
1415.544 45988092 46463560 46917256 47351804 47770848 48182444 48601476 
1418.919 49044908 49527824 50053400 50610032 51174644 51719540 52220200 
1422.295 52656648 53018992 53307724 53532960 53711632 53861900 53998832 
1425.670 54128900 54250896 54357416 54439400 54488232 54498332 54468700 
1429.045 54402748 54308076 54194732 54075308 53963376 53871764 53812020 
1432.420 53791016 53809244 53859612 53928712 54000408 54058792 54096324 
1435.796 54120152 54155996 54239748 54403236 54660528 55000180 55390644 
1439.171 55787680 56146540 56422264 56577216 56587140 56440376 56137792 
1442.546 55688604 55106584 54405936 53599304 52699964 51718944 50664536 
1445.921 49544868 48369592 47156860 45941276 44772396 43707656 42800868 
1449.297 42085828 41575956 41268540 41153816 41222160 41464540 41869620 
1452.672 42415340 43064404 43768928 44464836 45078440 45534924 45761284 
1456.047 45714712 45406708 44920080 44375716 43879028 43488040 43208768 
1459.422 43021964 42904872 42843832 42832900 42868044 42941008 43033672 
1462.798 43119068 43169864 43165652 43104724 43006160 42904944 42836152 
1466.173 42820320 42859816 42940716 43040660 43132240 43187136 43174472 
1469.548 43053280 42773736 42278144 41511388 40444932 39100236 37560116 
1472.923 35942936 34363740 32894832 31555284 30330552 29198844 28151346 
1476.299 27198286 26362042 25661096 25101328 24670868 24347074 24105194 
1479.674 23928316 23810102 23753928 23766702 23853190 24013226 24241672 
1483.049 24532604 24881272 25286094 25746766 26260444 26819698 27409286 
1486.424 28005432 28579468 29096688 29517266 29801322 29908260 29806362 
1489.800 29483860 28955874 28266152 27472110 26632906 25789098 24957350 
1493.175 24135420 23308578 22460764 21586082 20694426 19813268 18983562 
1496.550 18244170 17621924 17125180 16749656 16484469 16320612 16252259 
1499.925 16274584 16380373 16558057 16791222 17060768 17348204 17633102 
1503.301 17893434 18103308 18226788 18220604 18039854 17654670 17073554 
1506.676 16355153 15591298 14861734 14205418 13619799 13082261 12568307 
1510.051 12064090 11568148 11090175 10644815 10244147 9895098 9597342 
1513.426 9345524 9131852 8948623 8789985 8650365 8526199 8416731 8324649 
1517.284 8254943 8212935 8199901 8210943 8234951 8255685 8259029 8239442 
1521.141 8206418 8182445 8192878 8253018 8360791 8501297 8654286 8803679 
1524.999 8941351 9069527 9198484 9341462 9507651 9699045 9911844 10140654 
1528.856 10382413 10637650 10909686 11201272 11511698 11836443 12168349 
1532.231 12501054 12832819 13169380 13522165 13900518 14308171 14738830 
1535.606 15180175 15615478 16027976 16403427 16727617 16988886 17179056 
1538.982 17295858 17344444 17336996 17292996 17232006 17168750 17110636 
1542.357 17055390 16993436 16910884 16796528 16646393 16468501 16279744 
1545.732 16100489 15945164 15815871 15703004 15590303 15462833 15313501 
1549.107 15148334 14983917 14841778 14737424 14674290 14644062 14633507 
1552.483 14631039 14632856 14644302 14677648 14744555 14849630 14986421 
1555.858 15138282 15282817 15392657 15439691 15402544 15278080 15096049 
1559.233 14912688 14788707 14756140 14812191 14933503 15092310 15264524 
1562.608 15430868 15579999 15708534 15820716 15927291 16041076 16172120 
1565.984 16322400 16485984 16650144 16801624 16928832 17027168 17100710 
1569.359 17161752 17226904 17309410 17416558 17547500 17696256 17853348 
1572.734 18007840 18147804 18258684 18325590 18336130 18286398 18186844 
1576.109 18063412 17950028 17871750 17836674 17834704 17846650 17851622 
1579.485 17833186 17783408 17702364 17596388 17473814 17341720 17202978 
1582.860 17056804 16899966 16730200 16546732 16350510 16142270 15921310 
1586.235 15685724 15433923 15167034 14891496 14618086 14360259 14131715 
1589.610 13941677 13795433 13693177 13632518 13608893 13615252 13641271 
1592.986 13671805 13687774 13669925 13601133 13471750 13282069 13041662 
1596.361 12766684 12473875 12178741 11891607 11618922 11365215 11134162 
1599.736 10929563 10753692 10606717 10485352 10384618 10300126 10230000 
1603.111 10176370 10143130 10134414 10151067 10189836 10243332 10302196 
1606.487 10358183 10404199 10435118 10446895 10435016 10394290 10320790 
1609.862 10213649 10077166 9922318 9764680 9619835 9499185 9406704 9338415 
1613.719 9284421 9231584 9168365 9087052 8987252 8877193 8772470 8691604 
1617.577 8648033 8648270 8689982 8765100 8861299 8964791 9062185 9141530 
1621.434 9195574 9224375 9235984 9244243 9264112 9306052 9371966 9457429 
1625.292 9554120 9654661 9754344 9851237 9945778 10038746 10131429 10225115 
1629.149 10322317 10427040 10543637 10675580 10823393 10983694 11147725 
1632.524 11303759 11438383 11538238 11594045 11603335 11574886 11527214 
1635.899 11484786 11469919 11493292 11554163 11643255 11748333 11856874 
1639.275 11958255 12046410 12119725 12181945 12239879 12301366 12370941 
1642.650 12447961 12525130 12590818 12631375 12634002 12591807 12506782 
1646.025 12392590 12271916 12170870 12112025 12107392 12157956 12255454 
1649.400 12386214 12531404 12665830 12759075 12772587 12669684 12435787 
1652.776 12106063 11767362 11510202 11380929 11366338 11423857 11507582 
1656.151 11584585 11638151 11662995 11663268 11646795 11620793 11587511 
1659.526 11544636 11485331 11402699 11291789 11152213 10988962 10811945 
1662.901 10634459 10468618 10324488 10206865 10115420 10044884 9985275 
1666.277 9924183 9846322 9737232 9586908 9393263 9164507 8918386 8678556 
1670.134 8465042 8289964 8155232 8053856 7973765 7899289 7814807 7704944 
1673.991 7558727 7374139 7162242 6946341 6752018 6598116 6488459 6412825 
1677.849 6354218 6295349 6225698 6143927 6057870 5979255 5917044 5870762 
1681.706 5827943 5765116 5656072 5481619 5244652 4976307 4726485 4537337 
1685.564 4421806 4366981 4346833 4337429 4320964 4288838 4239717 4176986 
1689.421 4106671 4034929 3968415 3913413 3874564 3854239 3849893 3853436 
1693.279 3850294 3822849 3755299 3641914 3493852 3340799 3218543 3149584 
1697.136 3133497 3149150 3165905 3149851 3075831 2938003 2757702 2579243 
1700.993 2445204 2376235 2364308 2386830 2417915 2437607 2434408 2404055 
1704.851 2350183 2282061 2211753 2149280 2100634 2066841 2046001 2034183 
1708.708 2026992 2021233 2014476 2006121 1996634 1987280 1979159 1972202 
1712.566 1965578 1957324 1946141 1930864 1910763 1885104 1851827 1807573 
1716.423 1748918 1674671 1589528 1504469 1433488 1387249 1369831 1376778 
1720.281 1398118 1422053 1438076 1440370 1428169 1405631 1379504 1356902 
1724.138 1342144 1335131 1333436 1333171 1331609 1326889 1319012 1308112 
1727.995 1294685 1279598 1264178 1251684 1245503 1247264 1255505 1263580 
1731.853 1259161 1227161 1155362 1041657 901651 764710 663485 616399 620911 
1736.192 660200 712269 758072 783298 781771 754786 710942 662390 619982 
1740.532 590419 574592 569616 571275 576583 583550 591348 599742 607904 
1744.872 615270 621276 625689 628510 630136 630302 628045 622106 610360 
1749.211 591182 564374 530932 494707 460674 434737 421536 422963 437291 
1753.551 459746 483031 498655 499451 481538 446113 400344 355375 321817 
1757.890 305603 305835 315716 325365 324901 308421 275398 231337 185756 
1762.230 148366 126126 121221 131064 150686 174419 196927 213800 221922 
1766.570 220132 209954 195601 182772 176905 180021 189501 198352 197590 
1770.909 178927 139350 83340 23128 -26605 -55761 -61757 -49797 -28527 -6262 
1775.731 12359 27038 40193 54575 70912 87018 98816 102296 96066 82577 67134 
1781.035 55304 50200 50466 51891 48809 37774 18588 -4903 -27036 -42243 
1785.857 -48571 -46583 -39493 -30283 -21139 -12425 -4804 596 894 -7885 
1790.678 -29256 -63977 -107572 -151760 -187001 -206574 -209356 -199487 
1794.536 -183921 -169016 -158351 -152555 -150170 -148978 -148448 -149740 
1798.393 -155602 -168652 -189750 -217073 -246513 -273567 -294329 -307408 
1802.251 -313467 -314560 -312639 -308931 -304064 -298269 -292309 -287541 
1806.108 -285322 -287044 -292971 -302441 -314195 -326876 -339557 -352072 
1809.966 -364023 -374981 -383820 -388786 -388951 -384085 -375842 -366639 
1813.823 -359454 -355382 -354555 -354952 -353760 -348960 -339226 -325883 
1817.680 -310818 -296978 -286051 -278766 -274395 -271448 -268766 -265157 
1821.538 -261216 -257905 -256911 -260024 -268104 -281084 -297276 -313202 
1825.395 -324492 -327704 -321115 -306315 -287508 -271514 -264892 -271912 
1829.253 -292872 -322373 -351741 -371770 -376305 -364950 -342040 -314262 
1833.110 -288468 -269296 -257905 -252507 -249791 -246314 -240221 -230982 
1836.968 -219391 -206044 -190777 -172527 -149706 -121816 -89651 -55595 
1840.825 -23392 2783 18886 22001 11530 -10304 -38102 -64142 -80143 -80508 
1845.647 -63480 -31774 8714 50631 87217 114095 130103 137362 139483 140345 
1850.469 142102 144256 145085 142466 135340 124535 112040 100142 89868 80390 
1855.290 70084 56861 39828 19615 -1457 -21337 -39030 -55197 -71629 -89982 
1860.112 -110521 -131588 -150104 -163154 -169977 -171699 -171368 -172428 
1863.969 -177065 -185345 -195910 -206740 -217172 -228001 -241744 -260289 
1867.827 -283865 -309129 -330320 -341709 -339491 -324228 -300322 -274097 
1871.684 -250752 -233697 -223398 -217967 -215317 -213661 -212105 -210714 
1875.542 -209422 -208031 -205548 -200878 -194188 -186902 -181437 -179979 
1879.399 -183921 -192532 -203560 -214589 -223431 -230220 -236545 -244361 
1883.257 -255123 -268700 -282938 -294859 -302342 -304660 -303699 -302242 
1887.114 -303534 -309593 -320552 -334988 -349887 -362103 -369121 -369585 
1890.971 -363493 -352005 -337902 -324658 -315950 -315652 -325519 -344358 
1894.829 -367731 -390243 -405040 -408185 -398916 -379980 -356442 -333134 
1898.686 -313401 -298931 -289163 -282839 -279892 -280289 -285157 -294594 
1902.544 -307275 -320089 -329161 -331611 -325784 -313202 -296713 -279362 
1906.401 -263964 -251381 -241744 -235187 -232340 -234823 -243864 -260024 
1910.259 -281548 -305653 -327836 -345020 -355482 -359521 -359057 -356342 
1914.116 -353098 -350549 -350085 -353561 -363758 -383191 -413084 -450952 
1917.973 -491464 -527140 -551497 -562549 -563012 -559042 -558247 -566123 
1921.831 -583793 -608146 -633028 -653176 -665384 -670611 -672100 -673854 
1925.688 -677592 -682918 -687649 -689898 -689898 -690196 -694596 -706273 
1929.546 -725923 -751889 -780631 -809637 -838045 -867410 -899683 -935558 
1933.403 -972289 -1004092 -1024388 -1028785 -1017149 -994141 -967892 -946303 
1937.260 -934202 -932913 -939889 -952651 -969181 -990472 -1017480 -1050006 
1941.118 -1085273 -1117034 -1138020 -1143935 -1135409 -1119579 -1104608 
1944.493 -1098295 -1102955 -1114258 -1123842 -1123644 -1109301 -1083389 
1947.868 -1054237 -1031661 -1023562 -1032024 -1053378 -1079225 -1102030 
1951.244 -1117101 -1123710 -1124900 -1125726 -1129428 -1138846 -1153949 
1954.619 -1175065 -1202656 -1237745 -1280596 -1330973 -1385738 -1441322 
1957.994 -1493959 -1540944 -1581817 -1617536 -1649061 -1675632 -1695567 
1961.369 -1707284 -1710551 -1708571 -1706888 -1711310 -1725270 -1748636 
1964.745 -1777477 -1806383 -1831229 -1850069 -1865509 -1880850 -1899028 
1968.120 -1920173 -1941648 -1961307 -1978162 -1994786 -2016190 -2046268 
1971.495 -2086203 -2132168 -2175029 -2205886 -2217787 -2209842 -2184590 
1974.870 -2145851 -2094875 -2028426 -1940361 -1827105 -1692266 -1548373 
1978.246 -1414934 -1311054 -1249408 -1230774 -1245510 -1277722 -1310427 
1981.621 -1333649 -1343625 -1344054 -1340388 -1338208 -1338868 -1340685 
1984.996 -1341313 -1339331 -1335928 -1333451 -1334079 -1337910 -1342964 
1988.371 -1346201 -1345276 -1340024 -1331997 -1323871 -1316175 -1306826 
1991.747 -1291861 -1267348 -1232129 -1190066 -1148760 -1116737 -1099948 
1995.122 -1099485 -1111152 -1127577 -1142250 -1151999 -1157418 -1162276 
1998.497 -1171198 -1186134 -1207249 -1231303 -1255157 -1277457 -1298832 
2001.872 -1320766 -1345442 -1371635 -1397100 -1417576 -1430754 -1435939 
2005.248 -1436170 -1434915 -1435641 -1437821 -1439604 -1437656 -1431216 
2008.623 -1421870 -1413085 -1409221 -1411235 -1415826 -1418369 -1412127 
2011.998 -1394755 -1368563 -1340487 -1318916 -1311517 -1320238 -1342700 
2015.373 -1371800 -1399874 -1421341 -1433330 -1436269 -1432042 -1422068 
2018.749 -1408032 -1391683 -1376721 -1367572 -1368233 -1380321 -1401724 
2022.124 -1425470 -1443897 -1451262 -1446737 -1435807 -1427847 -1431943 
2025.499 -1452616 -1487124 -1526714 -1559532 -1576535 -1574257 -1555802 
2028.874 -1528101 -1498483 -1470415 -1443633 -1414010 -1378769 -1336721 
2032.250 -1290143 -1243693 -1200905 -1163730 -1130816 -1099650 -1068549 
2035.625 -1037511 -1009348 -988389 -976554 -974339 -978901 -985711 -989976 
2039.482 -989050 -982405 -970471 -954337 -933574 -907586 -875809 -838872 
2043.340 -799087 -759132 -722714 -689898 -660686 -631274 -597294 -554574 
2047.197 -500300 -433673 -357501 -275918 -196572 -127447 -77394 -53408 
2051.054 -58378 -89817 -139538 -195711 -244129 -273733 -278865 -261415 
2054.912 -228829 -191836 -160206 -138312 -126288 -119796 -113734 -104293 
2058.769 -90645 -73816 -56125 -38102 -19416 1623 26474 53680 80026 100374 
2063.591 110582 108792 97093 79727 62429 49637 43871 44666 50532 59943 71310 
2068.895 84036 97557 110549 120690 126225 125960 120922 113532 107765 106373 
2073.717 111145 121718 136202 153106 171734 192584 216982 244962 275696 
2078.056 306598 334617 357530 375073 388703 401073 414306 429132 444521 
2082.396 457490 466180 469398 467408 462366 455964 448767 440442 429364 
2086.736 414207 395137 373183 350500 328681 308255 288461 267208 243504 
2091.075 217082 190330 166464 149128 140975 142698 152874 169911 191092 
2095.415 215026 240487 266280 291014 312997 330538 343205 351794 358525 
2099.754 365290 373946 384856 397160 409696 421968 434107 447805 464622 
2104.094 485021 507744 530335 549212 562051 567559 567028 562881 557108 
2108.434 551468 546724 542311 539127 538364 541980 551966 568454 589523 
2112.773 610990 627813 636109 634317 623798 608601 593803 583219 578541 
2117.113 578740 581195 582157 578474 568521 552032 529838 503631 475568 
2121.452 448203 423460 403295 388239 377925 370729 364063 355508 343105 
2125.792 326095 304409 278249 247515 211380 168353 117674 58982 -6361 -75903 
2130.614 -146063 -213960 -277508 -334889 -385211 -427285 -459855 -482726 
2134.471 -497090 -506125 -514664 -528530 -551265 -584587 -626410 -672563 
2138.329 -718149 -760224 -797631 -831232 -862219 -891384 -917836 -940187 
2142.186 -957775 -972421 -987992 -1008951 -1037776 -1073771 -1111515 
2145.561 -1143539 -1163201 -1167167 -1158410 -1145092 -1136599 -1141358 
2148.937 -1162937 -1200078 -1248351 -1302069 -1358324 -1417081 -1480388 
2152.312 -1551609 -1633678 -1728208 -1836904 -1961175 -2101965 -2258761 
2155.687 -2424134 -2583910 -2716298 -2796041 -2801078 -2722357 -2568462 
2159.062 -2364359 -2143081 -1937855 -1770449 -1648037 -1566333 -1514728 
2162.438 -1480288 -1452979 -1424842 -1392179 -1351123 -1299823 -1238571 
2165.813 -1171000 -1103451 -1044949 -1002703 -980653 -977645 -988951 
2169.188 -1008025 -1029347 -1050436 -1072515 -1097733 -1127643 -1160326 
2172.563 -1190364 -1210024 -1213560 -1198063 -1165283 -1121165 -1074036 
2175.938 -1030074 -994604 -970305 -958371 -958734 -970669 -992356 -1019694 
2179.796 -1047229 -1068813 -1078927 -1074796 -1057410 -1030272 -998769 
2183.171 -966999 -937079 -908842 -880736 -851703 -822237 -793497 -767137 
2187.029 -742759 -718050 -689634 -654367 -611157 -562185 -511520 -464820 
2190.886 -425464 -394414 -369750 -347139 -322539 -292938 -257540 -217602 
2194.743 -175177 -132317 -91109 -53210 -20509 5036 21769 29457 29490 25513 
2199.565 21371 20543 25050 34261 46290 59579 73431 88940 108361 133053 
2204.387 162718 194175 223480 245360 257826 261904 262202 264357 274071 
2208.727 294031 324006 359785 396099 428269 452714 468735 477425 481273 
2213.066 483562 486647 493115 503531 518393 536771 557174 577943 597453 
2217.406 614574 628974 639925 647358 650145 646926 636905 619849 597386 
2221.745 573033 550771 534117 524795 522473 524729 528411 530601 529639 
2226.085 525691 519753 513350 507678 504360 504427 510033 523269 545861 
2230.425 577811 616365 655985 690399 713696 723487 721761 714891 710544 
2234.764 716717 737759 773938 821506 874425 926421 972212 1009341 1036741 
2239.104 1055474 1067232 1073941 1078027 1082312 1089055 1100648 1117822 
2242.961 1140379 1167023 1195330 1223971 1252315 1280561 1309175 1338621 
2246.819 1367970 1395659 1419360 1437710 1449844 1456427 1458987 1459153 
2250.676 1458621 1458654 1459984 1464273 1472884 1487413 1508758 1536389 
2254.533 1567481 1598341 1624382 1642242 1650290 1649226 1641310 1629104 
2258.391 1615136 1601135 1587633 1575229 1563889 1554412 1547695 1544237 
2262.248 1543871 1546398 1550654 1556407 1563457 1572701 1584706 1599705 
2266.106 1617431 1636321 1654415 1670413 1683718 1694396 1703277 1711460 
2269.963 1719544 1727893 1736543 1745358 1754141 1763124 1772140 1781056 
2273.821 1789440 1796826 1803481 1809969 1817721 1828136 1842377 1859647 
2277.678 1879048 1898116 1914789 1928335 1939251 1949536 1961751 1978060 
2281.535 1999330 2024995 2053292 2082123 2109257 2133564 2154508 2172224 
2285.393 2187375 2200263 2211353 2221078 2229770 2237930 2245723 2253051 
2289.250 2259779 2265241 2269205 2271869 2273201 2274334 2275833 2278198 
2293.108 2281795 2286891 2293420 2301747 2312007 2324166 2337790 2351948 
2296.965 2365607 2377368 2386563 2393226 2398191 2402422 2407087 2412584 
2300.823 2419181 2426278 2433309 2439973 2446037 2451502 2455834 2458666 
2304.680 2459333 2457367 2453002 2447137 2441406 2437407 2436441 2438207 
2308.537 2442039 2446204 2449769 2451835 2453002 2454101 2456200 2459699 
2312.395 2463931 2467630 2469296 2468096 2463864 2457467 2450236 2443472 
2316.252 2438340 2435208 2434142 2435075 2438007 2443172 2450802 2461065 
2320.110 2474028 2489390 2506819 2525616 2544446 2560811 2571510 2572743 
2323.967 2560844 2533381 2490623 2435575 2373003 2309176 2250319 2200629 
2327.824 2162134 2134596 2115983 2103963 2096805 2093609 2094075 2098137 
2331.682 2105562 2115151 2125839 2136394 2146450 2155907 2165197 2174222 
2335.539 2182680 2189806 2194935 2197699 2198865 2199864 2202062 2206624 
2339.397 2213851 2223009 2233001 2242859 2251718 2259745 2267206 2274134 
2343.254 2280363 2285559 2290255 2295918 2305745 2323333 2352348 2395125 
2347.112 2451069 2517484 2589742 2662479 2730093 2788214 2833736 2865287 
2350.969 2883365 2889502 2886734 2877795 2865921 2853346 2840706 2828300 
2354.826 2814960 2800286 2784212 2767939 2753467 2742931 2738029 2739363 
2358.684 2745698 2754901 2764671 2772875 2778577 2782112 2784679 2787247 
2362.541 2790548 2794717 2799319 2804388 2809657 2815860 2823630 2833269 
2366.399 2844308 2856182 2867555 2877861 2887101 2895773 2905012 2916054 
2370.256 2929697 2946310 2965592 2987411 3011466 3037458 3065520 3095286 
2374.114 3126489 3158428 3190571 3222682 3254762 3287312 3321100 3356693 
2377.971 3394460 3434334 3476283 3519873 3564736 3610673 3657317 3704133 
2381.828 3750419 3795541 3838627 3879445 3917692 3953234 3986104 4015866 
2385.686 4042152 4064326 4082020 4094897 4103627 4108811 4111588 4112658 
2389.543 4112825 4112256 4111119 4109413 4107206 4104262 4100750 4096469 
2393.401 4090984 4084026 4075196 4064560 4052085 4038340 4023892 4009245 
2397.258 3995166 3982359 3971792 3964336 3961159 3962630 3969117 3979951 
2401.115 3994030 4009680 4026000 4042052 4058038 4074828 4093659 4115902 
2404.973 4142763 4175213 4213419 4257049 4305268 4356940 4410626 4464688 
2408.830 4517818 4569314 4618874 4667099 4714795 4763065 4812144 4862134 
2412.688 4911995 4960790 5007445 5051121 5091316 5128194 5161589 5191432 
2416.545 5217622 5240090 5258703 5273628 5285367 5294221 5300494 5304183 
2420.403 5305089 5302875 5297374 5288721 5277351 5263936 5248978 5233283 
2424.260 5217789 5203437 5192036 5185530 5185564 5193679 5209976 5233618 
2428.117 5262963 5295831 5330312 5365534 5401061 5437563 5475646 5515577 
2431.975 5557224 5599849 5642947 5685882 5728888 5772570 5817465 5864448 
2435.832 5914122 5966758 6022592 6081894 6144901 6212119 6283247 6358387 
2439.690 6437037 6518998 6604205 6692523 6784562 6880761 6981089 7085144 
2443.547 7192223 7301283 7411347 7521878 7632875 7744541 7857316 7971470 
2447.405 8086936 8203650 8321238 8439467 8558269 8677306 8796003 8913482 
2451.262 9028827 9140683 9247898 9349383 9444222 9532071 9612246 9684272 
2455.119 9747397 9800873 9844390 9877268 9899436 9910827 9911641 9901708 
2458.977 9881438 9850931 9810159 9758885 9696842 9623019 9536609 9436874 
2462.834 9323655 9197672 9060730 8916052 8767027 8617242 8469705 8326440 
2466.692 8188320 8055375 7927600 7804855 7687439 7575687 7470469 7372488 
2470.549 7282548 7201420 7129569 7067733 7015940 6973614 6939507 6911530 
2474.406 6886955 6863795 6840333 6816401 6792774 6771302 6753768 6741317 
2478.264 6733879 6730211 6728327 6725904 6721327 6713352 6702012 6687846 
2482.121 6672301 6656622 6642154 6629874 6620319 6613557 6609453 6607468 
2485.979 6606694 6606559 6606324 6605584 6604440 6602859 6601547 6601042 
2489.836 6601951 6604878 6610227 6617796 6627250 6637579 6647739 6656891 
2493.694 6664596 6670989 6676944 6683506 6691615 6701575 6713622 6727082 
2497.551 6741148 6754879 6767768 6779548 6790014 6798866 6805900 6810646 
2501.408 6813036 6813608 6813002 6812564 6813507 6816570 6821686 6828552 
2505.266 6836429 6844574 6852922 6861809 6871806 6883185 6895808 6908972 
2509.123 6921495 6932571 6941931 6949843 6957317 6964927 6972940 6980718 
2512.981 6987015 6990146 6989304 6983883 6974826 6963209 6950820 6938800 
2516.838 6928127 6919071 6911968 6906884 6904292 6904124 6906817 6912102 
2520.696 6919644 6928733 6938295 6947756 6956577 6964523 6971459 6977318 
2524.553 6982267 6986779 6991527 6997318 7004928 7014323 7025402 7037289 
2528.410 7048469 7057966 7064836 7068777 7070427 7070730 7071100 7072549 
2532.268 7076253 7082989 7092958 7106531 7123170 7142470 7163051 7183869 
2536.125 7203374 7220858 7235918 7248720 7259974 7270351 7280695 7291781 
2539.983 7303709 7317322 7333194 7351762 7373532 7398203 7425099 7452637 
2543.840 7479132 7503100 7523766 7541027 7555390 7567865 7578958 7589241 
2547.698 7598851 7607955 7616891 7626400 7636989 7649163 7662247 7675332 
2551.555 7686866 7695129 7699581 7700323 7699041 7697793 7698974 7704168 
2555.412 7713848 7727541 7743833 7761238 7778037 7792879 7804787 7813120 
2559.270 7817269 7816965 7812277 7803472 7791328 7776991 7761575 7746497 
2563.127 7732567 7720796 7711689 7705652 7702819 7703088 7705787 7710104 
2566.985 7714556 7717862 7718873 7717355 7713544 7708451 7703494 7699918 
2570.842 7698670 7699918 7703662 7708890 7715231 7722044 7729261 7737154 
2574.699 7746093 7756280 7768052 7780769 7793959 7807081 7819631 7831473 
2578.557 7842909 7854549 7866932 7880698 7896083 7913192 7931784 7951863 
2582.414 7973495 7997085 8022871 8051021 8081164 8112524 8143888 8174207 
2586.272 8202704 8229414 8254774 8279562 8304519 8330053 8355758 8380720 
2590.129 8404400 8426527 8447677 8469029 8492072 8518090 8547522 8579965 
2593.987 8613829 8647763 8679908 8709352 8735923 8759927 8782276 8803915 
2597.844 8825623 8847907 8870869 8894712 8919232 8944598 8970846 8998076 
2601.701 9026493 9056298 9087661 9120618 9154964 9190430 9226440 9262724 
2605.559 9298841 9334827 9371085 9408127 9446830 9487433 9530242 9574849 
2609.416 9620749 9667060 9712835 9757394 9800195 9840899 9879369 9915776 
2613.274 9949846 9981986 10011925 10039696 10065331 10088561 10110063 
2616.649 10129801 10148794 10168093 10188309 10210291 10234071 10259176 
2620.024 10284756 10309593 10332903 10354348 10374201 10393408 10413329 
2623.399 10435389 10460234 10488543 10519941 10554093 10589877 10627056 
2626.775 10664782 10702985 10741941 10781408 10822001 10863718 10906560 
2630.150 10950359 10994500 11038716 11082527 11126003 11169483 11213750 
2633.525 11259347 11307092 11357359 11409774 11463897 11518674 11573252 
2636.900 11627157 11680014 11731924 11783159 11833856 11884388 11934687 
2640.276 11985367 12036837 12089471 12143645 12199120 12255557 12311728 
2643.651 12366509 12418604 12467669 12513842 12558041 12601665 12646214 
2647.026 12692303 12740444 12790400 12841487 12892819 12944124 12994990 
2650.401 13045930 13096911 13148410 13200530 13253510 13307111 13361403 
2653.777 13416453 13472194 13528523 13585406 13642639 13699844 13756887 
2657.152 13813630 13870072 13926452 13982669 14038996 14095330 14151603 
2660.527 14207198 14261979 14315260 14366766 14416292 14463529 14508921 
2663.902 14552639 14595435 14637723 14679774 14721932 14763854 14805403 
2667.278 14846201 14885838 14924381 14962071 14999351 15036772 15074711 
2670.653 15113099 15151903 15190744 15229142 15266824 15303959 15340411 
2674.028 15376660 15412878 15448824 15484224 15518664 15551529 15582918 
2677.403 15613074 15642544 15671983 15702283 15733579 15766013 15799377 
2680.779 15833259 15867729 15903059 15940111 15980192 16024264 16073361 
2684.154 16127862 16187321 16251089 16318204 16387943 16459795 16533446 
2687.529 16609073 16686641 16766325 16847984 16931556 17016796 17103604 
2690.904 17192018 17281550 17372410 17463810 17555710 17647802 17740088 
2694.280 17833222 17927928 18025072 18125590 18229518 18337134 18447508 
2697.655 18560088 18674046 18788692 18903576 19018490 19133296 19247786 
2701.030 19362098 19475782 19589046 19701922 19814724 19927348 20039722 
2704.405 20151258 20260880 20367784 20470650 20568748 20661310 20748156 
2707.781 20829072 20903816 20971934 21033382 21087396 21133868 21172830 
2711.156 21204594 21229994 21249688 21264198 21273766 21278358 21277316 
2714.531 21270146 21256610 21236500 21210230 21178328 21141660 21100788 
2717.906 21056614 21009386 20959588 20907502 20853372 20797440 20740542 
2721.281 20683272 20626528 20571078 20518204 20468534 20422828 20381500 
2724.657 20344694 20312194 20283688 20258830 20237514 20219568 20205058 
2728.032 20194542 20188328 20186836 20190202 20198498 20211654 20229218 
2731.407 20250950 20276606 20306014 20339032 20375318 20414734 20456932 
2734.782 20501496 20547870 20595640 20643832 20691888 20739084 20784546 
2738.158 20827960 20869086 20907850 20944916 20980730 21015854 21050910 
2741.533 21086074 21121414 21156862 21192488 21228288 21264336 21300840 
2744.908 21337694 21374552 21410926 21446640 21481036 21514492 21547324 
2748.283 21580370 21614288 21649498 21685964 21723268 21760542 21797054 
2751.659 21832382 21866736 21900714 21935004 21970658 22008440 22048980 
2755.034 22092524 22139382 22189870 22244308 22303008 22365830 22432502 
2758.409 22502008 22573064 22644340 22714402 22782210 22846990 22908074 
2761.784 22965116 23017380 23064304 23105084 23138946 23165646 23184868 
2765.160 23197066 23202832 23202694 23197170 23186510 23170748 23149780 
2768.535 23123988 23093970 23061020 23026744 22992994 22961660 22933888 
2771.910 22910414 22891380 22875942 22863438 22852856 22843530 22835080 
2775.285 22827536 22821112 22816012 22812310 22809762 22808190 22806828 
2778.661 22805188 22802428 22797958 22791464 22782106 22769324 22752740 
2782.036 22731722 22706548 22677676 22646432 22614668 22584128 22556658 
2785.411 22533416 22514852 22500754 22490074 22481700 22474652 22468476 
2788.786 22463138 22459158 22457414 22458704 22463382 22471824 22483444 
2792.162 22497682 22513630 22530484 22547376 22563988 22579904 22594912 
2795.537 22608944 22621788 22633134 22642594 22649504 22653694 22654566 
2798.912 22652088 22646258 22637252 22625384 22611144 22594492 22575680 
2802.287 22555088 22532578 22508500 22483060 22456682 22429502 22401870 
2805.663 22374064 22346122 22318424 22291112 22264502 22238832 22214630 
2809.038 22192104 22172088 22154930 22142102 22134220 22132512 22137498 
2812.413 22149212 22166962 22189558 22215258 22242808 22271268 22300636 
2815.788 22331680 22365796 22404380 22448622 22499288 22556520 22620322 
2819.164 22690208 22766008 22847618 22934832 23027722 23126156 23229816 
2822.539 23338610 23452150 23570514 23693388 23820812 23952546 24087820 
2825.914 24226186 24366384 24507678 24649122 24790124 24929908 25067874 
2829.289 25203602 25336564 25466402 25593260 25717550 25839874 25961106 
2832.665 26082302 26204058 26327326 26453238 26582990 26718594 26862170 
2836.040 27015740 27181250 27360514 27554432 27764050 27990768 28236308 
2839.415 28503888 28796982 29120424 29479536 29879474 30326216 30826168 
2842.790 31385816 32012776 32715090 33499994 34373636 35338816 36392896 
2846.166 37525400 38716100 39935356 41140228 42280260 43300388 44142708 
2849.541 44758180 45110276 45179832 44968660 44498568 43809608 42949384 
2852.916 41972456 40932940 39875856 38840908 37858124 36947324 36121928 
2856.291 35388060 34746524 34194216 33724172 33328232 32995884 32716986 
2859.667 32481752 32281232 32108664 31958778 31828836 31717434 31624626 
2863.042 31551362 31498812 31467672 31458552 31471488 31506256 31562976 
2866.417 31641446 31741746 31863638 32006498 32168678 32347906 32541066 
2869.792 32744390 32953128 33162724 33367444 33561844 33740540 33898672 
2873.167 34032924 34142312 34228596 34295572 34349392 34397092 34445404 
2876.543 34500432 34567196 34648724 34746988 34863160 34996848 35147536 
2879.918 35314052 35494872 35688540 35893880 36109576 36335072 36569160 
2883.293 36810580 37056544 37303688 37547436 37782608 38004024 38207892 
2886.668 38391764 38555552 38701212 38832936 38956544 39078884 39207712 
2890.044 39350004 39513128 39704388 39931028 40202316 40529460 40925364 
2893.419 41406656 41991324 42697104 43540676 44532856 45675252 46956204 
2896.794 48348332 49805880 51262368 52642060 53859428 54830492 55489916 
2900.169 55793784 55729776 55317628 54606232 53665624 52570512 51399452 
2903.545 50221084 49088088 48042452 47112172 46314096 45658948 45151632 
2906.920 44793476 44583888 44521180 44603824 44831424 45204800 45724796 
2910.295 46390888 47199040 48138612 49190348 50327996 51515720 52710404 
2913.670 53868240 54942232 55889416 56675704 57275140 57675188 57876276 
2917.046 57890588 57739332 57448208 57045760 56557588 56005312 55406528 
2920.421 54773352 54113924 53433648 52735652 52022272 51296184 50561076 
2923.796 49822864 49089680 48371444 47678648 47021960 46409320 45846592 
2927.171 45336560 44878636 44470560 44107904 43785676 43497272 43235780 
2930.547 42993356 42761012 42529888 42291036 42035600 41756124 41445844 
2933.922 41099104 40712356 40283816 39814336 39307272 38768520 38205972 
2937.297 37628116 37044056 36462084 35889380 35332852 34798392 34291376 
2940.672 33816932 33378966 32980084 32620714 32299220 32011852 31752654 
2944.048 31515342 31292188 31075310 30857864 30633840 30398668 30150874 
2947.423 29891436 29624668 29356786 29095660 28849280 28624024 28424320 
2950.798 28252362 28107546 27987728 27889318 27807570 27737170 27672330 
2954.173 27607250 27536286 27454850 27359666 27249228 27123756 26984816 
2957.549 26835066 26676876 26512720 26344650 26174214 26002862 25831856 
2960.924 25662888 25497464 25337196 25183446 25037370 24900078 24772092 
2964.299 24654314 24547296 24451696 24367960 24296368 24236942 24189576 
2967.674 24153846 24129432 24115910 24113284 24121934 24142812 24177210 
2971.050 24226782 24293144 24377600 24480334 24600450 24735366 24880570 
2974.425 25029366 25173406 25302458 25405412 25471814 25492334 25461098 
2977.800 25376574 25241842 25064644 24855976 24629134 24396876 24170730 
2981.175 23960004 23770482 23605602 23466630 23352560 23261208 23189026 
2984.551 23131816 23084396 23041628 22999074 22953416 22902870 22847618 
2987.926 22789264 22730394 22673522 22620672 22572260 22527170 22482676 
2991.301 22435432 22381984 22319506 22247446 22166892 22081296 21995334 
2994.676 21914164 21842208 21782316 21735390 21700732 21676246 21659562 
2998.052 21648732 21642532 21640790 21643752 21652042 21665902 21685094 
3001.427 21708848 21736054 21765454 21795798 21826180 21856248 21886182 
3004.802 21916532 21948248 21982124 22019036 22059438 22103294 22150120 
3008.177 22199390 22250376 22302692 22356098 22410870 22466938 22524448 
3011.552 22583394 22643466 22704418 22765870 22827642 22889388 22950934 
3014.928 23012210 23073108 23133878 23195214 23257992 23323542 23392666 
3018.303 23465826 23542634 23622114 23702872 23783572 23863306 23941868 
3021.678 24019354 24096122 24172236 24247312 24320932 24392284 24461370 
3025.053 24528362 24594558 24661188 24729824 24801210 24875832 24953418 
3028.429 25033088 25113826 25194720 25274994 25354020 25431586 25507900 
3031.804 25583560 25659444 25736218 25814836 25895158 25976758 26058586 
3035.179 26139656 26219052 26296982 26374188 26451936 26531600 26613742 
3038.554 26698192 26783962 26869820 26954496 27037990 27120828 27204602 
3041.930 27290754 27380700 27474652 27572016 27671270 27770762 27868932 
3045.305 27964616 28057494 28147918 28237156 28326378 28417352 28511352 
3048.680 28609338 28711626 28817412 28925700 29034972 29143492 29250232 
3052.055 29354516 29456202 29555464 29652584 29748096 29842384 29936054 
3055.431 30029958 30125018 30221840 30320852 30421910 30524414 30627370 
3058.806 30729994 30831932 30933180 31034382 31136142 31238460 31341478 
3062.181 31444448 31546872 31648468 31749622 31850870 31953250 32057364 
3065.556 32163716 32271918 32381926 32493606 32607176 32722988 32841616 
3068.932 32963030 33086624 33210970 33334528 33455900 33574340 33690120 
3072.307 33804144 33917804 34032068 34147256 34263480 34379768 34495448 
3075.682 34610148 34723836 34837020 34950520 35065088 35181488 35299892 
3079.057 35420524 35542696 35666164 35790244 35914140 36037428 36160096 
3082.433 36282012 36403744 36525836 36648572 36772320 36896536 37020856 
3085.808 37144744 37268200 37391328 37515140 37640432 37768076 37898400 
3089.183 38031144 38165708 38301176 38436832 38572060 38706824 38841160 
3092.558 38975248 39109124 39242744 39376160 39509540 39643360 39778128 
3095.934 39914576 40053428 40194796 40338752 40484684 40631760 40778812 
3099.309 40924528 41068000 41208568 41346268 41481676 41615704 41749812 
3102.684 41884692 42021252 42159428 42299108 42439964 42581744 42724380 
3106.059 42867968 43013036 43159360 43306612 43454312 43601480 43747784 
3109.435 43892776 44036976 44180816 44325112 44470264 44616344 44763136 
3112.810 44910120 45057232 45204024 45350904 45498016 45645440 45793464 
3116.185 45942232 46091684 46241888 46392952 46544548 46696456 46847936 
3119.560 46998548 47147812 47295792 47443228 47591352 47741368 47894140 
3122.936 48049928 48207992 48366852 48524996 48681116 48834552 48985148 
3126.311 49133684 49281008 49428048 49575544 49723800 49873032 50022984 
3129.686 50173624 50324392 50475244 50625628 50775992 50926448 51077624 
3133.061 51230192 51384680 51541164 51699084 51857436 52014988 52170764 
3136.437 52324056 52474936 52623768 52771572 52919272 53067736 53217564 
3139.812 53369424 53523476 53680132 53839172 53999772 54160916 54321180 
3143.187 54479180 54633924 54785456 54934296 55081796 55229348 55378076 
3146.562 55528736 55681108 55834816 55989256 56144124 56299356 56455280 
3149.938 56612320 56770508 56930000 57090200 57250680 57410844 57569928 
3153.313 57727560 57883280 58036824 58187764 58335996 58481168 58623428 
3156.688 58763312 58901796 59040208 59179996 59322716 59469320 59620152 
3160.063 59774616 59931148 60088040 60242968 60394380 60541152 60683368 
3163.438 60821704 60957760 61093092 61228928 61366100 61504612 61643824 
3166.814 61782808 61920540 62055944 62188944 62319840 62449596 62579764 
3170.189 62711932 62847084 62985308 63125452 63265836 63403844 63537604 
3173.564 63665800 63788280 63906268 64021328 64134920 64248076 64360620 
3176.939 64472184 64581976 64689404 64794600 64898120 65000436 65102196 
3180.315 65203404 65303908 65403468 65501852 65599308 65696044 65792568 
3183.690 65888584 65983960 66078000 66170372 66260904 66349916 66438020 
3187.065 66525592 66612728 66699104 66784032 66867084 66948056 67027352 
3190.440 67105772 67183768 67261328 67338008 67413080 67485952 67556784 
3193.816 67626272 67695352 67764864 67834816 67904512 67972888 68038648 
3197.191 68101432 68161944 68221760 68282176 68344176 68407624 68471480 
3200.566 68534480 68595552 68654608 68712520 68770240 68828592 68887568 
3203.941 68946440 69003952 69058800 69110664 69159888 69207368 69254152 
3207.317 69300440 69346152 69390856 69434360 69477088 69520056 69564384 
3210.692 69610704 69658664 69706864 69753360 69796312 69835576 69871296 
3214.067 69905624 69941008 69978840 70020224 70064528 70110784 70157248 
3217.442 70202960 70247208 70290056 70331936 70373272 70414264 70455768 
3220.818 70497976 70541704 70587624 70635768 70686024 70737848 70790024 
3224.193 70841976 70893032 70943048 70992368 71041496 71091128 71141400 
3227.568 71192496 71244576 71297440 71351088 71405336 71459936 71514312 
3230.943 71568616 71622968 71678256 71735672 71796528 71861736 71931376 
3234.319 72004576 72079992 72156200 72232408 72308176 72383832 72459856 
3237.694 72536160 72612448 72687920 72762200 72835432 72908320 72982080 
3241.069 73057936 73135880 73214944 73293184 73368504 73439840 73507296 
3244.444 73572408 73638040 73706544 73779816 73858080 73940296 74025200 
3247.820 74110904 74196272 74280832 74364224 74446456 74527280 74606240 
3251.195 74682880 74756832 74828312 74897640 74965128 75031328 75096344 
3254.570 75160520 75223832 75286680 75349496 75412280 75475080 75537056 
3257.945 75597504 75655680 75711048 75763432 75812872 75859344 75902360 
3261.321 75941432 75975928 76005648 76030984 76052888 76072624 76090592 
3264.696 76106776 76120008 76128456 76130664 76125768 76114400 76098416 
3268.071 76080056 76061536 76044248 76028536 76014168 76000312 75985824 
3271.446 75969880 75951608 75929864 75903504 75871896 75834840 75793224 
3274.822 75748480 75703088 75658552 75615880 75574640 75533312 75490416 
3278.197 75444408 75395256 75343464 75290624 75237856 75186400 75136448 
3281.572 75087800 75039832 74992216 74944728 74897288 74849840 74802376 
3284.947 74755064 74708152 74662352 74618752 74578032 74540496 74505928 
3288.323 74472880 74439968 74405864 74370232 74333392 74296592 74261488 
3291.698 74229128 74200320 74175632 74155112 74139152 74128352 74122968 
3295.073 74122736 74126976 74133968 74142032 74149928 74157632 74166512 
3298.448 74178192 74194496 74216472 74243360 74273784 74305632 74337448 
3301.823 74368784 74400080 74432720 74467848 74506552 74549272 74596008 
3305.199 74646688 74701224 74759584 74821152 74885352 74950840 75016592 
3308.574 75082008 75147520 75214488 75284632 75359072 75438336 75521160 
3311.949 75605904 75690616 75773768 75855128 75934920 76013808 76092248 
3315.324 76170072 76247072 76322904 76398200 76474336 76552704 76634280 
3318.700 76718800 76804560 76888992 76968736 77042088 77108128 77167608 
3322.075 77221512 77271432 77317592 77360344 77399512 77435624 77469528 
3325.450 77502360 77534920 77566968 77596552 77621632 77639696 77649288 
3328.825 77650872 77645800 77636448 77624488 77610776 77594616 77574216 
3332.201 77547712 77513408 77469960 77416624 77352864 77278040 77192504 
3335.576 77096928 76993344 76884640 76773920 76663376 76553528 76442968 
3338.951 76328912 76208056 76077920 75937680 75787704 75629680 75464712 
3342.326 75293416 75115496 74929920 74736208 74534592 74326352 74113496 
3345.702 73897792 73680904 73463264 73245176 73026928 72808944 72592088 
3349.077 72377568 72165776 71957184 71751304 71547560 71345736 71146160 
3352.452 70949328 70755896 70565944 70379080 70194320 70011120 69829544 
3355.827 69650656 69476424 69308680 69148384 68995488 68848856 68706544 
3359.203 68567384 68430320 68295592 68164080 68036408 67912528 67792208 
3362.578 67673936 67556552 67439040 67321136 67202920 67085116 66968276 
3365.953 66853324 66741488 66633700 66531620 66436084 66347404 66264264 
3369.328 66184648 66105472 66023336 65936132 65842612 65742724 65637076 
3372.704 65526092 65409824 65287576 65157980 65019488 64871000 64711788 
3376.079 64541220 64359272 64165072 63958244 63738048 63503964 63255868 
3379.454 62993968 62718212 62428704 62125476 61808288 61477052 61132112 
3382.829 60774024 60403288 60020772 59626272 59220436 58803524 58376436 
3386.205 57940828 57499648 57055776 56612092 56171012 55733772 55300804 
3389.580 54872372 54448228 54028812 53614976 53207488 52806968 52413508 
3392.955 52026640 51645080 51267028 50890716 50513992 50135208 49753228 
3396.330 49367792 48979512 48590540 48203916 47822964 47450808 47089496 
3399.706 46739220 46398372 46063828 45732052 45399424 45063336 44722732 
3403.081 44377260 44027736 43675228 43321144 42966724 42613216 42262148 
3406.456 41915084 41573588 41238736 40911528 40591740 40278580 39970916 
3409.831 39667176 39366108 39066776 38768736 38472056 38176704 37883360 
3413.207 37592488 37304556 37020100 36739684 36463740 36192652 35926232 
3416.582 35664364 35406468 35151484 34899136 34649120 34401576 34157544 
3419.957 33917732 33683068 33453826 33229750 33009648 32792408 32576780 
3423.332 32361898 32147660 31934276 31721998 31511102 31301700 31093604 
3426.708 30887212 30683018 30482082 30285750 30095224 29910746 29731632 
3430.083 29555888 29381388 29205932 29028170 28848358 28667700 28488390 
3433.458 28312442 28141094 27974546 27812018 27651778 27492160 27332106 
3436.833 27170914 27009076 26846978 26685508 26525152 26366266 26208774 
3440.208 26052184 25896318 25741562 25588094 25437102 25289464 25145422 
3443.584 25005148 24866712 24728210 24586424 24439040 24284804 24124598 
3446.959 23961298 23799216 23642862 23495378 23357910 23229014 23105538 
3450.334 22983526 22859806 22732524 22601754 22468964 22336144 22204936 
3453.709 22075998 21948806 21822174 21694602 21565536 21434838 21303310 
3457.085 21171960 21041832 20913380 20786770 20661414 20536510 20411784 
3460.460 20286778 20162018 20038266 19916940 19798874 19684934 19575284 
3463.835 19469234 19365424 19262818 19160236 19057090 18954036 18851596 
3467.210 18751258 18653362 18558082 18464274 18370938 18276998 18181974 
3470.586 18085932 17990086 17895056 17801116 17708060 17615298 17521832 
3473.961 17427938 17334238 17242210 17153892 17070452 16992366 16918912 
3477.336 16848638 16779720 16711157 16642880 16575234 16509147 16445031 
3480.711 16382851 16322229 16262440 16203349 16145192 16088901 16035059 
3484.087 15984042 15935093 15887111 15838310 15787695 15735434 15682530 
3487.462 15631279 15584189 15542841 15507367 15477391 15450472 15424962 
3490.837 15399146 15372335 15345319 15319164 15295516 15275987 15261436 
3494.212 15252342 15248429 15249218 15253851 15261607 15272006 15285048 
3497.588 15301041 15320640 15344667 15373605 15407694 15446043 15487520 
3500.963 15530684 15574470 15618536 15664048 15713343 15769105 15834669 
3504.338 15912099 16002158 16104134 16216006 16334614 16457042 16581224 
3507.713 16705992 16831762 16960598 17094680 17236314 17386792 17545464 
3511.089 17710820 17879416 18048110 18213968 18375776 18533322 18687882 
3514.464 18840628 18992458 19143060 19290840 19433924 19570606 19699564 
3517.839 19820690 19934044 20039860 20137238 20224254 20297854 20354590 
3521.214 20391432 20406782 20400496 20374000 20329796 20269906 20195826 
3524.590 20107424 20003046 19879894 19734792 19566100 19373392 19158748 
3527.965 18926348 18681794 18429668 18173820 17915532 17654394 17389104 
3531.340 17118322 16841888 16560949 16277300 15992533 15707606 15422422 
3534.715 15135914 14847230 14556647 14265746 13977228 13694305 13419563 
3538.091 13154831 12900601 12656346 12421365 12194689 11975490 11762426 
3541.466 11554163 11348482 11142932 10935374 10724687 10510980 10295376 
3544.841 10080185 9868726 9663605 9467453 9281950 9107692 8944497 8790661 
3548.698 8643842 8500924 8358933 8215434 8069586 7921728 7774157 7629233 
3552.556 7489380 7355739 7228203 7105588 6986543 6869820 6755081 6642423 
3556.413 6532419 6425234 6320428 6217363 6115094 6013588 5913047 5815014 
3560.271 5720998 5632139 5549069 5471519 5398142 5327495 5257161 5184893 
3564.128 5108145 5024540 4931432 4827858 4713957 4592620 4468872 4348807 
3567.986 4238111 4140689 4057437 3987040 3926385 3872124 3820944 3770773 
3571.843 3720107 3668177 3614616 3559091 3501434 3442183 3381603 3320532 
3575.700 3259669 3199416 3139972 3081003 3021475 2961122 2899675 2838071 
3579.558 2777576 2720057 2667280 2620675 2580576 2546612 2516884 2489324 
3583.415 2460832 2428344 2388829 2339689 2279164 2206824 2123475 2032086 
3587.273 1937288 1844906 1761061 1689805 1633494 1591457 1561229 1538451 
3591.130 1518467 1497088 1471155 1439007 1400811 1358663 1315124 1273118 
3594.988 1235036 1202473 1176093 1155893 1140910 1129981 1120911 1111079 
3598.845 1097692 1078492 1051953 1018707 981179 942559 906797 876915 854571 
3603.185 839333 829341 821871 813705 801323 781473 751068 707789 651107 
3607.524 582854 507479 432017 363798 308554 267938 239359 217148 194275 
3611.864 165304 128579 85991 43275 6593 -19416 -33894 -39825 -43237 -50725 
3616.686 -68118 -98562 -142751 -198228 -260289 -323102 -381271 -430462 
3620.543 -468064 -493152 -506588 -510130 -505893 -495899 -481733 -463794 
3624.400 -443305 -421260 -400935 -388058 -389713 -414706 -469686 -555765 
3628.258 -665219 -780433 -880108 -946138 -972058 -963793 -935492 -902692 
3632.115 -878984 -872470 -885233 -913934 -950899 -988091 -1018571 -1039363 
3635.973 -1051031 -1056617 -1059889 -1063955 -1070929 -1081307 -1095156 
3639.348 -1112044 -1131311 -1152164 -1173313 -1192379 -1206423 -1212040 
3642.723 -1206951 -1190562 -1164490 -1132732 -1100939 -1075424 -1061905 
3646.098 -1064847 -1086463 -1126222 -1181541 -1247261 -1317991 -1387852 
3649.474 -1450965 -1502247 -1537246 -1552962 -1548670 -1526978 -1492902 
3652.849 -1453540 -1417015 -1391122 -1381610 -1391419 -1419426 -1459749 
3656.224 -1502511 -1538732 -1561282 -1568116 -1561579 -1546557 -1528992 
3659.599 -1513242 -1502082 -1496436 -1495544 -1497657 -1500695 -1503139 
3662.975 -1503502 -1501157 -1495709 -1486926 -1475170 -1460938 -1445450 
3666.350 -1431084 -1421242 -1419954 -1431943 -1459881 -1503073 -1555504 
3669.725 -1605124 -1635791 -1633942 -1592183 -1512252 -1404168 -1282512 
3673.100 -1163763 -1062302 -991133 -957610 -962602 -998406 -1053014 -1114886 
3676.958 -1177576 -1241115 -1308015 -1380949 -1458560 -1536289 -1605982 
3680.333 -1660679 -1695633 -1710848 -1710221 -1699957 -1685566 -1670879 
3683.708 -1656652 -1642063 -1626251 -1609878 -1595682 -1588090 -1592876 
3687.083 -1613839 -1652262 -1704412 -1763090 -1819549 -1866103 -1898863 
3690.459 -1917600 -1924594 -1922581 -1914236 -1901601 -1885799 -1868313 
3693.834 -1850926 -1834990 -1822419 -1814236 -1810310 -1809485 -1809782 
3697.209 -1808924 -1805262 -1798398 -1789027 -1779688 -1773452 -1773089 
3700.584 -1780678 -1796352 -1818196 -1842282 -1864387 -1880058 -1886459 
3703.960 -1882500 -1868973 -1847891 -1822023 -1794372 -1767512 -1743389 
3707.335 -1723389 -1708307 -1698768 -1695699 -1699858 -1712564 -1733950 
3710.710 -1763816 -1799883 -1837531 -1871811 -1897213 -1910310 -1910409 
3714.085 -1899127 -1880157 -1857954 -1835980 -1817206 -1802721 -1792261 
3717.461 -1784539 -1778401 -1773485 -1770053 -1769360 -1772726 -1780777 
3720.836 -1793053 -1807373 -1820935 -1830734 -1834528 -1832120 -1824696 
3724.211 -1814962 -1805426 -1798134 -1793152 -1789027 -1782889 -1771604 
3727.586 -1753223 -1728373 -1699462 -1671077 -1648763 -1637210 -1639092 
3730.962 -1654111 -1678305 -1705699 -1729825 -1746953 -1757447 -1765235 
3734.337 -1775860 -1792987 -1816744 -1842678 -1863563 -1872437 -1865938 
3737.712 -1845351 -1815094 -1779622 -1742464 -1704610 -1665498 -1625327 
3741.087 -1586142 -1554217 -1538996 -1552104 -1601493 -1687283 -1794933 
3744.463 -1898467 -1968366 -1987101 -1956129 -1891407 -1813907 -1742365 
3747.838 -1691408 -1668403 -1673651 -1701409 -1742761 -1787971 -1829942 
3751.213 -1865014 -1890978 -1905922 -1907836 -1895003 -1867950 -1830041 
3754.588 -1786651 -1744148 -1707812 -1681309 -1666093 -1661703 -1666357 
3757.964 -1678602 -1696986 -1719495 -1743289 -1763750 -1775134 -1772561 
3761.339 -1754510 -1723389 -1685269 -1648664 -1621366 -1608161 -1609515 
3764.714 -1621101 -1635659 -1645958 -1647575 -1640973 -1630344 -1621795 
3768.089 -1620639 -1629156 -1646222 -1667512 -1687382 -1700848 -1705270 
3771.465 -1701112 -1690154 -1675268 -1658864 -1642096 -1625426 -1608260 
3774.840 -1590004 -1570262 -1549496 -1529355 -1512252 -1501686 -1500332 
3778.215 -1509643 -1528563 -1553259 -1577789 -1595947 -1603572 -1600436 
3781.590 -1589344 -1575445 -1564782 -1561513 -1567192 -1580199 -1596706 
3784.966 -1612023 -1622488 -1625855 -1622851 -1614961 -1604563 -1593207 
3788.341 -1582180 -1572045 -1563065 -1555703 -1549727 -1544609 -1539128 
3791.716 -1531964 -1522025 -1509544 -1496469 -1486067 -1482336 -1487850 
3795.091 -1503040 -1524733 -1546623 -1561414 -1563395 -1551014 -1527836 
3798.467 -1500761 -1479397 -1473222 -1488313 -1525261 -1577426 -1632028 
3801.842 -1673255 -1688966 -1675896 -1639059 -1589938 -1541671 -1507266 
3805.217 -1495742 -1510403 -1547548 -1596541 -1642921 -1672793 -1679559 
3808.592 -1663749 -1632358 -1593669 -1555240 -1521101 -1491516 -1464702 
3811.968 -1438283 -1411896 -1388116 -1372361 -1371073 -1389570 -1428046 
3815.343 -1480619 -1534176 -1573597 -1587925 -1573762 -1536982 -1488775 
3818.718 -1443897 -1415364 -1412589 -1438680 -1488742 -1550024 -1605619 
3822.093 -1641700 -1651635 -1637705 -1607864 -1572045 -1539855 -1516643 
3825.469 -1504691 -1501752 -1503238 -1503436 -1498186 -1486364 -1469854 
3828.844 -1452451 -1438415 -1430688 -1430423 -1436269 -1444921 -1452252 
3832.219 -1454993 -1450799 -1439703 -1423191 -1404729 -1388050 -1377844 
3835.594 -1378142 -1391518 -1418468 -1456380 -1499771 -1541043 -1573432 
3838.969 -1592381 -1597135 -1590368 -1576238 -1559730 -1544543 -1532492 
3842.345 -1524139 -1518393 -1513441 -1507530 -1499209 -1487454 -1471901 
3845.720 -1453045 -1431216 -1407735 -1383261 -1358324 -1332724 -1305571 
3849.095 -1276433 -1245774 -1216038 -1193206 -1185771 -1203515 -1255454 
3852.470 -1343823 -1460145 -1583765 -1689098 -1755863 -1777114 -1758800 
3855.846 -1713851 -1656025 -1595319 -1538633 -1488775 -1446572 -1411764 
3859.221 -1383690 -1362221 -1347027 -1337910 -1333880 -1334376 -1338934 
3862.596 -1347754 -1361395 -1379595 -1400337 -1419228 -1430324 -1428310 
3865.971 -1411235 -1381544 -1347225 -1319049 -1306991 -1318652 -1354426 
3869.347 -1407008 -1461862 -1502511 -1518492 -1508356 -1479595 -1443534 
3872.722 -1412226 -1393962 -1390957 -1400072 -1414010 -1424611 -1425668 
3876.097 -1414934 -1394524 -1368959 -1343724 -1324268 -1314424 -1315481 
3879.472 -1326085 -1341147 -1354327 -1358687 -1350033 -1327901 -1296849 
3882.848 -1264639 -1240190 -1232195 -1245311 -1278382 -1323244 -1366548 
3886.223 -1395118 -1399709 -1379331 -1340388 -1293909 -1251225 -1221853 
3889.598 -1211676 -1221324 -1246369 -1278845 -1309931 -1332130 -1341775 
3892.973 -1338604 -1325292 -1305273 -1281686 -1257370 -1234441 -1214320 
3896.349 -1198724 -1188646 -1185143 -1188183 -1196510 -1207777 -1218879 
3899.724 -1226809 -1230212 -1229122 -1226413 -1225719 -1230939 -1244684 
3903.099 -1266720 -1294273 -1322154 -1344649 -1357102 -1357729 -1347225 
3906.474 -1328760 -1306066 -1282875 -1261401 -1242800 -1226809 -1212866 
3909.850 -1200211 -1188282 -1177146 -1166704 -1157154 -1148165 -1139705 
3913.225 -1131708 -1124735 -1119744 -1117762 -1119480 -1125197 -1134021 
3916.600 -1144200 -1153849 -1161516 -1166242 -1167861 -1167068 -1163631 
3919.975 -1157584 -1148529 -1136830 -1122719 -1108276 -1095982 -1088545 
3923.351 -1087719 -1093966 -1105533 -1119381 -1131179 -1137656 -1136731 
3926.726 -1128205 -1113333 -1094693 -1074994 -1056451 -1040883 -1029710 
3930.101 -1024025 -1024223 -1030636 -1042536 -1058468 -1075887 -1091883 
3933.476 -1103815 -1109962 -1109929 -1104641 -1096081 -1086100 -1076448 
3936.852 -1067656 -1059757 -1051758 -1043197 -1033677 -1023727 -1014637 
3940.227 -1007860 -1004720 -1005811 -1010505 -1017281 -1024388 -1029909 
3943.602 -1032652 -1032487 -1029909 -1026239 -1022570 -1019595 -1017480 
3946.977 -1015926 -1014174 -1011794 -1008025 -1003430 -998207 -992984 
3950.353 -988224 -984422 -981116 -978074 -974901 -971496 -968090 -965181 
3954.210 -963065 -962305 -962834 -964057 -965082 -965082 -963396 -959660 
3958.067 -953973 -947328 -940517 -934632 -930169 -927424 -926300 -926003 
3961.925 -925771 -924548 -921804 -916943 -909967 -901204 -891384 -881034 
3965.782 -871478 -863409 -857589 -854282 -852893 -852529 -852199 -850545 
3969.640 -846676 -840261 -831762 -821972 -812481 -804411 -798425 -795217 
3973.497 -794423 -795118 -796341 -796904 -795945 -792769 -787312 -779771 
3977.354 -770973 -761514 -752749 -745439 -740179 -737235 -736342 -736871 
3981.212 -738195 -739915 -741965 -744512 -748250 -753212 -759595 -766740 
3985.069 -773388 -778515 -780433 -779044 -774446 -767501 -760290 -754336 
3988.927 -751293 -751657 -755362 -761348 -768228 -774479 -778945 -781061 
3992.784 -781194 -779904 -778118 -776232 -774909 -773719 -772528 -770676 
3996.642 -768327 -765615 -763267 -761878 -762142 -764160 -767203 -770676 
4000.499 -773388 
##END=
