
##TITLE=mdmaHCL00446_2
##JCAMP-DX=5.01  $$ Nicolet v. 1
##DATATYPE=INFRARED SPECTRUM
##ORIGIN=UniL
##OWNER=Nicolet
##LONGDATE=2011/08/23
##TIME=08:51:54
##SPECTROMETER/DATA SYSTEM=Nicolet iS5
##DATA PROCESSING=
Ratio against background
%Transmittance->Absorbance
Truncated
ElementMultiply or ElementDivide
##COMMENTS=
Number of sample scans: 32
Collection length: 51.19 sec
Sample gain: 2.0
Background collected on: Mar Aout 23 08:49:34 2011 (GMT+02:00);
Number of background scans: 32
Background gain: 2.0
Sample spacing:  1.000
Number of scan points: 12415
Resolution points: 8192
Number of FFT points: 65536
Apodization: N-B fort;
Phase correction: Mertz;
Laser frequency: 15798.0 cm-1
Number of rejected sample scans: 0
Number of rejected background scans: 0
Bench serial number: ASB1000141;
##RESOLUTION=4.000
##XUNITS=1/CM
##YUNITS=ABSORBANCE
##FIRSTX=649.893372
##LASTX=4000.122314
##FIRSTY=0.105437
##MAXX=4000.122314
##MINX=649.893372
##MAXY=0.243330
##MINY=-0.000907
##XFACTOR=1.000000
##YFACTOR=1.000000E-009
##NPOINTS=6950
##DELTAX=0.482117
##ZPD=6100
##XYDATA=(X++(Y..Y))
649.893 105437400 104732536 104088736 103526920 103042184 102619264 
652.786 102251752 101953152 101758600 101714048 101849120 102164592 
655.679 102625432 103175872 103758400 104334968 104898552 105463248 
658.571 106050248 106669136 107311896 107959224 108593344 109210624 
661.464 109826056 110461640 111135248 111844496 112566192 113261744 
664.357 113895008 114443584 114899080 115266648 115552984 115763320 
667.250 115900808 115975152 116010728 116039984 116090592 116168728 
670.142 116256104 116313008 116292272 116156520 115886488 115492504 
673.035 115006112 114470456 113919512 113368024 112812512 112241152 
675.928 111647352 111035120 110419248 109814624 109226560 108646664 
678.820 108056904 107439216 106787032 106109472 105426544 104758184 
681.713 104113752 103487976 102865920 102231424 101578000 100913896 
684.606 100257952 99629872 99040112 98486488 97955448 97432936 96911136 
687.981 96393512 95894152 95429000 95007568 94630464 94288912 93973432 
691.355 93679152 93410080 93176328 92989000 92854760 92772376 92736520 
694.730 92742720 92793176 92898992 93076768 93340408 93696704 94141272 
698.105 94661448 95242432 95874360 96554464 97286704 98073704 98911272 
701.480 99784768 100671936 101549160 102398496 103213688 103997328 104755224 
704.855 105489224 106192520 106852040 107454248 107992320 108470488 
707.747 108900472 109296280 109665744 110007312 110312400 110573216 
710.640 110790656 110978376 111160112 111360760 111598504 111876816 
713.533 112184128 112498792 112798768 113065768 113288456 113461768 
716.425 113582216 113648376 113662408 113634216 113585448 113545640 
719.318 113549208 113623496 113779336 114008600 114285088 114574488 
722.211 114838440 115045576 115172688 115202624 115125992 114940744 
725.104 114655888 114294056 113892160 113496192 113148216 112879152 
727.996 112700096 112604240 112572592 112584400 112627080 112696960 
730.889 112796704 112928008 113085880 113256712 113424600 113576712 
733.782 113711440 113838936 113976072 114137768 114329448 114544936 
736.674 114770720 114993112 115205384 115409728 115614464 115827128 
739.567 116047472 116267848 116475192 116660672 116823720 116974384 
742.460 117127440 117296176 117484776 117687160 117890800 118084008 
745.352 118262952 118433000 118603592 118782056 118967304 119149696 
748.245 119315432 119454264 119566304 119661840 119757000 119863616 
751.138 119983928 120108288 120220808 120307472 120364312 120398448 
754.031 120425072 120459264 120508112 120568944 120632496 120690200 
756.923 120738848 120783960 120834160 120896440 120970848 121048432 
759.816 121117048 121167544 121198640 121217120 121232848 121251856 
762.709 121272048 121284056 121275640 121241168 121185712 121125320 
765.601 121080480 121066992 121090416 121144064 121214664 121287992 
768.494 121356120 121418872 121480848 121548656 121628960 121731352 
771.387 121871792 122075040 122369936 122775488 123285584 123853568 
774.279 124396776 124801936 124951640 124762496 124195584 123267496 
777.172 122031720 120557792 118899976 117081880 115097528 112921520 
780.065 110530264 107913808 105086192 102083272 98958544 95771816 92584600 
783.440 89459288 86449400 83601000 80949256 78512136 76293280 74283304 
786.815 72465568 70821192 69334456 67995872 66800764 65747000 64832060 
790.189 64052044 63400968 62873208 62464632 62173156 61997464 61934564 
793.564 61976216 62108200 62307568 62545976 62788888 62995732 63124040 
796.939 63128136 62962636 62590332 61986956 61148588 60094124 58865064 
800.314 57519464 56118300 54724344 53390444 52153768 51038900 50054552 
803.689 49195948 48447712 47789044 47198044 46655908 46152628 45687032 
807.063 45265360 44896052 44584328 44326620 44109956 43911584 43705020 
810.438 43466872 43179888 42836300 42436748 41987420 41496844 40973644 
813.813 40427224 39867792 39306908 38757832 38233292 37743140 37292856 
817.188 36883188 36511168 36171800 35861092 35576392 35317144 35083696 
820.563 34876476 34694764 34537668 34404624 34296004 34213720 34161236 
823.938 34141700 34157832 34209988 34296360 34412908 34551876 34702196 
827.312 34849620 34975156 35058016 35079028 35022992 34884016 34666524 
830.687 34385508 34062384 33721776 33387266 33076576 32801844 32569028 
834.062 32378356 32225628 32102816 31999440 31902324 31798284 31676304 
837.437 31529770 31358000 31166292 30964812 30765204 30577916 30411000 
840.812 30268376 30150662 30056552 29984052 29931192 29896440 29878444 
844.186 29876066 29887884 29912944 29950468 29999814 30060566 30131552 
847.561 30211008 30296620 30386054 30478134 30572620 30670822 30774628 
850.936 30885398 31003992 31130696 31265412 31409006 31563654 31732332 
854.311 31918802 32126006 32355476 32607388 32880750 33175026 33490796 
857.686 33830328 34196832 34595076 35029424 35504796 36026520 36600736 
861.060 37233576 37930508 38693784 39520208 40400456 41318972 42254404 
864.435 43185016 44090956 44956756 45775236 46547904 47286076 48010512 
867.810 48753212 49556308 50466276 51534636 52811380 54336164 56137452 
871.185 58224404 60584160 63174540 65922016 68723736 71436424 73894024 
874.560 75923320 77350488 78042904 77925016 76991136 75306264 72993880 
877.935 70220376 67156584 63972064 60817968 57807228 55025192 52525376 
881.309 50331572 48448192 46863992 45559100 44508552 43685636 43065136 
884.684 42621184 42329712 42168628 42117112 42158880 42283184 42485564 
888.059 42768360 43138608 43606096 44179168 44864084 45663620 46578480 
891.434 47609580 48760404 50037784 51452900 53020264 54754256 56668528 
894.809 58769684 61052364 63488708 66020636 68556168 70956432 73054520 
898.183 74673328 75638952 75827224 75180136 73719504 71542088 68805920 
901.558 65712272 62458968 59235968 56202164 53464828 51091260 49107084 
904.933 47505176 46256740 45321704 44659456 44231076 44006248 43965364 
908.308 44096640 44395720 44863756 45503684 46318296 47307172 48462604 
911.683 49766304 51183964 52659488 54121280 55480056 56637952 57509860 
915.058 58027772 58156548 57898952 57296464 56422416 55366144 54229832 
918.432 53109260 52080280 51199248 50494520 49968336 49602216 49363112 
921.807 49212644 49111944 49032036 48957072 48886316 48833256 48823060 
925.182 48889136 49063456 49374624 49840700 50463744 51227952 52096792 
928.557 53017644 53918808 54718028 55334564 55689056 55719720 55390760 
931.932 54695776 53663564 52353324 50854248 49266388 47689924 46217708 
935.306 44916884 43830500 42978832 42362368 41970044 41785052 41790416 
938.681 41968004 42297208 42753624 43303132 43902928 44506756 45064068 
942.056 45530140 45873880 46077940 46143892 46090100 45949308 45761320 
945.431 45566752 45403320 45298164 45266940 45314604 45437276 45625708 
948.806 45868504 46155652 46477536 46825204 47189880 47561036 47927252 
952.181 48278932 48608624 48913832 49197616 49466960 49731676 50001536 
955.555 50285328 50589816 50919816 51278700 51668332 52088984 52539024 
958.930 53014948 53512196 54026112 54553860 55094848 55650296 56222676 
962.305 56813444 57422076 58046668 58684112 59332400 59991860 60665120 
965.680 61356748 62070928 62810980 63578068 64372228 65193668 66043744 
969.055 66925332 67841984 68797176 69792848 70830232 71910536 73036608 
972.429 74214392 75451584 76756952 78138168 79599240 81141640 82765152 
975.804 84469648 86257640 88133936 90104744 92175912 94352200 96636416 
979.179 99032328 101546440 104189680 106977616 109926384 113049776 116355072 
982.554 119840816 123495128 127293464 131199192 135153968 139069920 
985.447 142833840 146294912 149277296 151611696 153140816 153755760 
988.339 153415360 152150064 150062288 147306288 144087824 140628576 
991.232 137143808 133841248 130883944 128387288 126422272 125010264 
994.125 124138024 123768920 123858768 124362768 125240848 126462000 
997.017 127998080 129822520 131909952 134232336 136759840 139460944 
999.910 142293392 145200192 148107712 150914288 153502928 155754432 
1002.803 157553184 158815824 159500176 159611760 159203344 158369744 
1005.695 157244880 155975840 154720992 153636192 152847776 152456416 
1008.588 152527168 153087968 154140160 155666512 157643344 160045008 
1011.481 162848912 166036224 169586448 173477616 177686176 182183264 
1014.374 186935744 191900176 197004992 202143824 207160512 211837040 
1017.266 215928256 219176672 221352608 222314320 222027696 220591120 
1020.159 218213312 215209552 211958992 208831616 206190112 204328160 
1023.052 203435600 203610912 204846752 207053296 210068704 213696064 
1025.945 217730368 221955648 226176336 230214192 233898736 237088976 
1028.838 239672448 241577472 242785456 243329952 243289200 242761824 
1031.731 241857152 240677456 239301872 237791472 236181536 234479504 
1034.624 232661936 230674096 228440384 225868096 222873936 219403664 
1037.517 215439936 211010144 206176000 201025056 195649840 190141664 
1040.410 184590528 179075120 173669840 168444640 163456080 158753264 
1043.303 154376496 150356592 146724048 143511024 140748592 138468896 
1046.196 136697760 135448160 134719696 134497184 134755184 135460288 
1049.089 136577344 138072192 139906880 142042416 144435440 147035616 
1051.982 149794112 152663536 155598560 158559600 161502032 164368160 
1054.875 167086752 169563344 171687536 173352656 174457488 174926016 
1057.768 174718176 173831200 172304704 170216320 167689744 164880912 
1060.661 161962624 159126384 156546016 154367024 152705472 151631520 
1063.554 151177616 151342560 152096544 153383344 155118896 157201680 
1066.448 159504688 161883984 164201376 166321040 168128016 169539408 
1069.341 170494384 170954592 170899008 170317536 169212688 167600432 
1072.234 165513936 163000208 160117600 156937360 153536432 150000928 
1075.127 146434048 142945184 139654720 136688352 134154632 132147688 
1078.020 130734784 129948360 129787368 130212872 131152584 132491080 
1080.913 134075520 135733936 137268432 138492272 139260592 139482560 
1083.806 139149568 138331808 137175120 135866656 134608784 133607136 
1086.699 133028832 132999808 133596640 134835792 136676000 139015328 
1089.592 141711264 144577088 147402160 149989600 152153072 153743904 
1092.485 154666208 154866656 154339696 153119040 151274768 148902304 
1095.378 146108128 143007392 139702720 136276720 132795304 129302832 
1098.271 125830920 122406384 119052192 115791392 112645896 109633288 
1101.164 106768608 104065744 101539024 99207960 97097632 95234680 93648688 
1104.540 92365640 91404832 90780600 90501320 90570992 90991168 91760040 
1107.915 92871176 94310528 96055456 98073368 100319104 102740600 105275560 
1111.290 107849200 110380456 112774800 114927272 116738304 118113448 
1114.183 118979456 119295808 119053328 118274864 117005352 115309256 
1117.076 113260192 110932480 108404136 105745848 103015768 100261376 
1119.969 97513104 94788208 92096728 89446544 86849416 84324776 81897704 
1123.344 79598008 77458080 75505632 73766928 72265280 71019136 70045952 
1126.720 69360456 68972416 68886944 69101488 69605928 70380248 71395568 
1130.095 72614880 73988072 75455728 76949752 78391304 79704000 80822152 
1133.470 81698816 82319056 82702616 82903728 82997016 83071352 83214712 
1136.845 83494848 83956144 84609648 85432160 86366360 87327456 88219392 
1140.221 88935416 89379008 89475160 89170280 88438752 87279736 85711584 
1143.596 83768128 81494752 78950360 76200080 73314760 70369376 67431144 
1146.971 64560832 61810504 59217820 56812160 54613444 52633308 50877156 
1150.346 49344184 48028792 46921244 46008720 45278528 44717296 44313408 
1153.722 44057440 43940908 43957008 44099576 44362432 44740728 45230500 
1157.097 45829432 46536508 47351728 48274896 49304764 50438624 51671432 
1160.472 52996644 54405188 55883876 57415572 58974772 60527444 62033660 
1163.847 63445216 64711212 65783700 66615432 67166608 67406464 67312744 
1167.223 66876276 66102036 65009556 63629932 62003620 60176936 58194244 
1170.598 56098920 53932240 51729580 49524664 47348184 45225428 43178280 
1173.973 41224232 39375104 37639784 36023780 34529704 33158466 31908494 
1177.348 30776798 29758490 28847898 28039150 27325968 26703442 26167562 
1180.724 25715372 25344852 25053904 24840466 24701904 24634920 24636534 
1184.099 24703904 24834712 25027262 25279982 25590590 25955688 26370596 
1187.474 26828546 27321274 27839468 28372040 28907320 29434110 29941804 
1190.849 30423156 30875366 31301700 31710804 32116086 32534924 32984514 
1194.225 33481240 34038984 34666880 35369764 36146884 36991992 37891276 
1197.600 38822972 39759136 40661452 41485468 42184148 42705804 43003088 
1200.975 43037072 42780940 42226796 41388104 40300252 39014284 37591660 
1204.350 36099424 34596764 33135474 31756040 30484356 29335798 28316370 
1207.726 27424602 26654786 25998394 25446378 24989708 24620156 24331444 
1211.101 24118572 23978246 23908292 23906682 23971242 24098888 24285048 
1214.476 24524400 24810224 25134924 25490016 25865720 26250798 26633858 
1217.851 27003010 27346964 27656404 27923272 28140988 28304556 28410028 
1221.227 28455028 28439710 28367476 28246032 28086088 27902710 27712696 
1224.602 27533108 27381086 27271208 27214902 27219522 27287648 27416520 
1227.977 27597930 27820108 28067214 28321462 28566588 28787564 28972700 
1231.352 29114544 29209688 29259340 29269548 29250834 29218866 29191898 
1234.728 29191756 29240592 29358594 29565004 29875178 30300706 30850678 
1238.103 31530376 32341554 33281438 34342548 35511124 36766152 38082288 
1241.478 39428040 40767492 42063920 43278096 44371496 45311992 46073852 
1244.853 46643772 47021960 47222940 47272332 47202288 47051276 46857020 
1248.229 46654064 46474332 46341152 46268976 46261160 46309192 46394204 
1251.604 46488784 46565240 46598436 46571768 46480564 46331196 46140140 
1254.979 45928572 45720676 45539156 45400820 45315780 45283820 45293384 
1258.354 45319604 45326484 45271908 45108844 44796820 44306804 43624268 
1261.729 42752784 41712060 40536156 39265848 37946920 36625788 35341584 
1265.105 34126788 33004570 31987130 31078834 30277188 29575682 28965474 
1268.480 28437586 27983840 27596694 27269338 26995888 26769866 26585524 
1271.855 26437040 26319266 26227816 26158976 26108938 26074208 26051022 
1275.230 26035226 26023828 26014046 26004232 25993504 25980594 25964060 
1278.606 25941374 25908874 25863154 25800702 25718852 25615648 25489874 
1281.981 25340604 25167612 24971738 24755992 24526014 24289814 24058436 
1285.356 23843564 23657452 23511782 23416970 23382282 23416480 23527524 
1288.731 23723342 24011056 24395998 24881904 25468758 26152360 26922836 
1292.107 27763202 28649542 29547342 30415124 31208588 31881786 32398134 
1295.482 32734990 32886684 32866240 32701124 32431160 32097678 31741388 
1298.857 31398640 31095954 30852492 30679248 30579160 30549084 30580190 
1302.232 30659834 30772886 30903472 31037728 31163516 31271536 31355578 
1305.608 31411640 31438604 31437858 31413812 31372960 31323846 31275916 
1308.983 31237854 31216918 31219268 31248962 31309426 31403768 31534154 
1312.358 31702108 31908140 32151266 32429516 32740812 33083622 33457618 
1315.733 33863892 34303780 34778972 35290476 35838604 36423528 37045464 
1319.109 37704504 38400128 39129752 39887116 40660396 41432796 42180568 
1322.484 42873384 43479584 43966172 44305300 44482412 44500072 44383756 
1325.859 44176748 43940468 43741336 43636724 43671492 43865980 44216660 
1329.234 44698348 45273228 45899472 46537136 47156560 47739776 48280856 
1332.610 48785168 49267128 49748952 50253632 50803888 51416568 52098548 
1335.985 52845472 53640992 54461000 55273336 56042292 56732712 57308600 
1339.360 57737780 57996340 58069240 57954608 57662700 57212880 56628588 
1342.735 55933660 55151088 54299740 53395576 52452088 51479048 50483244 
1346.111 49468336 48436560 47390900 46337648 45288084 44260536 43279340 
1349.486 42371612 41567428 40895584 40380532 40044016 39902408 39966632 
1352.861 40242992 40732264 41428564 42316528 43370604 44551652 45804948 
1356.236 47067744 48269380 49336688 50206504 50825268 51155968 51183628 
1359.612 50916012 50386152 49645376 48766928 47835728 46935824 46149496 
1362.987 45539156 45138804 44952456 44955140 45101232 45329796 45577500 
1366.362 45783376 45892588 45867620 45690824 45367788 44923500 44397300 
1369.737 43833468 43269928 42737540 42257692 41843352 41504348 41249668 
1373.113 41087884 41027140 41071972 41220300 41462316 41782388 42162492 
1376.488 42584232 43032500 43495148 43961992 44425632 44881168 45327220 
1379.863 45765184 46197956 46626876 47048324 47450364 47811648 48105296 
1383.238 48299484 48362812 48269268 47998336 47540372 46900792 46108632 
1386.614 45217852 44300568 43438640 42698896 42120068 41710784 41454080 
1389.989 41318568 41266024 41261032 41270108 41260924 41203288 41067088 
1393.364 40824380 40458060 39965724 39363572 38680276 37948044 37191344 
1396.739 36422516 35645804 34864988 34090912 33347550 32667362 32081660 
1400.115 31612758 31266268 31033742 30899522 30848580 30870814 30962144 
1403.490 31123362 31356540 31661726 32035462 32470648 32958492 33490940 
1406.865 34060988 34663116 35292992 35945636 36615728 37297984 37986884 
1410.240 38678392 39369444 40057752 40740452 41413000 42069252 42702148 
1413.615 43305732 43876976 44417080 44931216 45426788 45911336 46391068 
1416.991 46870376 47353172 47843532 48347000 48867000 49403432 49949452 
1420.366 50491544 51012888 51497368 51932604 52309592 52624628 52878928 
1423.741 53078220 53231608 53349720 53442644 53517480 53577564 53623332 
1427.116 53652616 53662288 53649276 53612352 53552936 53476032 53389168 
1430.492 53302100 53224568 53164832 53128692 53118848 53134912 53173596 
1433.867 53229736 53297832 53372572 53451972 53539444 53645980 53786704 
1437.242 53975008 54215796 54501040 54810680 55114108 55377700 55564736 
1440.617 55641600 55584992 55381800 55030608 54537780 53913480 53169140 
1443.993 52315460 51365808 50334548 49236472 48088604 46909428 45722260 
1447.368 44561196 43468008 42487464 41659832 41009696 40546996 40270440 
1450.743 40173640 40249316 40487848 40875124 41385992 41983404 42623852 
1454.118 43253604 43813160 44242524 44480728 44487116 44261896 43862976 
1457.494 43384668 42915700 42510924 42183524 41923768 41717420 41556048 
1460.869 41437860 41363360 41329576 41326004 41334388 41334424 41309204 
1464.244 41254292 41179860 41107880 41060572 41049752 41073464 41117388 
1467.619 41160808 41178660 41145656 41034568 40810844 40432424 39851776 
1470.995 39024612 37931700 36597528 35101372 33552646 32055654 30675586 
1474.370 29429500 28303922 27277876 26340458 25496268 24759150 24140640 
1477.745 23641988 23251838 22952156 22724808 22559312 22453576 22412264 
1481.120 22440874 22541130 22709342 22938288 23221044 23553756 23936614 
1484.496 24371570 24857798 25389570 25952628 26523392 27073218 27566788 
1487.871 27964686 28227998 28317430 28202752 27872218 27339658 26645380 
1491.246 25844340 24993742 24135702 23290644 22462788 21644414 20825874 
1494.621 20005754 19194346 18415150 17700294 17078516 16567145 16168304 
1497.997 15874119 15672326 15551735 15503830 15521000 15594458 15714066 
1501.372 15868450 16046405 16238742 16435876 16626423 16794426 16914468 
1504.747 16952364 16868790 16630348 16229935 15698297 15097730 14489941 
1508.122 13912253 13372030 12859643 12361873 11872163 11391678 10929393 
1511.498 10497300 10104772 9756885 9453331 9190362 8962863 8766486 8596728 
1515.355 8449095 8318840 8202670 8099528 8012374 7945552 7902629 7882925 
1519.212 7880226 7883195 7880124 7863861 7837579 7814402 7811838 7841897 
1523.070 7904856 7991482 8088152 8183863 8272773 8357210 8444873 8545191 
1526.927 8663920 8801108 8952174 9111550 9276229 9446830 9626813 9819818 
1530.785 10027353 10247675 10476866 10710661 10947436 11189440 11441886 
1534.160 11708470 11989284 12279074 12569603 12851657 13117127 13360651 
1537.535 13578261 13767900 13927683 14056107 14151295 14212402 14242428 
1540.910 14248078 14238525 14222091 14201481 14174846 14136164 14079654 
1544.286 14003337 13911809 13814382 13722620 13644245 13579697 13523225 
1547.661 13465734 13399811 13323374 13242408 13167774 13112210 13083252 
1551.036 13080759 13098380 13127748 13162310 13200769 13247190 13307828 
1554.411 13388124 13488736 13604278 13724741 13838429 13932507 13995090 
1557.787 14018668 14005801 13974525 13953482 13971480 14041426 14159442 
1561.162 14312212 14484460 14663837 14840065 15007309 15164049 15312505 
1564.537 15458438 15608163 15766116 15932618 16103549 16271900 16430613 
1567.912 16574305 16701207 16813852 16918568 17023412 17134038 17253278 
1571.288 17379758 17510378 17639866 17762212 17870852 17957280 18012708 
1574.663 18030460 18008806 17955278 17886182 17821864 17776468 17752894 
1578.038 17743402 17735152 17714754 17672304 17603532 17509378 17394414 
1581.413 17264138 17122698 16971486 16809374 16634479 16445719 16243385 
1584.789 16028767 15802916 15565197 15314359 15049704 14773590 14492717 
1588.164 14217126 13958922 13729664 13536625 13383067 13268814 13191546 
1591.539 13147590 13131163 13133622 13141921 13138745 13106473 13029131 
1594.914 12897598 12711580 12479740 12216773 11938264 11658299 11386338 
1598.290 11127668 10885665 10662914 10462203 10285605 10133633 10004668 
1601.665 9895369 9802771 9725168 9663740 9620851 9599103 9598697 9616718 
1605.522 9647681 9684238 9720086 9749633 9768373 9772507 9757733 9719205 
1609.380 9653001 9557575 9435553 9294339 9145421 9000275 8868333 8754112 
1613.237 8656889 8571820 8491971 8411427 8326540 8237282 8148310 8067595 
1617.094 8004037 7964012 7950209 7960974 7991584 8034920 8082751 8127041 
1620.952 8161072 8180993 8187982 8188084 8190144 8202333 8229109 8269228 
1624.809 8318131 8370248 8421730 8471327 8519915 8569049 8620081 8673215 
1628.667 8728249 8785758 8847299 8915274 8991852 9077274 9169414 9263163 
1632.524 9351720 9428138 9486281 9522519 9537422 9536033 9527599 9522689 
1636.382 9530919 9556423 9599442 9656388 9722051 9790265 9855134 9911912 
1640.239 9958728 9996837 10030235 10064585 10104094 10149472 10197774 
1643.614 10242382 10275426 10289473 10280618 10250321 10206050 10159851 
1646.990 10124306 10109825 10121322 10158495 10217007 10290524 10369347 
1650.365 10440107 10486166 10486370 10421542 10286080 10103991 9926251 
1653.740 9802736 9755191 9771050 9822224 9880827 9928116 9954931 9959712 
1657.597 9946252 9920556 9887403 9848762 9803279 9747702 9678309 9593040 
1661.455 9492072 9378229 9256327 9132698 9013468 8904485 8809359 8729095 
1665.312 8661520 8601324 8540088 8467475 8373660 8251633 8100203 7925710 
1669.170 7740359 7559739 7396821 7258626 7145400 7052780 6973108 6897492 
1673.027 6816368 6720688 6603094 6462092 6303955 6143322 5996589 5876236 
1676.885 5785195 5717171 5660839 5605085 5542693 5473163 5401564 5335579 
1680.742 5281007 5236737 5193813 5135940 5045590 4911057 4736735 4545138 
1684.599 4371030 4241223 4162232 4122994 4104730 4090984 4070480 4038607 
1688.457 3995066 3943137 3886666 3829334 3774751 3726724 3688160 3660926 
1692.314 3643785 3631322 3613881 3579836 3518937 3427822 3315490 3202187 
1696.172 3112005 3058446 3039326 3038392 3033687 3003058 2931398 2818128 
1700.029 2681949 2555478 2466764 2426312 2425379 2446037 2470229 2485091 
1703.886 2483958 2465631 2433475 2394059 2354680 2320668 2294619 2275966 
1707.744 2262510 2251485 2239895 2226340 2210087 2192004 2173755 2157339 
1711.601 2144186 2134496 2127237 2120245 2111522 2099169 2081956 2058918 
1715.459 2028923 1990642 1942746 1886868 1827836 1773936 1734780 1716350 
1719.316 1719244 1738672 1766783 1794930 1816058 1826272 1825274 1815392 
1723.174 1800619 1785015 1770742 1758566 1747754 1737641 1727893 1718512 
1727.031 1709697 1700749 1690471 1677798 1662996 1647630 1634459 1625313 
1730.888 1619559 1612642 1596179 1560032 1496922 1407459 1305021 1211145 
1734.746 1148020 1125828 1140046 1176724 1220050 1257001 1278966 1282821 
1738.603 1270193 1247198 1220881 1197589 1180777 1170711 1165893 1164631 
1742.461 1165561 1167986 1171608 1175694 1179781 1183203 1185927 1188486 
1746.318 1191310 1194665 1198221 1200746 1200646 1196426 1186824 1172206 
1750.176 1153701 1133901 1115763 1102707 1097426 1100615 1111710 1127854 
1754.033 1144897 1157488 1161408 1153568 1134499 1108056 1080983 1059891 
1757.890 1048333 1045709 1047701 1048432 1041889 1024386 996289 961287 
1761.748 925956 896471 877944 871902 877114 890727 908424 925956 938773 
1766.087 943156 936980 920776 898463 876185 860547 855269 859784 869179 
1770.427 875952 872599 854771 824328 789074 759300 742870 742074 754089 
1774.767 772842 792228 809024 822303 833524 844180 854704 863569 868416 
1779.106 866988 859186 847334 835715 828444 827249 830967 836179 838603 
1783.446 835383 826253 813473 801091 792560 790004 793489 801954 813439 
1787.785 826851 841392 855534 867254 873761 871437 858057 833690 801987 
1792.125 769689 743335 727503 723056 726906 734573 741708 745924 746422 
1796.465 743600 738223 730158 718940 703508 683463 659569 633885 609099 
1800.804 588461 573829 565966 564838 569383 578773 592011 607672 624196 
1805.144 639692 652368 661394 666538 668761 669027 668065 665443 659968 
1809.483 650311 636109 618224 599145 581825 568620 560160 555117 551103 
1813.823 545795 538098 528710 520118 515606 517696 528013 545961 569284 
1818.163 595528 622006 647125 669691 689337 705897 719405 730258 738190 
1822.502 742937 744032 740879 733411 722525 710344 699990 694481 695377 
1826.842 701881 711141 718343 718708 709316 690531 666306 642380 624827 
1831.181 616332 616432 621907 629008 634814 638896 642214 646893 654359 
1835.521 664647 676361 687511 697268 706594 718044 735070 759931 793290 
1839.861 832860 874624 913737 945779 967431 976696 973640 960258 940931 
1844.200 921540 908656 907295 919448 943986 976895 1012662 1045841 1072845 
1848.540 1092410 1105797 1115630 1124366 1133236 1141508 1147555 1149980 
1852.397 1148352 1143933 1138651 1133402 1128087 1120480 1107823 1087926 
1856.255 1060788 1029036 996887 968427 946211 929907 917555 906432 894944 
1860.594 883024 872134 863834 858589 855235 851417 845077 836146 825955 
1864.934 817224 812444 811680 812709 811049 802750 786186 764013 742472 
1869.273 728864 728731 742771 767664 796974 824660 846272 859917 865594 
1873.613 864697 858522 847699 832926 815132 795879 777755 763316 754056 
1877.953 749708 748811 749143 749342 749508 750902 755516 764478 777025 
1882.292 790867 803448 812344 816527 816759 814269 810452 805572 798767 
1886.632 789008 775896 760528 745393 733411 727271 727536 733311 741908 
1890.971 750670 757773 762420 764511 764677 762851 759200 754056 748347 
1895.311 743965 742837 746388 755151 767996 783066 798369 813074 827316 
1899.651 842321 859319 879206 900953 923233 943521 960390 972511 979518 
1903.990 981544 978555 970419 957169 940068 920676 901418 884585 871304 
1908.330 861543 853675 846272 838968 832395 829108 831465 840329 854571 
1912.669 870109 882128 886012 879339 861875 836080 805605 774336 745492 
1917.009 721761 704935 696074 695443 701417 710278 717480 718011 708220 
1921.349 688142 660299 631198 607174 593172 590054 594400 600903 603923 
1925.688 600571 591281 579569 569317 562980 560492 559464 556046 547122 
1930.028 531430 510564 487973 467242 451387 441536 437556 438286 441470 
1934.367 445251 447440 446909 443195 437423 431752 429165 431520 438850 
1938.707 448336 454704 452681 438816 414306 383861 355905 338761 337336 
1943.047 351396 375305 400941 421172 431984 432913 426843 417689 408602 
1947.386 402035 398885 400742 408933 424654 447639 474838 500745 518326 
1951.726 522705 512322 490461 463361 437523 416495 398652 378091 347449 
1956.065 301790 240619 169878 99048 37807 -6825 -33596 -45291 -46484 -41780 
1960.887 -32768 -19416 -2418 16202 32638 42314 43010 35985 25878 19748 24619 
1966.191 42546 71542 105644 136964 159105 167922 162022 142300 110250 68659 
1971.013 21703 -25313 -65368 -91771 -100020 -90380 -67290 -36445 -2584 35090 
1975.835 82345 148134 240288 358757 494575 630268 747816 832196 877347 
1980.174 886544 869976 840362 807730 778187 753193 730789 708884 685819 
1984.514 661428 636374 611189 586205 562383 540785 523899 514810 515374 
1988.854 525094 540686 557108 569748 575886 575920 573663 573564 579071 
1993.193 591281 607639 625026 640223 651970 660731 667567 673673 677655 
1997.533 677954 672876 661959 647125 631795 619650 611952 606876 600306 
2001.872 587432 564938 533686 498588 467275 447374 444820 460873 494243 
2006.212 540122 593670 649979 704337 752197 788875 809987 812875 797306 
2010.552 765507 722757 676095 630998 593172 565469 548781 543672 549113 
2014.891 564141 585873 609928 631961 646893 652767 650145 643376 637569 
2019.231 637403 645002 659536 677423 693950 705599 710477 709150 702711 
2023.570 693286 681737 669259 657213 646926 640854 640655 646495 657545 
2027.910 671483 686715 702479 720600 743434 773108 808659 847135 883423 
2032.250 913504 935452 951989 968991 992370 1026412 1071616 1123901 1177322 
2036.589 1225965 1266239 1297709 1321871 1339685 1351850 1357168 1353511 
2040.447 1340881 1320940 1297975 1278135 1267169 1267634 1280462 1303459 
2044.304 1333038 1366541 1402107 1440569 1482658 1530205 1584440 1644703 
2048.161 1709098 1772971 1829866 1872658 1894389 1890728 1862442 1815525 
2052.019 1760562 1710063 1676267 1666056 1680226 1711959 1750947 1785780 
2055.876 1808272 1815425 1809969 1797359 1782786 1770310 1761128 1754141 
2059.734 1748486 1744627 1743695 1748286 1760096 1779060 1803580 1831397 
2063.591 1860646 1890928 1923210 1958356 1996700 2037312 2077195 2113020 
2067.448 2142254 2163998 2178884 2188508 2193703 2194768 2191372 2182647 
2071.306 2168527 2150546 2131599 2114918 2102965 2097138 2097171 2102265 
2075.163 2111388 2124241 2140989 2161268 2184445 2208722 2232135 2252984 
2079.021 2270937 2286891 2302047 2317736 2333759 2348517 2359777 2365807 
2082.878 2366340 2363042 2358778 2355513 2353981 2352581 2348384 2337924 
2086.736 2319569 2293953 2264308 2234533 2207890 2186143 2168927 2154442 
2090.593 2141056 2128236 2117115 2109690 2108059 2113120 2123941 2138492 
2094.450 2153876 2167695 2178351 2184745 2186976 2185277 2181015 2175454 
2098.308 2171025 2170692 2176486 2189607 2208822 2231102 2252851 2270437 
2102.165 2282295 2288557 2291921 2294819 2299282 2305878 2313772 2321667 
2106.023 2328396 2334692 2341921 2351948 2365641 2382565 2400390 2416682 
2109.880 2429310 2437207 2440406 2439840 2436474 2430377 2420614 2406120 
2113.738 2386230 2361410 2333260 2304345 2277065 2253450 2234499 2220345 
2117.595 2210654 2205025 2202761 2202794 2203727 2203527 2200563 2193536 
2121.452 2182081 2167228 2150346 2132532 2114551 2096139 2076529 2055023 
2125.310 2031553 2006420 1979957 1951666 1919915 1882375 1836454 1781355 
2129.167 1718280 1651621 1586602 1529307 1484188 1453069 1435583 1429732 
2133.025 1433156 1443894 1460416 1480830 1502574 1522524 1536755 1542807 
2136.882 1540246 1530404 1516738 1501975 1487978 1474779 1460948 1445456 
2140.740 1428269 1410883 1395825 1385620 1381099 1381465 1384656 1389243 
2144.597 1395792 1405199 1420390 1441600 1467564 1493796 1513879 1522490 
2148.454 1516871 1498285 1470091 1436613 1400545 1361987 1319411 1269728 
2152.312 1211611 1144664 1070719 990477 905071 815896 726574 645931 590750 
2156.651 580564 637403 774270 988684 1258463 1547196 1813595 2023064 2156872 
2160.991 2214816 2210620 2165896 2102898 2039542 1987580 1952997 1937188 
2164.848 1939285 1955094 1978693 2002992 2020035 2023331 2010215 1981489 
2168.706 1941581 1896253 1851661 1811133 1775633 1744527 1716583 1692101 
2172.563 1672509 1660235 1657142 1663861 1678496 1697922 1717914 1734946 
2176.421 1746190 1749683 1744394 1730255 1708500 1681323 1652985 1628971 
2180.278 1613573 1610580 1620291 1640013 1665191 1691502 1714953 1733915 
2184.135 1747787 1756703 1760296 1757867 1749018 1735245 1719411 1706570 
2187.993 1702379 1710063 1730388 1759830 1793466 1825208 1851495 1871760 
2191.850 1887767 1903042 1919881 1939651 1961285 1983386 2005189 2027126 
2195.708 2050961 2078527 2109524 2142055 2171458 2192537 2201229 2196600 
2199.565 2180416 2157705 2134796 2116649 2106527 2104896 2109990 2119213 
2203.423 2129934 2141156 2152311 2164032 2177252 2192837 2210987 2231502 
2207.280 2252684 2273135 2291055 2304945 2314505 2320168 2323433 2325864 
2211.137 2328962 2333260 2338423 2343620 2347551 2349350 2348451 2344853 
2214.995 2338756 2330628 2320335 2308010 2294086 2278664 2262443 2245923 
2218.852 2228937 2210987 2191471 2170026 2147815 2126738 2109357 2097637 
2222.710 2092177 2091212 2091678 2089680 2082522 2069571 2052925 2035714 
2226.567 2022132 2014509 2013111 2016473 2022032 2027791 2032652 2036546 
2230.425 2040974 2046300 2053059 2060682 2068406 2075797 2083188 2091112 
2234.282 2100101 2110023 2120079 2128736 2135129 2139158 2142587 2147482 
2238.139 2156839 2172124 2193503 2219979 2249420 2280196 2311374 2342421 
2241.997 2373203 2403222 2431043 2455101 2473995 2487491 2496888 2504320 
2245.854 2512652 2523449 2537580 2553645 2569577 2582576 2591075 2594375 
2249.712 2592842 2587609 2579809 2570743 2561511 2553445 2547679 2545646 
2253.569 2548445 2556278 2568377 2583176 2598642 2612975 2624609 2632909 
2257.427 2637543 2638710 2636743 2631976 2624709 2615342 2604609 2592342 
2261.284 2578909 2563744 2547146 2529482 2511952 2497022 2487191 2484058 
2265.141 2488457 2498788 2512185 2525249 2535114 2540446 2541946 2541413 
2268.999 2541346 2543713 2549045 2556644 2565310 2573376 2579876 2584309 
2272.856 2587275 2589142 2590209 2591409 2592942 2595942 2601175 2609609 
2276.714 2621576 2636876 2654911 2674748 2695885 2718123 2742197 2768339 
2280.571 2796851 2826699 2856482 2883999 2907281 2925527 2938437 2947010 
2284.428 2952248 2955117 2956051 2955117 2952281 2948111 2943141 2938871 
2288.286 2936235 2936235 2938871 2943574 2949379 2955284 2960154 2963690 
2292.143 2965625 2966226 2966192 2966559 2967861 2971197 2977369 2986009 
2296.001 2996819 3008563 3019974 3030451 3039793 3049003 3059113 3071059 
2299.858 3084974 3099657 3113040 3122951 3127557 3126222 3119914 3110270 
2303.716 3099557 3089780 3081804 3076098 3072361 3070192 3069424 3070225 
2307.573 3072661 3076632 3081671 3086910 3091181 3093818 3094218 3092349 
2311.430 3088712 3083706 3078067 3072627 3067956 3065019 3064886 3068323 
2315.288 3076231 3089045 3106532 3128057 3152588 3178822 3205157 3230593 
2319.145 3254728 3277797 3301134 3326175 3353821 3383507 3412293 3434535 
2323.003 3443151 3431462 3394627 3332318 3248619 3152221 3053174 2961855 
2326.860 2886133 2829367 2790982 2766905 2752167 2741563 2732261 2723258 
2330.718 2715056 2708788 2705120 2704520 2706721 2711988 2720457 2732661 
2334.575 2748699 2767973 2789048 2809857 2828633 2844108 2856482 2866588 
2338.432 2875827 2885066 2894605 2903945 2912518 2919956 2926795 2933867 
2342.290 2942073 2951614 2962089 2972631 2982340 2991448 3001557 3015136 
2346.147 3035122 3063484 3100625 3145178 3194543 3245381 3294323 3338929 
2350.005 3377697 3409989 3436004 3456511 3472676 3485736 3496858 3506912 
2353.862 3516399 3525217 3533001 3539581 3544425 3548033 3550839 3553879 
2357.719 3557721 3562698 3568578 3574525 3580004 3584480 3587721 3590193 
2361.577 3592532 3595104 3598245 3602120 3606597 3612077 3618993 3627279 
2365.434 3637269 3648563 3660191 3671519 3681911 3691301 3699923 3708210 
2369.292 3716431 3724418 3731704 3737686 3742031 3745072 3748347 3753895 
2373.149 3763387 3778594 3800053 3827763 3860456 3896830 3935680 3975537 
2377.007 4015131 4053457 4089779 4123830 4155709 4186520 4217635 4250792 
2380.864 4287499 4328393 4373139 4420333 4468135 4514035 4556155 4593122 
2384.721 4624600 4650856 4672458 4690544 4706019 4719518 4731543 4742128 
2388.579 4751139 4758375 4763668 4766917 4768224 4767721 4765544 4761591 
2392.436 4755929 4748258 4738510 4726853 4713823 4700492 4687932 4677214 
2396.294 4669143 4663985 4661741 4662344 4665324 4670985 4679090 4689607 
2400.151 4702335 4716503 4731577 4747052 4762830 4779815 4799279 4822731 
2404.009 4851680 4886762 4927813 4973693 5022830 5073079 5122863 5170944 
2407.866 5216348 5259408 5300795 5341348 5382643 5425854 5471955 5521416 
2411.723 5573804 5627942 5682290 5735032 5784624 5829722 5869552 5903945 
2415.581 5933066 5957285 5977373 5993969 6007944 6020173 6031025 6040768 
2419.438 6049235 6056157 6061230 6064254 6065598 6065632 6064556 6062574 
2423.296 6059651 6055451 6049840 6043154 6036367 6030488 6027397 6028102 
2427.153 6033511 6043624 6058139 6076518 6098393 6123629 6152563 6185062 
2431.010 6220992 6259446 6299685 6340735 6382293 6424427 6467843 6513382 
2434.868 6562054 6614230 6670013 6728932 6790688 6854504 6919879 6986409 
2438.725 7053487 7120745 7188113 7255863 7325208 7397562 7474817 7558424 
2442.583 7649230 7747206 7851243 7959827 8071510 8185146 8300096 8416359 
2446.440 8534106 8653508 8774431 8896166 9017528 9137368 9254465 9367869 
2450.298 9477375 9583080 9685627 9785927 9884217 9980597 10074317 10163616 
2454.155 10246589 10321332 10386451 10441464 10486710 10522963 10550698 
2457.530 10570220 10580438 10580201 10567639 10541193 10500220 10444961 
2460.906 10376135 10295037 10203100 10101041 9989852 9869879 9742280 9607910 
2464.763 9468570 9325990 9182240 9039078 8898127 8761076 8629072 8503696 
2468.620 8386429 8278143 8179913 8091933 8013961 7945282 7884881 7832012 
2472.478 7785761 7745317 7710104 7679109 7651726 7627108 7604853 7584656 
2476.335 7566887 7551749 7539173 7529429 7521878 7515809 7510550 7505190 
2480.193 7499459 7493256 7486717 7479975 7473334 7466862 7460592 7454558 
2484.050 7449131 7444480 7441277 7439862 7440469 7442760 7446401 7450311 
2487.907 7453581 7455468 7455333 7453615 7450715 7447918 7446097 7446131 
2491.765 7448390 7452637 7458334 7465041 7472019 7479199 7486683 7494638 
2495.622 7503437 7513315 7524271 7536206 7548647 7561256 7573664 7585330 
2499.480 7595580 7603774 7609641 7612676 7613249 7612170 7610147 7608259 
2503.337 7607686 7608731 7611968 7617498 7625355 7635707 7648522 7663495 
2507.195 7680121 7697288 7713780 7728182 7739616 7747712 7752636 7754897 
2511.052 7755268 7754087 7751827 7748353 7743495 7737627 7730847 7723730 
2514.909 7716377 7709328 7702751 7697018 7692330 7689328 7688654 7691149 
2518.767 7696917 7705989 7717456 7729835 7741944 7752603 7761137 7767579 
2522.624 7772504 7776248 7779622 7782692 7785559 7787954 7789539 7790147 
2526.482 7789641 7788325 7786807 7785626 7785897 7788021 7792272 7798479 
2530.339 7805664 7812850 7818889 7823342 7826513 7829077 7832519 7838018 
2534.197 7846317 7857552 7871385 7886939 7904047 7922707 7943089 7965530 
2538.054 7989728 8014871 8039544 8062193 8081738 8098144 8111984 8124543 
2541.911 8137034 8150134 8163605 8176570 8188084 8197402 8204628 8210403 
2545.769 8216075 8222693 8230832 8240287 8250654 8261055 8271085 8280744 
2549.626 8290234 8299994 8310362 8321137 8331877 8342449 8352075 8360554 
2553.484 8367715 8373525 8377714 8380112 8380517 8379099 8376294 8372985 
2557.341 8370147 8369134 8370282 8373728 8378794 8384672 8390077 8393827 
2561.198 8395313 8393995 8390111 8383693 8375281 8365114 8353460 8340591 
2565.056 8326372 8311004 8294590 8277738 8261326 8246501 8234613 8226475 
2568.913 8222255 8221579 8223065 8225327 8226813 8226881 8225463 8223538 
2572.771 8222356 8222998 8226138 8231777 8239105 8246939 8254470 8260819 
2576.628 8266154 8270815 8275610 8281689 8289896 8300669 8314382 8330898 
2580.486 8349914 8370958 8393354 8416359 8438994 8460346 8479841 8496837 
2584.343 8511298 8523800 8535324 8547252 8560634 8576653 8595612 8617343 
2588.200 8641341 8666623 8692652 8719088 8746302 8774736 8804726 8836376 
2592.058 8868941 8901340 8932388 8960969 8986643 9009341 9029774 9048482 
2595.915 9066143 9082823 9098421 9112936 9126912 9141157 9157231 9176724 
2599.773 9201023 9230264 9263908 9300838 9339024 9376739 9412766 9446660 
2603.630 9478865 9510022 9541079 9572715 9605167 9638433 9672041 9705685 
2607.488 9739197 9772745 9806668 9841611 9878149 9916522 9956864 9998634 
2611.345 10041086 10082931 10123052 10160394 10194144 10224199 10250593 
2614.720 10273594 10293951 10312341 10329612 10346544 10363647 10381327 
2618.095 10399482 10417910 10436204 10453955 10470892 10487218 10503444 
2621.471 10520248 10538206 10557692 10578571 10600878 10624340 10649195 
2624.846 10675648 10704548 10736336 10771728 10810009 10850469 10891815 
2628.221 10932689 10972038 11009726 11045853 11081201 11116621 11152723 
2631.596 11189916 11228438 11268324 11309710 11352835 11398277 11446139 
2634.972 11496694 11549739 11605207 11662485 11720860 11779857 11838963 
2638.347 11897669 11955429 12011833 12066509 12119010 12169269 12216875 
2641.722 12262203 12305047 12346225 12386044 12425423 12464941 12505657 
2645.097 12548082 12592421 12638470 12685719 12733382 12780743 12827324 
2648.473 12872988 12918249 12963377 13009022 13055662 13103467 13152508 
2651.848 13202579 13253408 13304891 13356551 13408490 13460232 13511740 
2655.223 13562775 13613303 13663291 13713215 13763180 13813321 13863948 
2658.598 13915025 13966450 14017778 14068428 14117989 14166049 14211991 
2661.974 14255713 14297419 14337040 14374849 14411292 14446676 14481309 
2665.349 14515259 14548596 14581832 14615002 14648449 14682584 14717544 
2668.724 14753467 14790456 14828305 14866945 14905932 14945163 14984191 
2672.099 15022709 15060406 15097043 15132896 15167960 15202479 15236555 
2675.475 15269947 15302346 15333100 15361590 15387543 15411333 15433683 
2678.850 15456137 15480035 15506680 15536659 15569936 15606136 15644675 
2682.225 15685106 15727293 15771545 15818587 15868587 15921963 15978644 
2685.600 16038325 16100869 16166274 16234372 16305510 16379548 16456353 
2688.976 16535547 16616715 16699415 16783372 16868686 16955224 17043192 
2692.351 17132316 17222422 17313168 17404520 17496580 17589902 17685212 
2695.726 17783132 17884006 17987878 18093912 18201426 18309450 18417154 
2699.101 18524158 18630534 18736554 18842496 18948708 19055566 19162764 
2702.477 19270230 19377514 19484308 19589948 19693878 19795650 19894810 
2705.852 19990522 20082126 20168994 20250082 20324518 20391954 20451826 
2709.227 20504204 20549364 20587822 20620204 20646888 20668364 20684522 
2712.602 20695608 20701654 20702626 20698526 20689422 20674758 20654396 
2715.978 20627882 20594910 20555408 20509658 20458668 20403380 20345212 
2719.353 20285424 20224914 20164796 20104962 20045794 19987296 19929880 
2722.728 19874136 19820932 19771446 19726816 19688124 19655604 19628980 
2726.103 19607764 19590778 19577122 19566134 19557538 19551542 19548976 
2729.479 19550330 19556188 19566724 19581836 19601004 19623814 19649986 
2732.854 19679004 19710764 19745022 19781604 19819962 19859706 19900394 
2736.229 19941640 19983340 20025286 20067344 20109196 20150774 20191592 
2739.604 20231578 20270392 20308338 20345490 20381918 20418000 20453806 
2742.979 20489476 20525430 20561870 20599114 20637438 20676704 20716668 
2746.355 20756704 20795912 20833870 20870094 20904650 20937752 20969776 
2749.730 21001352 21032826 21064440 21096614 21129832 21164480 21201324 
2753.105 21240850 21283614 21329654 21378972 21431148 21485770 21542522 
2756.480 21601090 21661236 21722642 21784790 21847050 21908622 21968810 
2759.856 22027160 22083214 22137010 22188510 22237300 22282952 22324460 
2763.231 22360912 22391296 22414986 22431840 22442096 22446318 22445410 
2766.606 22439584 22429430 22414952 22396216 22373540 22347378 22318460 
2769.981 22288322 22257944 22228684 22201692 22177318 22156118 22138022 
2773.357 22123062 22111104 22101726 22094648 22089560 22085690 22082622 
2776.732 22079658 22076138 22071814 22066098 22058602 22048596 22035384 
2780.107 22018200 21996694 21970694 21940860 21908100 21873984 21839838 
2783.482 21806634 21775140 21745666 21718356 21693034 21669664 21648594 
2786.858 21630100 21614428 21601682 21591896 21584758 21580196 21578002 
2790.233 21578352 21581590 21587788 21597120 21608890 21622750 21637342 
2793.608 21651796 21665414 21677710 21688646 21698434 21707490 21715780 
2796.983 21723200 21728982 21732360 21732430 21728632 21720796 21709232 
2800.359 21694602 21677604 21658762 21638700 21617492 21594788 21570306 
2803.734 21544018 21515954 21486256 21455830 21425440 21395958 21368044 
2807.109 21342150 21318310 21296386 21275922 21256646 21238380 21221294 
2810.484 21205810 21192904 21183684 21179302 21180518 21187790 21201116 
2813.860 21220250 21244120 21272166 21303692 21338354 21376082 21417086 
2817.235 21461714 21510140 21562960 21620556 21683596 21752252 21826772 
2820.610 21907194 21993208 22084224 22179724 22279360 22382856 22490284 
2823.985 22601858 22717616 22837558 22961134 23087506 23215696 23344834 
2827.361 23474254 23603574 23732266 23860016 23985880 24109290 24229304 
2830.736 24345568 24458004 24566998 24673708 24779142 24884396 24990514 
2834.111 25098904 25211012 25328766 25454458 25590272 25738364 25899800 
2837.486 26075018 26263928 26466654 26683922 26918078 27172924 27453932 
2840.862 27767370 28119812 28517862 28967916 29475742 30047498 30688920 
2844.237 31405016 32199722 33073216 34021316 35031580 36083260 37147412 
2847.612 38183760 39146648 39988100 40659776 41122416 41349584 41330196 
2850.987 41071352 40596648 39944000 39156368 38281344 37364784 36444788 
2854.363 35553848 34716804 33949404 33261798 32657646 32136102 31692020 
2857.738 31317864 31004596 30742478 30522602 30337232 30179786 30045652 
2861.113 29931086 29833902 29752388 29686464 29635734 29600970 29582704 
2864.488 29581994 29599444 29636018 29692496 29769704 29868576 29989448 
2867.864 30131732 30294274 30474190 30668226 30871276 31078228 31283892 
2871.239 31482958 31670422 31842134 31994692 32125860 32235194 32323990 
2874.614 32395494 32454368 32506570 32558136 32614532 32680258 32758464 
2877.989 32850906 32958526 33080798 33217478 33368018 33532352 33710316 
2881.365 33902112 34107652 34326336 34556004 34793904 35035064 35274376 
2884.740 35505732 35723688 35923680 36103132 36261048 36398484 36518516 
2888.115 36625788 36726124 36826128 36933112 37054304 37196936 37368724 
2891.490 37577168 37831552 38142516 38522748 38987896 39555192 40241428 
2894.865 41062464 42027968 43138756 44381848 45729108 47134624 48532920 
2898.241 49850252 51004656 51916432 52524476 52788408 52697984 52272888 
2901.616 51560564 50627828 49546652 48392520 47231692 46115264 45083848 
2904.991 44164020 43371560 42715236 42198680 41822188 41584964 41485868 
2908.366 41524184 41700424 42015704 42470656 43063672 43789560 44636796 
2911.742 45585964 46611788 47680608 48752324 49786632 50740576 51574336 
2915.117 52256520 52763564 53084320 53219700 53182468 52993348 52677892 
2918.492 52264108 51777020 51237460 50662156 50062100 49444384 48813792 
2921.867 48173484 47526396 46876432 46228656 45589460 44966640 44367388 
2925.243 43799200 43267992 42777684 42330520 41926800 41565748 41245072 
2928.618 40961920 40711884 40489452 40288180 40100340 39917372 39731216 
2931.993 39533416 39315940 39071636 38794024 38477524 38118424 37715344 
2935.368 37269860 36786024 36270628 35732248 35179188 34620160 34063032 
2938.744 33514884 32982870 32474004 31994834 31551578 31148388 30787540 
2942.119 30468184 30186888 29938468 29715452 29510174 29314956 29121878 
2945.494 28924530 28717008 28495608 28259080 28008932 27749356 27486654 
2948.869 27228306 26981748 26752704 26545406 26361900 26202050 26064182 
2952.245 25945172 25841526 25748418 25661552 25576074 25487872 25393680 
2955.620 25291290 25179164 25057028 24924922 24783424 24633482 24476898 
2958.995 24315884 24152970 23991130 23832784 23679776 23532944 23392386 
2962.370 23258166 23130208 23009066 22895746 22791638 22697854 22615122 
2965.746 22543502 22482504 22431596 22390356 22358750 22336982 22325576 
2969.121 22325122 22336076 22359448 22396148 22447714 22515620 22600950 
2972.496 22703928 22823100 22955266 23095264 23235690 23368644 23484362 
2975.871 23573662 23627888 23639400 23603362 23518218 23386444 23214018 
2979.247 23010778 22789228 22561580 22340192 22134884 21952222 21795798 
2982.622 21665624 21559860 21474038 21403058 21341556 21284380 21227176 
2985.997 21167230 21103290 21035782 20966334 20897384 20831054 20769112 
2989.372 20711870 20658460 20606584 20553012 20494758 20429148 20354900 
2992.748 20272544 20184614 20094966 20007904 19928076 19858772 19801476 
2996.123 19756326 19721962 19696376 19677618 19664166 19655256 19650786 
2999.498 19650576 19654598 19662536 19673734 19687674 19703726 19721858 
3002.873 19741762 19763434 19786912 19811880 19838274 19866090 19895504 
3006.249 19926724 19960166 19995864 20033686 20073382 20114366 20156498 
3009.624 20199608 20243800 20289174 20335942 20384104 20433558 20484024 
3012.999 20535574 20588448 20642824 20698874 20756740 20815760 20875274 
3016.374 20934658 20993562 21052232 21111362 21171682 21233960 21298264 
3019.750 21364354 21431392 21498722 21565744 21632432 21698642 21764408 
3023.125 21829664 21893744 21956368 22017224 22076590 22135232 22194440 
3026.500 22255608 22319436 22386170 22455320 22525844 22597076 22668006 
3029.875 22738530 22808678 22878630 22948524 23018254 23087296 23155300 
3033.250 23222092 23287566 23351966 23416094 23480514 23545888 23612668 
3036.626 23681386 23752038 23824698 23899294 23975620 24053394 24132444 
3040.001 24212558 24294230 24377248 24462070 24548838 24637236 24726948 
3043.376 24817170 24906958 24995708 25082932 25168490 25252520 25335756 
3046.751 25418694 25501996 25586336 25672132 25759776 25849088 25940142 
3050.127 26032306 26124946 26217326 26308774 26398518 26486800 26573654 
3053.502 26659788 26745974 26833198 26922026 27012848 27105662 27200086 
3056.877 27295410 27390968 27486264 27580840 27674590 27767688 27860134 
3060.252 27952106 28043780 28135260 28227008 28319128 28412188 28506646 
3063.628 28602436 28699380 28796698 28893898 28990092 29085314 29179954 
3067.003 29275008 29371852 29471344 29574014 29679582 29787412 29896510 
3070.378 30005780 30114614 30222942 30330408 30437584 30544252 30650944 
3073.753 30757628 30864516 30972320 31081006 31190608 31301130 31411856 
3077.129 31522040 31631254 31739570 31847272 31955284 32064356 32174852 
3080.504 32286980 32400276 32514178 32628748 32743924 32859952 32977256 
3083.879 33095170 33213046 33329446 33442948 33552646 33659044 33763392 
3087.254 33867400 33973520 34083100 34197084 34315472 34437548 34563000 
3090.630 34691324 34822228 34955368 35089948 35224428 35357292 35486964 
3094.005 35612464 35734224 35853500 35972520 36093412 36218008 36346928 
3097.380 36479776 36615188 36751548 36887300 37020964 37152108 37280796 
3100.755 37407616 37533132 37658576 37784776 37912244 38041492 38172396 
3104.131 38304540 38437448 38570904 38704616 38838552 38973292 39108864 
3107.506 39245720 39383524 39521984 39660456 39798648 39936116 40073048 
3110.881 40209480 40346024 40483196 40621172 40760396 40900756 41042104 
3114.256 41183832 41325388 41465708 41604216 41740472 41874584 42007452 
3117.632 42139928 42273616 42409460 42548344 42690340 42835096 42982124 
3121.007 43130668 43280252 43430364 43580784 43731184 43881080 44029900 
3124.382 44176856 44321520 44463256 44602024 44738084 44872056 45004860 
3127.757 45137884 45272348 45409576 45550304 45694800 45842836 45993212 
3131.133 46144632 46295592 46445312 46593232 46739440 46884700 47029748 
3134.508 47175140 47321024 47467292 47613536 47759268 47904204 48048556 
3137.883 48192812 48337480 48483460 48630824 48779496 48928848 49077664 
3141.258 49225264 49370540 49513452 49653920 49793020 49931800 50071620 
3144.634 50213384 50357800 50505056 50655044 50807056 50960500 51114704 
3148.009 51268968 51422460 51574372 51724728 51873156 52020064 52165980 
3151.384 52311388 52456688 52601776 52746276 52889932 53032208 53173216 
3154.759 53313492 53453732 53594884 53736976 53879944 54023296 54165944 
3158.135 54307252 54447024 54585492 54723140 54860640 54998524 55136868 
3161.510 55276044 55416128 55557468 55700204 55844384 55989408 56133760 
3164.885 56275856 56414228 56547852 56677020 56802684 56926640 57050296 
3168.260 57174588 57299716 57425064 57549996 57674320 57798220 57922276 
3171.635 58047048 58172952 58299352 58425292 58549488 58670832 58788612 
3175.011 58902744 59013260 59120424 59224048 59324308 59421448 59516284 
3178.386 59610160 59704504 59800772 59899312 59999960 60101660 60203348 
3181.761 60303840 60402680 60499448 60594448 60687868 60779628 60869848 
3185.136 60958520 61045992 61132568 61218548 61303784 61387548 61468540 
3188.512 61545924 61619460 61689728 61758668 61828384 61900748 61976712 
3191.887 62055676 62136336 62217048 62296360 62373660 62448640 62521524 
3195.262 62592088 62659680 62723264 62782608 62837824 62890320 62942564 
3198.637 62996304 63053152 63112924 63174808 63236856 63297532 63356108 
3202.013 63412400 63466848 63520156 63572236 63623100 63672364 63720436 
3205.388 63767976 63815952 63865848 63918092 63972412 64027816 64083188 
3208.763 64137416 64190304 64242432 64294180 64345904 64397044 64446396 
3212.138 64492748 64535344 64574516 64611540 64648180 64685680 64724520 
3215.514 64763940 64802596 64839372 64873612 64906204 64938904 64973764 
3218.889 65012364 65055700 65103740 65155624 65210296 65266744 65323896 
3222.264 65381124 65437600 65492496 65545896 65597876 65649064 65700860 
3225.639 65754368 65810188 65868260 65927880 65987892 66047372 66105776 
3229.015 66162848 66219068 66274724 66330148 66385432 66440992 66497640 
3232.390 66556452 66618868 66685736 66757256 66832608 66910444 66988840 
3235.765 67066556 67142848 67217808 67291848 67365400 67438496 67510800 
3239.140 67582488 67653808 67725832 67799920 67877312 67958168 68041520 
3242.516 68125584 68208232 68288064 68365120 68440640 68516976 68596288 
3245.891 68679648 68767176 68857088 68947752 69037320 69124800 69210600 
3249.266 69295392 69380008 69465032 69550704 69636144 69720600 69803120 
3252.641 69882896 69959264 70032096 70101752 70168616 70234048 70299176 
3256.017 70365128 70432584 70501168 70569576 70636272 70699400 70757848 
3259.392 70811712 70861640 70909032 70954752 70999504 71042704 71083720 
3262.767 71121184 71154360 71183088 71207328 71227360 71243440 71255544 
3266.142 71263352 71266864 71266400 71262184 71255272 71245976 71234968 
3269.518 71222400 71208424 71192808 71175744 71157016 71136640 71113960 
3272.893 71088632 71060072 71028224 70993496 70956704 70919256 70882112 
3276.268 70846232 70811472 70777472 70743304 70707904 70670584 70630784 
3279.643 70588328 70543496 70496264 70447464 70397896 70348960 70301824 
3283.019 70257384 70216328 70178232 70142208 70107320 70072312 70036416 
3286.394 69999240 69960784 69921160 69880872 69840440 69800712 69762776 
3289.769 69727792 69696712 69669872 69646840 69626456 69607792 69590288 
3293.144 69574536 69562176 69555208 69555248 69562912 69576984 69595272 
3296.520 69614824 69633696 69650960 69667496 69684888 69704800 69728536 
3299.895 69756280 69787208 69820080 69854144 69888888 69924192 69960624 
3303.270 69997912 70036384 70075976 70116936 70160288 70206896 70258000 
3306.645 70314016 70374952 70439792 70507952 70578344 70650856 70725952 
3310.021 70803672 70884104 70966416 71049256 71131448 71212248 71292208 
3313.396 71372848 71455752 71542168 71632424 71725592 71819944 71913504 
3316.771 72004976 72093296 72178344 72259688 72336904 72409512 72477240 
3320.146 72540592 72600472 72658392 72715696 72772744 72829000 72882768 
3323.521 72932856 72978592 73020768 73061224 73101960 73144544 73188544 
3326.897 73231960 73272008 73305896 73331824 73349360 73358736 73360816 
3330.272 73355712 73342888 73321744 73291496 73252592 73206304 73154112 
3333.647 73097224 73035904 72969384 72896096 72815136 72725968 72629648 
3337.022 72527632 72421216 72311264 72197472 72079408 71956248 71828160 
3340.398 71695888 71560328 71421816 71279672 71132072 70976640 70811552 
3343.773 70636272 70451712 70259712 70062544 69862072 69658784 69452904 
3347.148 69244592 69034248 68823304 68613752 68407008 68204472 68006064 
3350.523 67811144 67618768 67428440 67240208 67054376 66871144 66690528 
3353.899 66512308 66335976 66161416 65989816 65822220 65659924 65503664 
3357.274 65352700 65205448 65060088 64915396 64771676 64630308 64493904 
3360.649 64364424 64242744 64127968 64017640 63909264 63800604 63690820 
3364.024 63580408 63471100 63364236 63261160 63162284 63067332 62976344 
3367.400 62888712 62804052 62721616 62640280 62558264 62473700 62384980 
3370.775 62290776 62190780 62084728 61972968 61855432 61732160 61603116 
3374.150 61468920 61330268 61187572 61040728 60888372 60727456 60554180 
3377.525 60364868 60156724 59929436 59684128 59423420 59150116 58866240 
3380.901 58571896 58266500 57948856 57617712 57272872 56914856 56545136 
3384.276 56165168 55776492 55380104 54977352 54569264 54157460 53743388 
3387.651 53328736 52914480 52501632 52090476 51681432 51274784 50870600 
3391.026 50469104 50070208 49673940 49280268 48890172 48504544 48124732 
3394.402 47751912 47386468 47027568 46673580 46322056 45971224 45619824 
3397.777 45268120 44916628 44566448 44218164 43871628 43526168 43181060 
3401.152 42836372 42493020 42152196 41815804 41484336 41157496 40833844 
3404.527 40511636 40189268 39866340 39543252 39221132 38901204 38584264 
3407.903 38269980 37957844 37647084 37337740 37029912 36724684 36423272 
3411.278 36126284 35833672 35545140 35260004 34977740 34698284 34422304 
3414.653 34150660 33884240 33623956 33370022 33122026 32879320 32640464 
3418.028 32404132 32168500 31932746 31696688 31461332 31228988 31002284 
3421.404 30783842 30575320 30376708 30186108 30000560 29816654 29631762 
3424.779 29444038 29253422 29060974 28867586 28674638 28482552 28291684 
3428.154 28102208 27914370 27728802 27546418 27367712 27192714 27020818 
3431.529 26851280 26683006 26515608 26348838 26183470 26020170 25859954 
3434.905 25703032 25549294 25398668 25250342 25103926 24958648 24813978 
3438.280 24669324 24524120 24377774 24230740 24083164 23936090 23790712 
3441.655 23648216 23509160 23373434 23240234 23107844 22974340 22837804 
3445.030 22696528 22550134 22398868 22244344 22089560 21937514 21791410 
3448.406 21653748 21524938 21404660 21291444 21182642 21075778 20969222 
3451.781 20861298 20751248 20638898 20523726 20405810 20285320 20162782 
3455.156 20039480 19916940 19796794 19680356 19568318 19459878 19353540 
3458.531 19247716 19140394 19030502 18917556 18801804 18684042 18565380 
3461.906 18447022 18329980 18215212 18103516 17995578 17891776 17791968 
3465.282 17696082 17604050 17515036 17428870 17344686 17262000 17179952 
3468.657 17097608 17014040 16928490 16841026 16751826 16661644 16571825 
3472.032 16483402 16397474 16314695 16235026 16158398 16084019 16010821 
3475.407 15937876 15864085 15789034 15713034 15637083 15562655 15491434 
3478.783 15424276 15361590 15302586 15245958 15190263 15135297 15081401 
3482.158 15030050 14983162 14941254 14904115 14869620 14835196 14797861 
3485.533 14756175 14710004 14660615 14610376 14561479 14515396 14473155 
3488.908 14435269 14402078 14374404 14353410 14339403 14332212 14329780 
3492.284 14328821 14326150 14319233 14307418 14292283 14277114 14265711 
3495.659 14261260 14265506 14278688 14300124 14328890 14364130 14405915 
3499.034 14453663 14506831 14563775 14622472 14681041 14738453 14795872 
3502.409 14855390 14920712 14995064 15080372 15177190 15283435 15397051 
3505.785 15515265 15635813 15757732 15880374 16004084 16128996 16256111 
3509.160 16386500 16521331 16662195 16810028 16964802 17125354 17289618 
3512.535 17454944 17619094 17780474 17938632 18093948 18246898 18397520 
3515.910 18545322 18689162 18827584 18959574 19083610 19198884 19304488 
3519.286 19398720 19479802 19545788 19595284 19627626 19642880 19641250 
3522.661 19623050 19588318 19536014 19465456 19375714 19266800 19138906 
3526.036 18992630 18828622 18647724 18450930 18239160 18014434 17779162 
3529.411 17535702 17286342 17032406 16774382 16512107 16245518 15974279 
3532.787 15699191 15420945 15140649 14859230 14577549 14296392 14016273 
3536.162 13738625 13464675 13195577 12932381 12675075 12423854 12178265 
3539.537 11938400 11704998 11478730 11260333 11049897 10846562 10648753 
3542.912 10454226 10260566 10065976 9869811 9672414 9474937 9279784 9089252 
3546.770 8906041 8732036 8568677 8415583 8271490 8133591 7998469 7863288 
3550.627 7725990 7586477 7446570 7309572 7178748 7056585 6943715 6838617 
3554.485 6739129 6641919 6544696 6446050 6345880 6244320 6142246 6039760 
3558.342 5937265 5834693 5732749 5632508 5535746 5444643 5361308 5286809 
3562.199 5220808 5161757 5106335 5050551 4989815 4919703 4837172 4741592 
3566.057 4634714 4521199 4408149 4302926 4211044 4134668 4072822 4021451 
3569.914 3975537 3930632 3883791 3833847 3781435 3727727 3674493 3622234 
3573.772 3570683 3518503 3464627 3407718 3347711 3285442 3222448 3160665 
3577.629 3101693 3046500 2995384 2947811 2902911 2859650 2817094 2774909 
3581.487 2732761 2691217 2650478 2610975 2572476 2534314 2495422 2454068 
3585.344 2408719 2358412 2302913 2243558 2182980 2124474 2071735 2027192 
3589.201 1991940 1965612 1946707 1932894 1921579 1910397 1896985 1879081 
3593.059 1854955 1823145 1783518 1736742 1684783 1630667 1577889 1529872 
3596.916 1488809 1455696 1429831 1409587 1392368 1376246 1359760 1343009 
3600.774 1326623 1311900 1299737 1290664 1284051 1278833 1273782 1267734 
3604.631 1259892 1249192 1234970 1215830 1190246 1157189 1116360 1068760 
3608.489 1017279 965372 916493 872732 834022 798701 764080 727835 688275 
3612.828 645831 602297 560260 522340 490428 465086 445715 430823 418286 
3617.168 405252 389234 368175 341248 309946 277022 246587 222585 206971 
3621.507 200009 200043 204153 209855 215756 221491 227889 235481 243437 
3625.847 248742 246421 230408 194971 138422 64682 -15937 -90015 -145930 
3630.187 -178323 -189286 -185577 -174316 -161664 -151628 -145566 -143380 
3634.044 -144473 -148680 -155635 -165638 -178257 -192697 -207237 -219722 
3637.901 -228366 -232240 -232141 -229856 -227670 -228034 -232439 -241413 
3641.759 -253865 -268137 -281846 -293137 -300587 -303600 -303335 -301348 
3645.616 -300156 -302805 -312275 -330551 -358362 -395208 -438605 -484745 
3649.474 -528927 -566123 -591801 -603249 -599246 -581576 -553879 -521183 
3653.331 -489379 -464092 -449661 -448635 -460153 -480707 -503908 -523599 
3657.188 -534983 -536704 -530549 -519959 -508673 -499936 -495270 -495336 
3661.046 -499407 -506588 -515690 -525419 -534719 -542032 -545904 -544514 
3664.903 -535976 -519992 -496924 -468693 -439201 -413448 -396532 -392858 
3668.761 -403219 -423842 -445622 -455552 -441849 -397492 -322671 -223961 
3672.618 -113005 -3479 91890 159735 190032 178828 129739 54475 -33696 
3676.958 -123771 -210416 -292607 -370876 -444663 -511784 -568241 -610959 
3680.815 -638388 -651985 -655625 -653507 -649769 -645997 -642722 -639082 
3684.673 -634947 -631373 -630811 -636832 -652713 -679643 -715999 -756552 
3688.530 -794192 -822502 -838012 -841087 -835267 -824883 -813572 -803022 
3692.387 -793729 -784865 -775902 -766740 -757942 -750466 -745141 -741569 
3696.245 -738922 -735416 -729694 -721358 -711732 -703693 -700584 -705744 
3700.102 -720795 -744512 -773553 -802394 -825247 -838376 -840228 -832324 
3703.960 -818004 -800641 -783079 -766938 -752418 -738658 -725029 -710971 
3707.817 -697011 -684705 -675938 -673291 -678320 -692016 -713452 -740576 
3711.675 -769419 -795581 -814796 -824519 -823858 -814796 -800575 -784865 
3715.532 -771436 -762671 -759232 -760323 -763796 -766674 -767302 -764557 
3719.389 -759199 -752947 -747456 -743785 -742197 -741734 -740907 -738790 
3723.247 -735350 -731645 -729429 -730256 -735052 -742859 -751591 -757644 
3727.104 -757379 -748118 -729164 -701940 -669884 -638090 -611819 -596003 
3730.962 -593455 -604441 -626510 -654897 -684572 -712162 -736905 -760125 
3734.819 -783641 -808843 -834176 -856663 -871941 -877430 -872106 -857424 
3738.677 -835432 -808281 -777688 -744711 -711070 -679742 -654831 -642953 
3742.534 -650794 -682488 -736805 -802758 -863376 -899386 -901568 -871808 
3746.391 -822502 -768394 -722648 -695258 -691122 -709581 -744942 -789065 
3750.249 -832721 -869097 -894426 -907288 -906726 -892144 -863773 -822865 
3754.106 -772726 -718347 -665087 -617808 -580650 -555765 -543786 -543687 
3757.964 -553548 -571120 -593521 -617146 -638388 -652879 -657775 -652449 
3761.821 -638718 -620653 -603514 -591933 -588260 -592297 -600669 -608874 
3765.678 -612812 -610628 -603448 -594878 -589088 -588988 -595077 -605466 
3769.536 -616021 -622208 -620918 -611521 -595937 -577175 -558678 -543224 
3773.393 -531840 -524327 -519628 -516021 -511917 -506820 -501161 -496891 
3777.251 -496329 -501492 -513472 -531277 -551960 -570888 -583859 -588360 
3781.108 -584521 -574495 -562152 -551133 -544084 -541503 -542131 -543621 
3784.966 -543885 -541304 -535778 -528166 -520058 -512446 -506092 -500863 
3788.823 -496527 -492754 -489643 -487095 -484977 -483024 -480740 -478125 
3792.680 -476107 -475974 -480111 -490305 -507217 -529424 -553052 -572774 
3796.538 -583396 -581642 -568075 -546731 -524129 -507648 -504007 -517245 
3800.395 -546996 -587632 -629157 -659694 -670512 -659165 -629752 -590742 
3804.253 -551861 -522838 -510063 -516219 -538557 -569333 -598650 -616782 
3808.110 -619727 -608676 -588823 -566289 -545606 -528696 -514366 -499771 
3811.968 -482461 -461808 -440161 -422452 -413911 -419473 -439433 -469421 
3815.825 -499936 -519992 -522176 -505066 -473723 -437678 -408118 -394579 
3819.682 -403021 -433938 -481204 -532104 -571748 -589782 -582370 -554012 
3823.540 -513737 -472168 -438638 -418645 -413614 -420697 -434004 -446251 
3827.397 -451481 -447608 -435692 -419870 -404510 -393818 -389514 -390540 
3831.255 -394414 -396896 -394513 -385310 -369088 -347834 -325155 -305090 
3835.112 -292243 -290389 -302143 -327439 -363593 -405073 -444762 -475676 
3838.969 -493813 -498745 -493218 -481932 -470050 -461345 -457638 -458366 
3842.827 -461709 -464754 -464754 -459921 -449628 -434732 -416394 -396764 
3846.684 -377199 -358627 -340881 -322870 -303070 -280422 -254957 -229293 
3850.542 -209058 -202136 -217901 -263898 -341245 -441750 -546003 -631274 
3854.399 -680172 -688013 -661249 -612481 -554541 -496660 -444696 -401001 
3858.257 -365678 -337769 -316248 -300488 -290091 -284660 -284097 -287640 
3862.114 -295322 -306845 -322175 -341047 -361209 -379219 -390176 -389978 
3865.971 -376934 -353628 -326049 -302607 -291779 -299130 -325221 -364619 
3869.829 -406165 -437711 -451316 -445821 -426656 -401763 -379384 -364156 
3873.686 -356673 -353363 -348695 -337537 -317308 -288435 -254891 -222206 
3877.544 -195811 -180542 -179549 -193029 -218430 -249692 -279693 -301117 
3881.401 -309129 -302905 -286051 -265090 -248069 -241645 -250288 -273203 
3885.259 -304362 -334260 -353131 -354853 -339226 -311083 -278700 -250288 
3889.116 -232439 -228630 -238400 -258004 -280356 -298666 -307308 -303633 
3892.973 -288468 -264693 -236082 -206210 -178158 -153582 -133708 -119001 
3896.831 -109792 -106181 -108599 -116351 -129037 -145036 -162492 -179516 
3900.688 -195181 -209157 -222603 -236943 -253004 -270521 -287276 -300653 
3904.546 -307143 -304991 -294064 -276746 -256348 -236214 -219192 -206508 
3908.403 -198096 -192664 -188822 -184848 -179781 -172925 -163883 -152456 
3912.260 -138875 -124069 -109494 -97436 -90347 -90115 -97436 -110819 -127481 
3916.600 -143645 -155602 -161498 -161067 -156066 -148680 -140995 -134006 
3920.458 -127746 -121584 -114661 -106579 -97436 -87796 -78056 -68813 -60564 
3924.797 -53574 -48936 -47379 -49499 -55562 -64440 -74611 -83821 -90446 
3929.137 -93792 -94819 -95448 -97833 -103365 -112011 -121849 -129932 -133708 
3933.476 -131588 -123870 -112343 -99026 -85775 -73418 -61492 -49300 -35915 
3937.816 -21635 -7455 4738 13088 16169 13684 6295 -4307 -16367 -28163 -38201 
3943.120 -45821 -50526 -52017 -50791 -46782 -40852 -33861 -26506 -19780 
3947.459 -14015 -9277 -4804 165 6759 15473 26209 38238 50167 60407 67565 
3952.763 70912 70647 67731 64019 61302 60838 63622 69023 76380 84632 92884 
3958.067 100904 109157 118205 127783 137594 146112 151548 152145 147405 
3962.407 137826 125198 112272 101236 94077 91095 92288 96695 103191 111079 
3967.229 119961 129573 140080 151216 162917 174982 187347 200076 213004 
3971.568 225966 237801 247548 253847 256102 254411 249571 243537 237768 
3975.908 233757 231867 231933 233193 235083 237503 240686 245426 252322 
3980.248 261108 270955 280205 286903 289920 288593 282990 274403 264059 
3984.587 253251 242841 233657 225436 218275 212407 207336 203258 199744 
3988.927 196695 193711 191092 188739 187347 187579 189899 194540 200838 
3993.266 207899 213966 217612 217778 213999 207070 198352 190032 183932 
3997.606 181678 183999 190728 200672 212209 223745 233458 
##END=
