
##TITLE=mdmaHCL00446_8
##JCAMP-DX=5.01  $$ Nicolet v. 1
##DATATYPE=INFRARED SPECTRUM
##ORIGIN=UniL
##OWNER=Nicolet
##LONGDATE=2011/08/23
##TIME=09:23:41
##SPECTROMETER/DATA SYSTEM=Nicolet iS5
##DATA PROCESSING=
Ratio against background
%Transmittance->Absorbance
Truncated
ElementMultiply or ElementDivide
##COMMENTS=
Number of sample scans: 32
Collection length: 51.20 sec
Sample gain: 2.0
Background collected on: Mar Aout 23 09:21:59 2011 (GMT+02:00);
Number of background scans: 32
Background gain: 2.0
Sample spacing:  1.000
Number of scan points: 12415
Resolution points: 8192
Number of FFT points: 65536
Apodization: N-B fort;
Phase correction: Mertz;
Laser frequency: 15798.0 cm-1
Number of rejected sample scans: 0
Number of rejected background scans: 0
Bench serial number: ASB1000141;
##RESOLUTION=4.000
##XUNITS=1/CM
##YUNITS=ABSORBANCE
##FIRSTX=649.893372
##LASTX=4000.122314
##FIRSTY=0.120088
##MAXX=4000.122314
##MINX=649.893372
##MAXY=0.267293
##MINY=-0.000916
##XFACTOR=1.000000
##YFACTOR=1.000000E-009
##NPOINTS=6950
##DELTAX=0.482117
##ZPD=6100
##XYDATA=(X++(Y..Y))
649.893 120087888 119212128 118385040 117659568 117058712 116581792 
652.786 116221296 115973080 115843656 115844952 115981384 116237920 
655.679 116581744 116972472 117378312 117790144 118221016 118697088 
658.571 119239208 119846888 120497048 121154440 121791000 122397296 
661.464 122988432 123590640 124228568 124908032 125614224 126316472 
664.357 126985760 127601224 128150136 128624080 129006936 129272224 
667.250 129397792 129385400 129283952 129169952 129113568 129144136 
670.142 129241824 129350616 129400832 129335808 129123168 128768328 
673.035 128306296 127786976 127249720 126709848 126159656 125583112 
675.928 124972536 124336736 123699792 123086392 122507288 121952216 
678.820 121394776 120803440 120161032 119469224 118746560 118015304 
681.713 117289488 116566968 115835344 115081424 114303584 113515768 
684.606 112743952 112011496 111329160 110689616 110073176 109461016 
687.498 108845296 108236184 107656328 107130416 106671344 106275288 
690.391 105924216 105597088 105281896 104981544 104711792 104494800 
693.284 104347024 104272792 104265624 104314704 104413464 104565448 
696.177 104782424 105078048 105461264 105929928 106473184 107077416 
699.069 107733392 108441136 109208288 110042528 110943432 111898376 
701.962 112884224 113873776 114844952 115786464 116696864 117579032 
704.855 118431128 119242344 119995368 120673880 121269952 121790072 
707.747 122250848 122671976 123066688 123436528 123773584 124070872 
710.640 124329408 124564968 124803128 125069168 125378016 125727072 
713.533 126096440 126456592 126782160 127056568 127275528 127442432 
716.425 127560912 127632128 127655464 127634840 127585752 127535360 
719.318 127520336 127574520 127716896 127944600 128233376 128545936 
722.211 128837552 129069864 129214168 129249272 129164744 128958776 
725.104 128642616 128241568 127796320 127357480 126970752 126669440 
727.996 126465320 126349312 126299280 126291376 126312392 126360832 
730.889 126444040 126570000 126738232 126937192 127149896 127359704 
733.782 127560112 127756160 127961248 128186944 128436400 128701168 
736.674 128965464 129214752 129443064 129655600 129865960 130087152 
739.567 130323976 130571040 130816728 131050680 131270912 131485056 
742.460 131705152 131940840 132190448 132441592 132675472 132877008 
745.352 133043200 133184640 133319824 133464384 133624496 133792640 
748.245 133953008 134090784 134201288 134292384 134381136 134482992 
751.138 134604768 134740448 134876160 134996320 135093728 135170944 
754.031 135238560 135306640 135378416 135448160 135506368 135546160 
756.923 135569936 135590432 135623616 135682672 135768912 135870880 
759.816 135969456 136048144 136098592 136124192 136135216 136141200 
762.709 136144720 136140192 136118352 136074016 136011968 135947904 
765.601 135902368 135891120 135919904 135981648 136062144 136145152 
768.494 136220992 136287472 136348096 136408976 136478208 136568896 
771.387 136702656 136911008 137229152 137679168 138252720 138892464 
774.279 139499408 139940240 140078304 139818960 139122256 138014784 
777.172 136566688 134866400 132983152 130947872 128753304 126367528 
780.065 123757064 120903392 117815472 114527896 111096984 107586752 
782.958 104064952 100600552 97253792 94078224 91115960 88390704 85911256 
786.332 83671336 81655312 79843912 78219808 76770792 75488520 74366144 
789.707 73396472 72570352 71877496 71309896 70863232 70538040 70336576 
793.082 70260880 70307120 70462704 70704240 70999504 71307320 71578072 
796.457 71759632 71796264 71632264 71224080 70542952 69585544 68375440 
799.832 66963016 65417260 63810004 62213680 60688436 59275808 58002552 
803.206 56877840 55896464 55042564 54294332 53628696 53025728 52473776 
806.581 51969500 51516464 51120668 50784260 50500964 50255008 50021872 
809.956 49773180 49485752 49143516 48740612 48280488 47771476 47224156 
813.331 46647868 46051600 45444816 44837636 44241972 43669552 43129900 
816.706 42629296 42169648 41750324 41368464 41022224 40710172 40431260 
820.081 40184544 39968192 39779620 39617440 39481668 39375288 39302988 
823.455 39270056 39279704 39332080 39423324 39546376 39692988 39853124 
826.830 40015528 40167500 40292436 40371364 40385624 40318720 40162300 
830.205 39919044 39602848 39235636 38844384 38456816 38094984 37776068 
833.580 37510300 37300220 37142256 37025872 36936180 36853860 36759228 
836.955 36637180 36478912 36285324 36065508 35835364 35611636 35408120 
840.329 35233948 35091528 34979036 34892564 34827936 34781844 34752408 
843.704 34737980 34736544 34746488 34766660 34797172 34839856 34897088 
847.079 34970452 35060672 35165788 35282496 35407364 35537696 35672568 
850.454 35812764 35959380 36113320 36274844 36443344 36618580 36801888 
853.829 36995888 37204736 37432788 37683908 37960808 38265384 38599476 
857.204 38965820 39367704 39808776 40292724 40822524 41400280 42029096 
860.578 42712860 43456948 44266776 45145972 46092752 47098356 48147164 
863.953 49215840 50279824 51315764 52304512 53236100 54110696 54939788 
867.328 55746652 56567400 57450968 58450840 59626728 61034972 62719284 
870.703 64709596 67013668 69614560 72464672 75482968 78558904 81538320 
874.078 84242264 86482232 88066488 88845480 88730848 87709384 85847224 
877.452 83276288 80178592 76743152 73160584 69602616 66199808 63052544 
880.827 60225500 57748152 55627552 53850424 52392872 51223256 50308576 
884.202 49617404 49119104 48786616 48596396 48527440 48564048 48696200 
887.577 48920728 49240556 49662800 50196500 50847844 51620268 52513260 
890.952 53524976 54655344 55908672 57295024 58829968 60532892 62422432 
894.327 64514732 66817344 69323648 72002704 74791472 77589864 80247656 
897.701 82582016 84397728 85500496 85748752 85073096 83491792 81107416 
901.076 78092240 74667224 71051752 67457080 64061412 60986924 58312120 
904.451 56069660 54255776 52841992 51785420 51040912 50563532 50317024 
907.826 50276772 50427460 50763556 51286196 51999712 52908568 54013240 
911.201 55305660 56765336 58353808 60008480 61649396 63177264 64483448 
914.575 65472960 66069820 66233232 65965212 65309300 64345212 63170440 
917.950 61897880 60633876 59463544 58452168 57633604 57013380 56573100 
921.325 56277628 56085380 55953336 55849624 55756408 55673460 55615840 
924.700 55612376 55700320 55915760 56290340 56843808 57577948 58473964 
928.075 59489152 60562104 61608920 62533348 63241072 63640096 63659548 
931.450 63260280 62438308 61229992 59707280 57975364 56151064 54349344 
934.824 52675948 51205960 49986328 49037560 48357260 47930508 47735972 
938.199 47753016 47960556 48335256 48849940 49466144 50135020 50802844 
941.574 51410900 51907992 52258576 52445100 52473512 52368124 52170728 
944.949 51929128 51689868 51494532 51370360 51331948 51381920 51513892 
948.324 51717448 51980328 52292472 52643892 53025132 53425888 53834032 
951.698 54236480 54622428 54983968 55318908 55630904 55928008 56220412 
955.073 56517808 56828512 57158828 57513112 57895244 58308064 58753332 
958.448 59231108 59739292 60274108 60830964 61406364 61998688 62608048 
961.823 63235976 63883276 64549720 65233172 65931268 66642204 67366216 
965.198 68105584 68863608 69643656 70447584 71275688 72128112 73005912 
968.573 73911976 74851264 75829592 76851656 77920256 79036368 80200384 
971.947 81414288 82682896 84012944 85412992 86890128 88449024 90091368 
975.322 91818000 93629944 95531088 97527408 99625696 101832280 104150936 
978.697 106584168 109135736 111812984 114628664 117601440 120750792 
981.590 124093136 127638208 131385368 135323072 139426048 143656112 
984.482 147951632 152218592 156334752 160134832 163424992 166016304 
987.375 167731568 168445920 168109632 166752288 164484128 161473872 
990.268 157947840 154150464 150319456 146684160 143424624 140668976 
993.160 138495552 136928816 135954912 135534528 135619456 136160880 
996.053 137114816 138447104 140126432 142122560 144407392 146949312 
998.946 149715760 152672512 155774064 158959136 162147568 165228000 
1001.839 168071072 170544672 172520064 173903888 174648576 174759344 
1004.731 174293824 173356352 172093920 170668240 169253744 168022192 
1007.624 167113952 166641744 166679424 167259952 168387024 170042880 
1010.517 172202288 174837392 177923488 181440608 185367040 189679280 
1013.409 194352288 199354512 204649248 210187712 215889696 221635664 
1016.302 227251168 232491520 237081056 240729632 243177600 244263280 
1019.195 243947216 242339296 239674176 236305728 232659008 229147312 
1022.087 226175312 224070304 223044320 223208464 224556688 226991712 
1024.980 230335920 234370752 238867376 243582928 248296272 252804848 
1027.873 256914736 260465120 263328848 265424704 266732960 267292912 
1030.766 267195856 266555728 265498816 264142848 262578784 260876112 
1033.659 259074800 257182304 255171632 252980448 250522464 247692272 
1036.552 244394816 240567328 236188400 231287248 225932352 220222096 
1039.446 214261264 208154144 202003296 195898288 189922880 184154160 
1042.339 178653408 173471792 168650080 164218416 160207136 156648928 
1045.232 153577152 151027840 149031264 147604960 146752016 146458528 
1048.125 146699056 147438032 148637312 150258992 152260944 154600112 
1051.018 157228688 160091616 163134736 166305088 169552240 172831024 
1053.911 176091520 179269536 182286416 185038096 187403152 189263488 
1056.804 190506960 191048640 190843680 189888192 188225232 185940944 
1059.697 183171328 180088640 176883824 173768512 170935984 168548576 
1062.590 166737408 165583104 165124320 165361696 166262544 167763840 
1065.483 169770192 172166784 174810288 177539296 180198448 182635728 
1068.376 184721616 186362224 187487744 188053344 188033936 187417344 
1071.269 186206736 184421184 182099808 179298272 176084032 172539536 
1074.162 168752544 164821056 160861344 156995856 153357728 150086112 
1077.055 147300048 145101888 143564992 142724064 142577968 143084144 
1079.948 144163088 145688160 147490672 149379696 151134528 152546240 
1082.842 153452112 153749008 153425792 152560032 151313216 149892976 
1085.735 148524096 147434592 146809664 146789184 147458320 148836624 
1088.628 150879584 153475936 156468608 159650800 162788032 165660112 
1091.521 168057600 169813648 170820432 171018896 170404832 169018912 
1094.414 166942384 164284128 161164400 157711136 154036128 150228544 
1097.307 146358112 142471456 138602368 134780656 131033568 127388584 
1100.200 123872296 120505664 117305944 114288016 111467088 108863736 
1103.093 106504936 104420632 102643352 101202800 100120824 99413744 99091104 
1106.468 99157464 99614656 100461048 101690256 103287328 105227648 107475800 
1109.844 109981568 112686952 115523152 118407152 121249576 123946464 
1112.737 126381752 128444192 130028056 131048936 131458592 131243528 
1115.630 130426288 129055368 127202064 124949824 122382488 119589608 
1118.523 116651696 113634992 110593944 107563144 104563040 101605344 
1121.416 98699328 95857504 93100288 90452880 87945528 85610360 83475728 
1124.791 81568784 79914920 78536000 77453608 76687016 76249720 76149296 
1128.166 76384576 76944888 77808552 78944008 80311192 81855576 83512192 
1131.542 85206120 86848928 88354720 89647744 90672480 91409696 91878544 
1134.917 92138056 92270848 92375808 92552256 92876880 93401128 94138928 
1138.292 95066000 96119408 97204800 98214888 99029456 99539192 99659840 
1141.667 99330608 98523528 97237624 95494272 93331408 90799136 87962000 
1145.042 84891360 81665104 78366384 75070504 71846296 68753040 65834248 
1148.418 63123732 60644620 58410132 56426300 54692060 53201008 51941676 
1151.793 50899992 50061208 49410452 48934488 48623116 48467012 48458936 
1155.168 48592540 48861544 49260856 49786444 50435984 51208680 52104788 
1158.543 53124348 54266288 55527568 56903184 58386100 59966752 61631184 
1161.919 63360712 65127448 66893324 68613480 70233192 71695144 72945320 
1165.294 73930792 74607536 74941816 74908896 74498648 73715064 72578688 
1168.669 71122080 69388328 67427704 65288620 63018524 60663060 58261156 
1172.044 55850228 53464560 51132412 48878936 46724644 44683508 42766276 
1175.420 40979616 39326712 37808164 36422516 35166072 34033932 33020158 
1178.795 32118906 31324242 30631388 30036704 29537518 29131622 28816632 
1182.170 28589554 28446642 28383360 28395562 28479898 28634288 28857388 
1185.545 29148382 29505316 29924270 30399452 30921938 31481176 32065712 
1188.921 32662648 33259402 33844332 34406848 34940104 35441988 35916660 
1192.296 36373948 36829264 37301344 37808996 38370012 38999172 39705984 
1195.671 40495560 41367112 42314304 43322684 44369224 45423152 46442504 
1199.046 47376968 48173228 48772044 49118768 49168708 48890212 48273748 
1202.422 47333220 46108264 44655892 43045780 41354360 39649640 37991148 
1205.797 36425976 34984136 33683464 32530748 31524286 30657452 29920684 
1209.172 29303930 28796912 28390116 28075874 27847594 27700794 27632284 
1212.547 27639632 27720782 27872852 28091674 28371934 28706636 29087086 
1215.923 29503436 29944006 30395400 30844240 31276628 31679474 32042634 
1219.298 32357116 32616318 32815244 32949914 33018228 33020266 32959492 
1222.673 32843582 32683690 32495822 32297936 32108952 31948008 31831548 
1226.048 31772364 31778924 31854008 31994584 32191444 32431300 32696656 
1229.424 32968036 33227566 33458586 33648088 33788068 33874672 33909528 
1232.799 33899572 33857552 33801960 33754332 33740504 33786276 33915404 
1236.174 34149836 34506744 34998892 35635484 36421580 37358140 38440888 
1239.549 39660060 40999024 42432880 43931856 45459572 46974476 48435080 
1242.925 49796588 51015684 52056112 52889220 53499940 53889548 54075156 
1246.300 54087540 53964992 53752988 53496192 53235388 53007572 52839708 
1249.675 52747588 52734420 52789340 52889444 53001848 53093496 53134236 
1253.050 53104168 52997168 52821448 52596804 52348800 52106652 51897088 
1256.426 51739320 51644112 51610040 51623176 51654412 51663444 51602728 
1259.801 51420036 51069832 50519164 49751256 48769484 47595120 46266140 
1263.176 44828228 43333004 41832840 40371768 38986556 37703928 36538308 
1266.551 35495844 34575196 33770084 33071396 32468896 31952896 31513914 
1269.927 31143688 30834778 30580084 30373048 30207456 30077716 29978726 
1273.302 29906024 29855196 29821942 29801748 29789862 29782268 29775168 
1276.677 29766190 29753772 29736528 29713038 29681428 29638748 29581710 
1280.052 29507124 29411738 29293262 29150120 28981094 28786430 28567084 
1283.427 28326412 28070078 27806580 27547230 27304338 27091522 26922698 
1286.803 26810182 26765496 26799188 26919876 27136100 27455098 27882642 
1290.178 28422870 29076492 29840362 30704888 31652104 32656290 33679416 
1293.553 34675064 35593152 36381260 36996284 37410504 37614420 37619296 
1296.928 37453664 37160732 36787212 36380756 35984832 35631960 35346076 
1300.304 35140312 35018180 34975512 35001012 35080752 35197512 35334324 
1303.679 35476788 35611496 35728076 35818560 35877216 35901184 35890856 
1307.054 35850620 35788264 35713936 35639692 35576464 35533816 35519072 
1310.429 35537588 35592900 35688144 35825432 36006356 36231476 36500284 
1313.805 36811124 37162464 37552888 37982108 38450372 38958140 39505872 
1317.180 40093688 40721492 41389820 42099664 42852244 43647932 44484144 
1320.555 45353516 46241924 47129452 47988124 48783312 49478988 50038156 
1323.930 50430024 50638400 50666696 50543244 50317060 50056936 49837800 
1327.306 49724280 49767120 49989860 50388500 50934792 51585748 52294116 
1330.681 53014164 53712268 54368644 54977016 55544440 56088136 56633120 
1334.056 57205356 57829600 58523628 59294192 60135608 61029404 61948780 
1337.431 62858424 63718984 64492016 65137648 65620424 65913380 66000388 
1340.807 65879600 65562196 65069712 64427452 63660816 62793940 61846492 
1344.182 60835504 59775832 58678724 57552828 56403700 55234388 54048624 
1347.557 52853368 51660532 50489984 49368608 48326556 47397884 46615848 
1350.932 46009124 45603888 45420168 45471452 45766584 46306904 47086284 
1354.308 48087568 49281232 50623024 52050248 53491508 54866244 56090888 
1357.683 57093868 57813516 58206976 58256572 57969492 57381800 56550004 
1361.058 55555964 54495180 53463212 52554396 51841380 51365024 51132372 
1364.433 51116832 51268072 51517848 51794380 52028808 52158136 52139232 
1367.809 51951088 51598176 51107920 50523072 49893104 49260376 48660064 
1371.184 48116400 47644556 47256076 46961296 46770548 46693800 46737040 
1374.559 46898948 47169232 47530572 47962404 48443452 48955776 49485488 
1377.934 50021240 50555604 51084588 51607580 52126940 52646176 53165428 
1381.310 53678896 54171012 54615136 54979308 55226220 55319696 55230176 
1384.685 54934712 54422800 53701392 52804308 51794344 50754652 49779460 
1388.060 48945208 48296228 47842200 47563660 47424936 47382696 47396188 
1391.435 47426376 47434508 47384064 47237644 46962144 46537908 45964628 
1394.811 45265212 44476432 43638552 42780024 41912680 41037700 40154816 
1398.186 39273684 38420396 37633536 36951944 36404932 36001176 35732068 
1401.561 35579056 35523064 35550284 35654368 35835220 36094816 36433940 
1404.936 36849460 37334488 37880212 38478064 39120540 39801768 40516256 
1408.312 41257716 42018696 42792200 43570896 44349592 45125276 45895756 
1411.687 46659156 47411520 48146720 48857764 49538700 50186752 50804036 
1415.062 51396244 51970544 52532740 53085484 53628320 54160840 54685480 
1418.437 55210868 55748236 56308820 56895024 57496884 58094388 58663628 
1421.813 59182728 59632732 60003156 60292304 60507140 60661880 60773872 
1425.188 60859744 60930156 60989328 61036156 61066280 61074560 61056976 
1428.563 61012472 60943384 60855780 60758172 60661460 60577040 60515216 
1431.938 60484328 60488784 60528280 60597228 60685424 60780808 60870800 
1435.313 60948684 61018348 61098508 61217136 61400944 61663184 61995400 
1438.689 62369872 62744552 63073344 63308308 63406452 63339360 63092084 
1442.064 62664548 62066416 61312640 60419584 59403132 58281424 57073040 
1445.439 55795176 54466216 53104956 51735884 50396236 49133760 48000740 
1448.814 47044628 46294408 45760620 45440624 45325824 45407440 45676096 
1452.190 46118396 46708888 47407308 48164120 48914388 49584496 50098056 
1455.565 50377112 50369892 50076972 49572612 48976844 48401556 47914528 
1458.940 47530352 47234832 47008112 46837752 46719700 46653068 46632888 
1462.315 46645620 46668120 46675944 46649600 46585340 46498004 46416364 
1465.691 46368988 46371052 46420416 46499296 46582720 46640676 46642964 
1469.066 46557568 46343732 45952292 45328064 44419648 43204888 41713628 
1472.441 40038892 38307944 36640608 35110032 33732588 32489214 31353194 
1475.816 30310656 29367420 28541818 27849784 27296082 26869572 26549948 
1479.192 26315464 26152078 26055456 26029562 26080190 26210146 26416582 
1482.567 26692590 27031078 27427674 27881756 28394184 28962498 29578554 
1485.942 30225036 30874514 31494036 32043702 32478538 32753892 32825462 
1489.317 32659006 32243222 31596902 30770042 29828862 28841558 27856284 
1492.693 26895658 25962126 25044004 24127364 23207796 22294950 21414440 
1496.068 20602414 19891966 19303622 18840524 18494492 18252256 18102134 
1499.443 18036158 18047178 18127076 18265560 18450342 18668408 18908904 
1502.818 19159266 19404886 19625756 19789860 19854574 19771132 19498170 
1506.194 19026728 18395826 17683314 16966284 16290510 15664117 15073065 
1509.569 14499946 13934766 13378385 12842068 12341658 11889837 11493938 
1512.944 11153641 10863242 10614934 10400704 10214158 10049495 9902250 
1516.319 9770677 9656185 9563773 9499421 9466234 9461086 9474192 9488991 
1520.177 9489127 9464337 9418521 9369596 9342342 9354699 9409176 9495188 
1524.034 9595512 9695283 9786131 9869540 9954660 10054005 10175725 10321332 
1527.892 10485963 10663016 10848260 11042012 11247344 11468627 11706837 
1531.267 11959277 12220045 12482332 12743345 13005915 13278926 13570535 
1534.642 13884713 14217777 14560690 14901029 15226706 15528074 15796594 
1538.017 16025707 16210537 16347997 16437769 16482715 16492179 16478378 
1541.393 16453978 16427344 16399952 16365889 16314868 16237674 16130818 
1544.768 16000474 15860820 15729010 15618054 15530340 15459433 15392692 
1548.143 15318821 15232128 15136875 15045176 14972530 14929697 14918346 
1551.518 14931652 14959189 14992251 15027786 15069635 15126308 15206700 
1554.894 15314393 15445768 15590097 15732892 15855871 15939526 15968125 
1558.269 15936811 15863329 15785290 15746189 15771786 15862642 16004600 
1561.644 16178174 16366094 16553720 16732438 16899484 17057528 17214288 
1565.019 17378688 17557332 17751098 17954586 18157686 18349852 18521428 
1568.395 18667336 18788518 18892468 18990728 19094620 19211768 19344706 
1571.770 19491480 19646208 19800608 19944450 20063908 20144560 20173438 
1575.145 20145150 20067066 19961034 19857314 19779350 19735762 19719258 
1578.520 19713988 19701644 19667946 19605372 19513488 19397056 19263166 
1581.896 19117576 18962586 18797168 18618602 18424552 18214590 17989672 
1585.271 17750822 17498442 17231902 16951296 16659165 16362723 16072776 
1588.646 15802091 15563171 15364268 15209617 15099445 15031353 15000929 
1592.021 15000895 15020960 15045485 15054438 15028265 14948970 14806431 
1595.396 14600336 14340396 14042932 13725287 13403912 13090422 12791970 
1598.772 12513807 12259987 12033737 11837465 11670688 11530752 11413074 
1602.147 11313962 11232077 11169109 11128688 11113766 11124236 11156361 
1605.522 11202632 11254077 11302875 11342258 11367222 11373174 11355012 
1608.897 11307092 11224937 11107069 10957868 10787284 10610588 10442890 
1612.273 10295885 10175081 10078183 9997922 9923471 9845136 9755428 9652019 
1616.130 9539556 9428781 9333777 9266582 9234631 9238862 9274199 9331780 
1619.988 9399763 9466031 9518862 9550259 9558625 9550157 9536305 9530411 
1623.845 9542638 9575764 9626948 9689456 9756885 9824800 9890691 9953745 
1627.702 10013858 10071300 10126680 10182848 10244112 10315259 10400568 
1631.078 10501611 10616021 10737355 10856549 10963474 11047756 11102548 
1634.453 11124983 11119578 11097857 11075458 11067639 11083003 11122501 
1637.828 11181654 11252784 11327226 11397563 11458795 11510099 11554537 
1641.203 11598434 11648565 11708947 11779244 11853230 11921030 11971335 
1644.579 11993337 11981314 11936492 11868553 11793645 11730596 11696250 
1647.954 11699790 11743804 11824050 11932542 12056425 12177652 12273382 
1651.329 12313296 12267043 12120510 11895694 11656529 11471892 11379603 
1654.704 11371848 11417496 11481826 11540109 11579684 11596699 11594930 
1658.080 11580194 11557871 11529324 11492271 11441207 11370726 11277302 
1661.455 11160508 11024135 10875337 10723736 10578571 10448354 10337858 
1664.830 10248183 10176234 10114674 10053632 9980732 9883946 9755326 9592667 
1668.688 9402167 9197198 8994727 8809460 8650332 8519239 8412845 8323974 
1672.545 8242954 8158980 8060505 7937285 7785390 7610518 7429076 7261288 
1676.402 7123304 7019980 6944793 6884161 6823773 6754508 6674791 6591320 
1680.260 6514458 6453415 6408891 6371836 6323320 6241295 6108675 5925139 
1684.117 5713981 5514101 5359429 5261386 5210412 5186402 5170609 5148948 
1687.975 5114784 5066978 5007880 4941486 4872320 4805309 4746014 4699789 
1691.832 4670214 4657253 4655210 4652263 4633341 4583511 4495554 4376419 
1695.689 4249119 4143834 4080314 4060447 4067671 4076668 4058875 3992324 
1699.547 3870954 3712421 3554581 3434368 3370384 3356726 3374190 3400237 
1703.404 3417770 3416100 3391254 3346175 3288881 3230059 3178354 3138837 
1707.262 3111872 3094718 3082905 3071893 3058546 3041495 3021542 3001223 
1711.119 2983274 2969996 2962089 2958553 2957252 2955784 2952248 2945476 
1714.977 2934267 2916621 2889435 2849411 2794884 2728793 2659979 2600408 
1718.834 2560211 2543779 2548745 2567443 2590575 2609142 2617342 2613175 
1722.691 2598442 2577276 2554578 2533947 2517017 2503787 2493689 2485925 
1726.549 2479826 2474394 2467830 2458000 2443705 2425512 2406920 2392760 
1730.406 2387496 2391927 2401423 2405354 2388762 2338856 2250486 2134563 
1734.264 2015175 1921612 1872193 1867334 1894356 1935024 1972934 1995202 
1738.121 1995535 1974133 1937354 1894955 1856220 1827371 1809902 1802050 
1741.979 1800819 1803614 1809303 1817322 1827936 1841179 1857318 1876053 
1745.836 1896752 1918084 1938619 1955826 1967209 1970871 1965479 1950734 
1749.693 1927636 1898216 1866070 1835390 1810967 1796593 1794764 1804978 
1753.551 1824609 1848034 1868066 1877816 1872126 1850363 1816623 1779426 
1757.408 1747953 1728392 1721639 1723336 1726330 1723003 1707901 1679993 
1761.266 1643239 1604261 1570773 1548759 1540380 1544835 1559001 1579053 
1765.123 1600902 1620224 1633395 1638051 1633960 1623916 1613207 1607154 
1768.980 1608884 1617298 1626543 1628439 1614537 1580815 1530437 1473947 
1772.838 1425044 1394761 1386916 1398517 1421820 1449080 1475111 1498119 
1776.695 1519032 1539216 1558801 1575827 1587034 1589329 1581913 1567214 
1780.553 1550355 1537121 1530537 1530570 1533596 1535292 1531535 1521393 
1784.410 1506663 1491469 1479766 1474313 1475477 1482226 1493131 1506730 
1788.268 1522158 1537952 1551519 1558868 1555576 1538085 1506298 1464539 
1792.125 1421022 1385421 1364613 1360392 1369732 1386285 1403836 1417997 
1795.982 1426341 1428768 1426008 1418828 1407526 1392135 1372923 1350786 
1799.840 1327919 1306450 1288205 1274281 1263879 1256303 1250554 1246168 
1803.697 1243842 1244008 1246965 1252548 1259692 1267834 1276474 1285779 
1807.555 1295915 1306383 1315689 1321571 1321738 1314958 1301930 1285380 
1811.412 1269495 1257399 1251019 1249590 1250587 1251119 1249158 1244540 
1815.270 1239489 1237096 1240020 1249690 1265641 1285314 1305785 1324330 
1819.127 1339618 1351418 1360691 1368435 1375947 1383825 1392268 1400578 
1822.984 1407958 1413044 1415005 1414141 1412246 1412113 1416800 1427637 
1826.842 1444060 1462544 1477505 1482459 1473515 1450077 1416634 1381332 
1830.699 1353279 1338920 1339984 1353445 1373986 1396191 1415836 1431560 
1834.557 1444027 1454765 1465603 1477172 1489374 1502075 1514943 1529174 
1838.414 1546099 1567181 1592920 1622852 1654814 1686146 1713756 1734613 
1842.271 1746523 1748519 1741533 1728958 1716417 1710529 1716583 1736709 
1846.129 1769112 1809137 1850496 1887034 1915289 1934625 1947372 1957091 
1849.986 1967276 1978793 1990076 1997965 1998964 1991707 1977128 1958223 
1853.844 1938719 1921179 1906137 1892359 1877650 1860646 1841579 1821980 
1857.701 1803281 1786679 1771607 1756403 1739537 1721107 1702346 1686113 
1861.559 1675502 1671544 1673773 1679827 1686645 1692134 1695394 1697024 
1865.416 1697656 1696824 1692733 1682454 1663994 1637552 1606888 1578222 
1869.273 1557970 1550987 1557538 1574497 1596579 1619326 1639614 1656710 
1873.131 1671345 1684550 1696757 1707801 1716783 1723136 1726929 1729191 
1876.988 1730788 1732285 1732950 1731952 1728193 1722072 1714587 1708167 
1880.846 1704308 1703610 1705007 1706371 1706204 1704042 1701581 1701814 
1884.703 1707269 1718845 1735245 1752245 1765319 1770143 1764820 1749983 
1888.561 1728359 1703776 1680525 1661832 1649792 1645834 1650257 1662231 
1892.418 1679993 1700516 1720176 1736376 1747488 1754141 1758732 1764355 
1896.275 1772838 1784316 1796560 1806475 1811898 1812697 1810601 1809403 
1900.133 1812364 1820683 1833859 1848966 1862509 1872559 1878482 1881144 
1903.990 1882875 1884605 1886968 1889164 1890795 1891494 1891993 1893291 
1907.848 1895720 1898749 1901211 1901178 1898150 1893291 1889164 1888931 
1911.705 1894422 1905172 1918617 1930798 1938120 1938086 1930598 1916221 
1915.563 1896386 1871926 1843608 1812597 1781156 1752711 1731453 1719677 
1919.420 1716716 1717914 1717614 1709232 1690105 1661499 1629171 1601234 
1923.277 1584407 1581314 1589994 1604926 1619958 1631033 1637652 1641510 
1927.135 1646133 1653517 1663362 1673706 1681556 1684816 1683785 1679727 
1930.992 1674538 1668784 1661732 1651588 1636887 1617830 1596745 1576559 
1934.850 1560032 1548127 1539814 1533097 1526913 1522158 1521559 1528209 
1938.707 1543139 1563889 1585172 1600071 1602864 1592654 1573699 1554113 
1942.564 1542940 1547329 1568844 1604194 1647164 1691003 1730821 1763623 
1946.422 1787677 1803115 1809869 1809403 1803946 1797824 1795196 1800120 
1950.279 1813429 1832561 1852027 1865604 1868532 1860146 1843509 1823411 
1954.137 1804179 1788309 1773437 1756037 1732650 1702545 1669748 1641077 
1957.994 1623184 1621787 1636953 1666156 1703643 1743928 1782420 1816989 
1961.852 1845638 1866669 1878282 1879747 1870462 1853724 1833060 1813063 
1965.709 1796128 1782653 1770110 1755638 1737907 1718346 1700749 1689506 
1969.566 1686279 1690703 1699086 1707335 1713157 1717581 1723502 1734913 
1973.424 1753642 1778527 1806675 1835623 1866602 1906403 1964047 2047566 
1977.281 2158571 2290122 2426745 2551078 2647577 2707721 2731294 2724492 
1981.139 2696285 2655712 2609275 2562144 2517517 2478660 2448470 2429277 
1984.996 2420148 2418948 2420581 2419748 2414150 2404454 2394193 2387263 
1988.854 2386996 2392760 2401456 2408819 2411585 2409785 2405721 2402789 
1992.711 2403355 2407053 2410152 2409186 2402522 2390061 2376801 2367906 
1996.568 2367540 2376468 2392060 2408919 2422513 2430610 2433775 2434908 
2000.426 2436774 2438973 2439173 2432742 2415983 2388929 2355646 2323133 
2004.283 2301148 2296984 2314339 2351749 2404254 2463831 2522349 2572843 
2008.141 2610542 2633443 2642343 2639577 2630209 2619609 2612475 2610842 
2011.998 2614375 2619209 2620209 2613142 2596208 2571176 2542779 2515817 
2015.855 2494856 2481726 2475727 2475194 2479093 2486791 2499554 2518550 
2019.713 2544013 2574376 2606242 2636410 2662212 2682015 2695851 2703687 
2023.570 2705387 2700886 2689417 2672747 2653778 2637110 2626776 2625442 
2027.428 2633476 2647744 2664513 2680448 2694484 2706854 2719490 2733561 
2031.285 2749833 2767906 2786980 2808356 2835237 2870824 2917355 2973699 
2035.143 3034355 3092116 3140072 3174149 3195711 3210264 3224284 3242177 
2039.000 3264610 3287779 3305674 3313020 3307077 3290150 3267214 3242878 
2042.857 3221647 3204556 3190237 3177787 3167473 3161866 3165571 3183862 
2046.715 3218876 3270386 3333787 3401540 3465194 3516065 3546964 3553077 
2050.572 3533101 3489777 3429826 3363505 3301167 3253593 3226821 3221246 
2054.430 3231795 3249621 3265578 3274191 3274392 3270486 3268049 3272322 
2058.287 3284240 3301367 3318395 3330315 3334322 3331316 3324105 3316392 
2062.145 3310616 3307277 3304973 3303404 3302202 3304139 3312318 3329079 
2066.002 3354623 3386011 3418304 3446858 3468367 3482028 3488775 3490980 
2069.859 3490078 3486303 3479289 3468868 3456177 3443418 3433700 3429425 
2073.717 3431061 3437407 3445756 3453538 3459784 3465228 3472041 3482228 
2077.574 3496257 3512123 3526754 3536608 3539548 3535807 3527990 3519071 
2081.432 3512457 3509885 3511088 3515130 3520474 3525518 3529627 3532065 
2085.289 3531898 3528090 3519672 3505710 3487105 3465228 3442149 3419774 
2089.146 3399035 3378765 3357762 3334489 3308412 3281269 3256164 3236702 
2093.004 3226454 3227589 3240040 3262340 3291886 3324739 3357428 3386746 
2096.861 3410022 3425885 3434234 3435403 3431729 3425518 3418838 3412994 
2100.719 3408920 3406081 3404545 3404645 3407450 3414096 3425818 3442684 
2104.576 3463892 3487873 3512992 3538045 3562364 3585182 3605628 3622133 
2108.434 3632692 3635365 3630052 3617589 3600984 3584079 3570148 3560761 
2112.291 3555583 3552242 3548434 3542521 3534170 3524349 3514394 3504908 
2116.148 3495222 3483832 3469403 3451167 3430627 3409755 3391855 3378632 
2120.006 3370784 3366877 3365174 3363739 3361835 3359798 3358229 3357394 
2123.863 3355725 3351050 3340799 3322936 3297428 3265712 3230293 3193107 
2127.721 3155291 3115676 3072828 3024779 2971163 2913518 2855881 2802954 
2131.578 2759303 2729260 2714523 2715923 2731827 2759069 2792916 2827633 
2135.436 2856849 2875760 2881397 2874659 2858083 2837204 2815927 2796818 
2139.293 2779877 2763604 2746832 2729760 2714022 2703320 2701286 2709421 
2143.150 2727026 2751033 2777009 2802054 2824731 2845509 2865887 2886734 
2147.008 2906614 2923759 2935468 2940672 2939137 2932699 2922392 2908348 
2150.865 2889135 2861952 2825165 2778343 2722391 2660345 2594409 2525715 
2154.723 2454401 2382099 2314139 2262743 2244924 2280929 2384964 2559311 
2158.580 2789014 3045566 3293755 3500699 3646190 3725220 3745840 3724151 
2162.438 3679471 3630453 3589492 3564937 3559458 3571752 3595873 3623570 
2166.295 3646224 3656682 3650668 3629317 3597777 3563333 3531965 3505543 
2170.152 3482329 3456678 3423013 3378799 3326742 3274625 3232195 3208796 
2174.010 3208595 3230193 3265512 3303237 3331918 3343337 3332752 3300299 
2177.867 3251056 3191972 3132263 3081637 3048169 3037491 3050871 3083506 
2181.725 3127423 3171312 3205024 3222348 3222314 3207994 3186298 3164870 
2185.582 3149117 3143042 3147848 3162667 3186131 3216239 3250322 3285142 
2189.439 3316993 3341935 3358296 3366110 3368413 3368781 3371185 3377029 
2193.297 3386245 3397332 3408786 3420575 3435169 3455943 3485736 3525718 
2197.154 3572888 3621632 3665136 3696247 3711986 3711886 3699588 3679739 
2201.012 3657718 3636434 3618057 3602755 3590160 3580237 3572620 3567810 
2204.869 3566139 3567676 3572553 3580772 3593000 3609270 3629551 3653408 
2208.727 3679806 3707174 3733575 3756769 3776054 3789858 3798047 3800253 
2212.584 3796744 3788488 3776857 3764490 3753828 3747144 3745105 3746977 
2216.441 3751054 3754430 3754731 3750820 3742432 3730567 3716464 3701259 
2220.299 3685620 3669747 3653308 3635966 3617255 3596675 3573389 3546930 
2224.156 3516933 3484032 3450332 3418838 3392924 3375660 3368213 3369816 
2228.014 3378531 3391521 3406783 3423480 3441281 3461019 3482529 3504741 
2231.871 3526520 3546062 3561963 3574024 3582977 3589893 3595639 3600617 
2235.729 3604693 3608435 3612678 3618926 3628749 3643116 3660659 3678937 
2239.586 3694409 3703966 3706372 3703130 3697650 3693841 3695110 3702562 
2243.443 3714860 3729632 3743568 3755232 3764156 3771743 3779196 3787987 
2247.301 3797479 3806872 3814894 3820710 3824721 3827730 3831073 3835886 
2251.158 3842605 3851531 3862863 3877038 3894757 3916221 3940830 3966375 
2255.016 3989950 4008041 4017438 4017338 4007740 3991221 3970154 3947349 
2258.873 3924546 3902547 3881718 3862362 3845046 3830036 3817535 3807640 
2262.730 3799585 3792900 3787251 3782973 3780734 3781569 3785948 3793502 
2266.588 3803295 3814125 3824788 3835619 3846617 3858718 3871990 3885630 
2270.445 3898067 3907060 3910972 3909501 3903784 3895927 3888137 3882454 
2274.303 3879311 3878509 3879111 3879746 3880415 3881250 3883056 3886967 
2278.160 3893988 3904218 3917893 3934744 3954572 3976808 4000784 4025163 
2282.018 4048775 4069979 4088107 4102657 4113895 4122225 4128747 4133765 
2285.875 4137444 4139218 4139017 4136407 4131591 4125235 4118311 4111855 
2289.732 4106804 4103326 4101754 4101620 4102322 4103259 4104095 4104597 
2293.590 4104931 4105734 4108042 4112792 4120619 4131390 4144135 4157415 
2297.447 4169325 4178056 4183175 4184513 4183075 4180465 4177990 4176852 
2301.305 4177354 4179361 4182038 4184747 4186788 4187591 4187189 4185584 
2305.162 4183175 4180398 4178023 4176149 4174945 4173975 4172536 4169693 
2309.020 4164675 4157047 4147513 4137210 4127777 4120719 4117240 4117575 
2312.877 4121021 4126439 4132460 4137779 4141626 4143901 4144871 4145272 
2316.734 4145908 4147447 4150758 4156445 4164675 4176116 4191070 4209973 
2320.592 4232691 4258990 4287064 4313735 4334216 4342582 4333781 4303829 
2324.449 4251562 4179528 4093893 4002089 3912777 3833379 3768267 3719038 
2328.307 3684450 3661360 3646090 3635732 3628482 3624071 3622467 3624238 
2332.164 3629150 3636801 3646424 3657484 3669581 3682512 3696347 3711184 
2336.021 3726423 3741864 3756970 3771375 3784544 3796577 3806872 3815763 
2339.879 3823485 3830972 3839463 3850261 3863833 3879947 3897131 3913179 
2343.736 3926318 3935948 3943571 3952766 3968047 3994197 4033758 4087104 
2347.594 4151461 4222587 4294928 4363098 4422944 4471584 4507673 4531411 
2351.451 4544603 4549759 4549592 4546511 4542025 4537002 4531143 4524313 
2355.309 4516077 4507104 4498500 4491837 4489059 4491134 4498265 4509514 
2359.166 4523208 4537739 4551601 4564090 4575374 4585487 4595265 4604742 
2363.023 4613549 4621720 4629021 4635718 4642249 4649851 4659396 4671420 
2366.881 4686525 4704177 4723906 4744640 4765108 4784103 4800854 4814590 
2370.738 4825244 4833654 4841025 4849033 4859554 4873861 4893062 4917558 
2374.596 4947083 4981436 5019847 5061345 5105363 5151195 5198172 5246127 
2378.453 5295026 5345139 5396700 5449776 5504135 5559037 5613677 5666613 
2382.311 5717205 5765015 5810145 5852928 5893936 5932999 5969647 6002770 
2386.168 6031395 6054712 6072486 6085120 6093554 6098762 6101887 6103736 
2390.025 6104576 6104710 6103870 6101887 6098393 6093017 6085591 6075880 
2393.883 6064590 6052461 6041172 6031831 6025885 6023735 6024944 6028572 
2397.740 6033343 6038450 6043255 6048362 6054577 6063078 6074636 6089858 
2401.598 6108440 6129913 6153606 6179047 6206304 6235412 6267413 6302879 
2405.455 6342652 6387404 6437004 6490847 6547758 6606190 6664865 6722943 
2409.313 6780658 6838818 6898872 6961997 7028769 7098414 7169384 7239186 
2413.170 7305562 7367028 7422807 7472862 7518035 7558727 7595075 7626973 
2417.027 7653951 7675804 7692600 7704977 7713106 7717727 7718772 7716175 
2420.885 7709902 7700222 7688114 7674691 7661606 7649702 7639552 7631087 
2424.742 7624040 7617835 7612777 7609641 7609911 7615239 7627075 7646094 
2428.600 7672769 7706428 7745924 7790450 7838187 7887817 7938297 7988682 
2432.457 8039105 8089941 8142706 8198484 8258759 8323974 8393658 8466664 
2436.314 8541237 8615687 8689204 8761550 8833637 8906819 8982752 9062997 
2440.172 9148399 9239741 9336790 9439448 9547007 9658726 9773999 9892454 
2444.029 10013993 10138416 10266164 10397073 10530635 10666207 10802230 
2447.405 10937378 11070461 11200932 11328824 11454406 11578390 11701254 
2450.780 11822858 11943304 12061978 12178265 12291890 12401999 12507635 
2454.155 12607224 12698615 12779685 12848313 12902888 12943099 12969282 
2457.530 12982529 12984338 12975769 12956959 12927533 12886197 12831351 
2460.906 12761839 12676815 12576560 12462043 12334976 12197723 12052643 
2464.281 11902096 11748094 11592173 11435627 11279411 11124508 10972072 
2467.656 10823189 10679588 10543196 10416010 10299413 10194687 10101991 
2471.031 10020775 9949575 9886793 9830663 9780031 9733673 9691454 9653610 
2474.889 9620445 9592430 9570040 9552698 9540131 9531326 9525093 9520420 
2478.746 9516457 9512257 9507482 9501623 9494206 9484826 9473277 9459495 
2482.604 9444324 9428781 9414391 9402641 9394989 9391535 9392009 9395124 
2486.461 9399188 9402675 9404469 9403995 9401388 9397664 9393905 9391265 
2490.318 9390892 9393466 9399492 9408634 9420214 9433319 9446695 9459054 
2494.176 9469789 9478391 9485096 9490718 9496170 9502402 9510191 9520013 
2498.033 9531529 9544399 9557812 9570750 9582674 9593073 9601779 9608893 
2501.891 9614686 9619225 9622816 9625492 9627931 9630810 9635283 9642397 
2505.748 9653170 9668314 9687220 9708498 9729777 9748583 9762714 9770915 
2509.605 9773321 9771118 9766306 9760749 9756038 9753022 9751769 9752040 
2513.463 9753260 9755191 9757258 9759224 9760546 9760478 9758377 9754106 
2517.320 9747906 9740925 9734690 9730895 9730082 9732691 9737774 9744178 
2521.178 9750718 9756885 9762375 9768068 9774677 9782775 9792536 9803482 
2525.035 9814768 9825749 9836120 9846017 9855744 9865642 9875709 9885437 
2528.893 9894216 9901403 9906488 9910014 9912420 9915234 9919234 9925369 
2532.750 9933811 9944659 9957000 9970459 9984766 9999854 10016163 10033965 
2536.607 10053361 10074420 10096632 10119219 10141570 10163108 10183561 
2539.983 10203100 10222198 10241636 10261754 10282687 10304130 10325472 
2543.358 10346069 10365411 10383193 10399414 10414382 10428296 10441431 
2546.733 10454158 10466412 10477986 10489086 10499473 10509385 10518787 
2550.108 10528259 10537798 10547847 10558303 10568929 10579352 10588722 
2553.484 10596124 10600606 10602304 10601454 10599486 10598297 10599418 
2556.859 10604035 10612286 10623185 10634696 10644645 10650622 10651538 
2560.234 10647158 10638601 10627395 10615512 10604646 10595920 10589368 
2563.609 10584954 10581253 10577417 10571611 10562886 10550562 10534539 
2566.985 10515698 10495806 10476119 10458604 10444282 10433862 10426939 
2570.360 10423035 10421305 10421440 10423307 10427481 10434439 10444791 
2573.735 10458197 10474049 10491224 10508774 10525611 10541396 10555757 
2577.110 10569370 10582340 10595479 10609162 10623898 10639687 10656666 
2580.486 10674493 10692798 10711103 10728593 10744624 10759296 10772577 
2583.861 10785382 10798833 10814187 10832226 10853526 10877817 10904284 
2587.236 10932043 10960145 10987874 11015265 11042386 11069917 11098163 
2590.611 11127193 11157040 11186890 11215994 11243808 11269889 11294305 
2593.987 11317600 11340251 11363073 11386406 11410557 11435491 11460870 
2597.362 11486555 11512243 11537693 11562942 11587579 11611536 11634781 
2600.737 11657720 11680865 11705304 11731754 11761065 11793509 11828782 
2604.112 11866306 11905229 11944837 11984958 12025425 12066850 12109334 
2607.488 12153594 12199529 12247139 12295912 12345816 12396169 12446767 
2610.863 12496756 12545251 12591329 12633797 12671697 12704927 12733245 
2614.238 12757437 12778456 12797464 12815277 12832819 12850054 12867255 
2617.613 12884013 12900158 12915074 12928898 12941767 12954228 12967405 
2620.989 12982494 13000622 13022644 13048696 13078198 13109989 13142809 
2624.364 13175562 13207736 13239401 13271342 13304378 13339228 13376267 
2627.739 13415462 13456130 13497964 13540247 13582945 13625885 13669617 
2631.114 13714652 13761231 13809833 13860459 13913211 13967819 14024041 
2634.490 14081433 14139656 14198331 14257289 14316321 14375568 14434892 
2637.865 14494087 14552947 14611335 14668772 14725428 14781268 14836635 
2641.240 14891942 14947495 15003159 15058657 15113442 15166965 15218951 
2644.615 15269467 15318924 15367701 15416586 15465888 15515678 15566125 
2647.990 15616886 15667964 15719391 15771443 15824256 15878210 15933443 
2651.366 15989851 16047161 16105372 16163969 16222987 16282324 16341770 
2654.741 16401364 16461171 16521296 16581947 16643191 16705235 16767668 
2658.116 16830350 16892282 16952882 17010904 17065832 17117528 17166128 
2661.491 17212254 17256896 17300928 17344754 17388792 17432766 17476538 
2664.867 17519970 17562748 17605154 17647390 17689836 17732424 17775020 
2668.242 17817340 17859046 17899924 17940498 17981108 18022724 18065796 
2671.617 18110598 18156578 18203224 18249214 18293794 18336166 18376504 
2674.992 18414700 18451206 18486332 18520010 18552308 18582842 18611858 
2678.368 18639528 18666470 18693382 18721194 18750670 18782222 18816442 
2681.743 18853812 18894854 18939984 18989550 19043554 19102064 19165014 
2685.118 19231922 19302444 19376752 19454818 19536674 19622288 19710902 
2688.493 19802100 19894776 19988266 20081988 20176040 20270566 20365908 
2691.869 20462698 20560898 20660788 20762300 20865470 20970474 21077552 
2695.244 21187164 21299378 21414372 21531728 21650892 21771168 21891966 
2698.619 22012798 22133488 22254074 22375076 22496530 22619172 22742962 
2701.994 22868118 22994008 23120074 23245546 23369204 23490448 23608434 
2705.370 23722468 23832082 23936614 24035674 24128414 24214170 24291986 
2708.745 24361686 24423128 24476442 24522052 24560724 24592876 24619000 
2712.120 24639410 24654350 24663712 24667428 24665116 24656628 24641372 
2715.495 24619070 24589544 24553114 24509922 24460528 24405674 24346338 
2718.871 24283368 24217532 24149958 24081482 24013088 23945648 23879866 
2722.246 23816436 23755538 23697832 23643422 23593008 23546692 23505068 
2725.621 23468134 23436168 23409136 23387002 23370148 23359028 23354238 
2728.996 23356162 23364868 23380148 23401304 23427392 23457572 23491042 
2732.372 23527278 23566350 23607980 23651856 23697482 23743954 23790432 
2735.747 23836318 23881474 23925866 23970192 24014838 24060538 24107294 
2739.122 24155106 24203484 24251938 24299766 24346304 24391092 24433746 
2742.497 24473814 24511778 24547786 24582672 24617248 24652384 24688508 
2745.873 24725474 24763252 24801000 24838432 24875132 24911028 24946224 
2749.248 24981354 25016416 25051762 25087812 25124778 25163118 25203496 
2752.623 25246584 25292872 25342536 25395296 25450734 25507900 25566268 
2755.998 25625454 25685492 25746696 25809632 25874936 25942710 26012922 
2759.374 26084764 26157218 26228978 26298566 26364964 26426934 26484016 
2762.749 26535474 26581018 26620188 26652566 26677686 26695374 26704994 
2766.124 26706756 26700658 26687480 26667820 26642772 26613214 26580560 
2769.499 26545898 26510714 26476304 26443906 26414362 26388412 26366194 
2772.875 26347466 26331870 26318914 26308000 26298636 26290610 26283852 
2776.250 26278536 26274384 26271392 26268822 26265970 26261606 26254636 
2779.625 26243618 26227886 26206802 26180620 26149790 26115376 26078570 
2783.000 26040292 26001664 25963498 25926812 25892168 25860622 25832490 
2786.375 25808436 25788360 25772256 25759810 25750352 25743884 25740156 
2789.751 25738998 25740438 25744060 25749334 25755556 25762096 25768740 
2793.126 25775596 25783262 25792192 25802846 25814944 25827988 25840682 
2796.501 25851724 25859990 25864560 25865018 25861606 25854540 25844552 
2799.876 25832032 25817546 25801616 25784598 25766314 25746486 25724302 
2803.252 25698954 25669638 25636104 25598812 25559064 25518652 25479334 
2806.627 25442688 25409698 25380120 25353880 25329680 25307094 25285742 
2810.002 25265864 25247990 25233274 25222916 25217894 25218700 25226006 
2813.377 25239526 25258946 25283424 25312364 25344748 25380400 25419184 
2816.753 25461766 25508742 25561384 25619970 25685174 25756822 25834600 
2820.128 25918264 26007574 26102674 26203918 26311626 26426088 26546920 
2823.503 26673846 26805918 26942508 27082634 27225556 27370570 27516870 
2826.878 27663642 27810040 27955570 28099346 28241258 28381342 28519490 
2830.254 28655948 28790466 28922478 29051658 29177404 29299748 29418866 
2833.629 29536384 29654216 29775028 29901728 30037238 30184048 30343804 
2837.004 30517342 30704852 30906354 31122046 31353374 31602890 31874548 
2840.379 32173638 32506962 32880892 33302688 33779112 34316368 34920716 
2843.755 35598044 36353268 37190260 38109452 39106656 40169860 41278196 
2847.130 42401460 43497348 44516996 45408616 46119796 46608472 46845760 
2850.505 46820184 46539680 46029864 45331304 44490164 43557084 42580540 
2853.880 41601300 40653372 39762732 38946000 38213244 37568100 37009780 
2857.256 36532972 36130532 35793840 35513428 35280592 35087396 34926244 
2860.631 34791248 34677432 34581404 34501220 34436796 34388844 34359040 
2864.006 34348928 34360012 34392968 34448060 34524900 34623280 34743112 
2867.381 34884880 35048604 35233948 35439292 35661812 35896864 36138812 
2870.757 36380864 36615948 36837272 37039040 37217008 37368360 37493360 
2874.132 37594260 37675416 37742596 37802888 37862968 37928844 38005504 
2877.507 38096140 38202716 38326072 38466192 38622760 38795256 38983004 
2880.882 39185592 39402680 39633632 39877380 40131952 40394384 40660176 
2884.258 40923764 41179208 41419960 41640868 41838096 42010192 42158004 
2887.633 42285232 42397624 42501788 42605756 42717688 42845040 42995808 
2891.008 43178240 43400996 43674752 44012444 44428568 44940876 45568300 
2894.383 46328988 47240372 48313560 49550252 50938032 52447452 54028700 
2897.759 55609548 57106672 58426356 59476272 60184544 60502416 60415472 
2901.134 59943924 59140088 58078748 56841280 55513376 54170596 52872156 
2904.509 51665496 50581924 49640808 48853316 48224132 47753796 47440720 
2907.884 47282192 47276468 47421756 47717772 48163860 48757996 49494588 
2911.260 50362452 51342764 52409432 53527860 54656060 55751020 56766280 
2914.635 57658956 58395348 58949648 59309496 59475172 59458452 59280024 
2918.010 58964792 58541184 58034816 57468140 56859708 56222788 55566392 
2921.385 54896472 54216620 53529660 52838920 52149244 51467112 50801244 
2924.760 50160424 49554004 48989824 48473272 48007736 47593864 47230032 
2928.136 46912788 46636876 46395900 46181852 45986468 45801120 45617356 
2931.511 45427120 45222816 44996808 44742016 44450920 44117032 43735140 
2934.886 43303024 42821564 42294980 41730808 41138624 40527932 39909052 
2938.261 39291236 38683136 38092992 37528976 36997980 36506480 36058452 
2941.637 35655988 35297772 34981116 34700472 34449244 34219596 34003188 
2945.012 33790752 33573872 33344940 33098642 32833148 32550496 32256498 
2948.387 31959492 31668782 31393476 31139558 30910836 30707732 30528538 
2951.762 30369780 30227346 30097460 29976382 29860874 29748202 29635592 
2955.138 29520884 29401634 29276072 29142286 28999266 28846446 28683980 
2958.513 28513476 28337130 28157922 27978928 27802906 27632004 27467910 
2961.888 27311606 27163860 27025542 26897386 26780014 26673846 26579326 
2965.263 26496344 26425032 26365386 26317682 26282548 26260514 26251818 
2968.639 26256324 26273996 26304796 26348768 26406932 26480884 26572104 
2972.014 26681738 26809936 26955236 27114198 27281192 27448814 27607922 
2975.389 27747520 27856460 27924226 27941964 27903840 27808662 27659724 
2978.764 27464804 27234940 26983758 26724268 26469014 26229152 26012498 
2982.140 25824330 25667492 25541318 25442584 25365718 25303830 25249148 
2985.515 25195106 25137138 25072858 25002762 24929030 24855238 24784650 
2988.890 24719338 24660274 24605956 24554060 24500526 24441318 24372762 
2992.265 24292582 24200578 24098852 23991936 23885220 23784832 23695732 
2995.641 23621100 23562222 23518148 23487300 23467154 23455438 23450612 
2999.016 23451834 23458026 23468798 23483382 23500940 23521086 23543402 
3002.391 23567506 23593324 23620716 23649090 23678516 23709136 23741260 
3005.766 23775872 23813988 23856200 23902794 23953350 24006748 24061904 
3009.142 24117522 24173042 24228112 24282982 24337752 24392878 24448644 
3012.517 24505364 24563564 24623734 24686404 24751782 24819522 24888990 
3015.892 24959350 25029930 25100590 25171754 25244408 25319178 25396456 
3019.267 25475960 25556638 25637228 25716602 25794162 25869906 25944398 
3022.643 26018270 26091520 26164148 26235488 26304868 26372076 26437462 
3026.018 26502048 26567104 26634386 26704958 26779310 26857730 26939336 
3029.393 27023286 27108484 27194124 27279534 27364502 27448534 27531450 
3032.768 27613218 27693378 27771538 27847876 27922638 27996668 28071208 
3036.144 28147846 28227502 28311100 28397932 28486940 28576710 28666000 
3039.519 28754426 28842446 28931402 29022608 29116846 29214260 29313748 
3042.894 29413902 29513010 29610230 29705410 29799408 29893210 29988064 
3046.269 30084924 30184048 30285570 30389394 30495162 30602838 30711786 
3049.645 30821296 30930476 31038332 31144044 31247396 31348564 31448222 
3053.020 31547018 31645544 31743918 31842314 31940624 32038994 32137920 
3056.395 32238226 32340270 32444262 32549780 32656252 32762572 32868564 
3059.770 32973756 33078690 33184074 33290454 33398074 33507294 33617656 
3063.146 33728512 33839280 33949584 34058980 34167616 34275636 34383428 
3066.521 34491784 34601428 34713072 34827040 34943516 35061928 35181700 
3069.896 35302160 35422824 35543884 35665624 35787940 35911084 36034364 
3073.271 36157288 36279308 36400176 36519996 36639560 36759660 36880736 
3076.646 37002852 37125904 37248992 37371824 37494408 37617164 37740788 
3080.022 37866112 37993064 38121752 38251600 38382392 38513584 38645324 
3083.397 38777248 38908960 39039584 39168296 39294428 39418204 39540168 
3086.772 39662164 39785828 39912540 40042856 40176404 40312284 40449260 
3090.147 40586936 40725788 40866208 41009004 41154036 41300240 41446060 
3093.523 41589740 41729932 41866848 42001540 42135732 42271460 42410224 
3096.898 42552364 42697836 42845444 42994196 43143184 43291784 43439700 
3100.273 43586716 43732980 43878224 44022896 44167172 44311244 44455548 
3103.648 44600008 44744404 44888628 45032644 45176964 45322476 45470092 
3107.024 45620632 45774316 45930744 46088516 46246052 46401652 46554212 
3110.399 46703428 46849560 46993676 47136952 47280644 47425752 47573196 
3113.774 47723468 47877048 48033608 48192660 48353484 48515176 48677112 
3117.149 48839152 49001096 49163516 49326476 49490020 49653808 49817288 
3120.525 49979712 50140824 50300580 50459388 50617772 50776068 50934232 
3123.900 51091672 51247716 51401760 51553736 51704348 51854564 52006100 
3127.275 52160192 52317812 52478900 52643068 52808540 52973620 53136596 
3130.650 53296484 53452872 53606352 53758012 53909244 54061420 54215384 
3134.026 54371276 54528988 54687852 54847260 55006576 55165988 55325832 
3137.401 55486832 55649848 55815108 55982920 56152836 56323912 56494904 
3140.776 56664372 56830896 56993736 57152820 57308672 57462996 57617560 
3144.151 57773772 57932576 58094200 58257552 58421764 58585736 58748856 
3147.527 58911432 59074144 59237564 59401844 59566792 59731460 59895204 
3150.902 60057560 60218608 60379224 60540468 60702688 60865920 61029288 
3154.277 61191808 61352132 61510032 61665512 61819484 61973004 62126780 
3157.652 62281408 62436740 62592172 62747308 62901660 63054876 63206500 
3161.028 63356572 63504696 63651220 63796452 63941544 64087220 64234444 
3164.403 64383328 64533420 64683640 64833104 64980620 65125948 65269476 
3167.778 65411636 65552948 65693728 65833324 65971188 66106780 66239832 
3171.153 66370800 66500612 66629880 66759496 66889420 67019464 67148968 
3174.529 67277424 67403944 67527640 67648152 67764912 67877424 67986416 
3177.904 68092328 68196832 68301328 68407272 68514880 68624192 68733824 
3181.279 68842528 68948960 69052704 69153320 69251624 69347864 69442792 
3184.654 69536384 69628712 69719512 69809032 69897296 69984104 70069480 
3188.030 70153152 70234592 70313864 70391200 70467032 70542256 70617912 
3191.405 70694480 70772008 70850792 70930328 71010352 71090504 71170088 
3194.780 71248168 71322616 71392256 71455800 71513728 71567400 71619648 
3198.155 71673536 71731288 71794032 71861072 71930560 72000208 72068456 
3201.531 72134408 72198216 72260744 72322192 72382696 72442000 72499592 
3204.906 72555352 72609792 72663560 72716792 72769288 72820112 72867792 
3208.281 72912160 72953704 72994424 73037040 73083776 73135608 73191328 
3211.656 73248352 73303696 73354856 73401336 73444152 73485624 73528136 
3215.031 73572600 73618560 73664304 73707328 73745888 73779504 73808872 
3218.407 73836088 73863264 73892568 73925800 73964416 74009056 74060248 
3221.782 74117936 74181216 74248312 74317352 74385888 74452120 74515128 
3225.157 74575040 74632480 74688280 74742784 74796120 74847760 74897880 
3228.532 74946504 74994664 75043256 75093984 75147280 75203896 75263664 
3231.908 75326872 75393088 75462232 75533944 75607920 75683160 75759256 
3235.283 75835984 75913608 75992776 76074288 76158024 76243048 76327256 
3238.658 76408432 76484928 76556888 76625624 76694128 76765296 76841224 
3242.033 76922144 77006880 77093048 77178648 77262800 77345816 77429448 
3245.409 77515632 77605352 77698584 77794368 77890808 77986112 78079384 
3248.784 78170184 78258568 78344672 78428456 78509672 78588088 78663416 
3252.159 78735704 78805144 78872280 78937208 79000432 79062488 79123984 
3255.534 79185960 79248792 79312824 79377576 79441504 79502616 79559400 
3258.910 79610776 79656672 79698192 79736848 79773480 79808992 79843240 
3262.285 79875928 79906560 79935312 79962000 79986784 80009008 80027528 
3265.660 80040680 80047216 80046216 80038128 80024704 80007768 79989288 
3269.035 79970688 79952320 79933640 79913768 79891704 79866536 79837984 
3272.411 79805488 79769016 79728528 79684696 79637888 79589808 79541096 
3275.786 79492952 79444928 79396984 79347944 79297472 79245528 79192360 
3279.161 79139288 79086968 79035688 78985296 78934824 78883568 78831360 
3282.536 78778840 78726648 78675888 78626648 78578360 78529960 78480496 
3285.912 78429648 78378168 78327168 78278408 78232696 78190528 78150864 
3289.287 78112944 78075584 78038616 78002536 77968432 77937424 77910384 
3292.662 77887752 77869592 77856080 77846960 77842328 77841648 77844504 
3296.037 77849536 77855600 77862344 77869880 77879224 77892312 77910624 
3299.413 77934856 77964904 77999440 78036360 78074232 78111912 78149312 
3302.788 78186960 78225872 78266856 78310512 78357136 78406904 78459776 
3306.163 78515792 78574624 78635736 78698808 78763712 78830648 78900616 
3309.538 78974288 79052344 79134480 79219528 79305584 79390864 79474128 
3312.914 79555744 79636928 79719696 79805768 79895728 79988328 80081632 
3316.289 80173280 80261480 80345600 80426536 80505536 80583872 80662264 
3319.664 80740624 80817608 80892488 80963624 81030064 81091048 81146080 
3323.039 81194776 81237592 81275304 81309144 81340800 81371640 81402296 
3326.415 81432392 81460328 81484272 81502376 81513256 81516368 81511736 
3329.790 81499096 81478560 81449656 81412328 81366968 81314864 81257496 
3333.165 81196008 81131136 81062608 80988424 80907096 80817648 80720120 
3336.540 80615944 80507496 80396632 80284088 80169264 80050360 79924840 
3339.916 79790672 79646448 79491960 79327256 79153048 78970192 78779640 
3343.291 78582296 78379520 78172520 77962168 77748552 77531392 77310024 
3346.666 77083992 76853832 76621392 76389000 76159288 75934168 75714088 
3350.041 75498496 75286168 75075824 74867128 74660336 74455928 74254288 
3353.417 74054976 73857096 73659944 73463264 73267688 73075656 72889072 
3356.792 72709944 72538752 72375224 72217664 72064616 71915032 71768736 
3360.167 71626016 71487480 71352496 71220560 71090272 70960920 70832264 
3363.542 70705048 70580336 70459240 70342112 70228672 70117480 70008304 
3366.917 69900408 69794480 69691264 69591384 69494776 69400344 69306192 
3370.293 69210128 69110384 69005744 68895336 68778824 68655736 68524968 
3373.668 68386024 68238128 68081128 67915120 67739960 67555280 67359872 
3377.043 67152216 66930280 66693312 66440484 66172300 65889352 65592140 
3380.418 65280648 64954184 64611852 64252956 63877628 63486784 63081772 
3383.794 62664548 62236588 61799312 61353888 60901980 60445180 59985200 
3387.169 59524152 59063064 58602800 58143520 57684796 57226148 56767376 
3390.544 56308820 55851168 55395768 54944412 54499048 54062020 53635260 
3393.919 53219508 52814636 52418476 52027352 51637544 51245180 50847880 
3397.295 50445360 50039124 49631672 49225636 48823060 48424816 48030720 
3400.670 47640600 47253748 46870564 46491404 46116444 45744936 45376284 
3404.045 45008568 44640764 44272388 43903776 43536204 43171216 42809424 
3407.420 42451328 42096412 41743936 41393248 41044328 40697840 40354788 
3410.796 40016332 39683508 39356788 39036720 38723164 38416236 38115204 
3414.171 37819440 37527856 37239824 36954432 36671932 36392828 36117928 
3417.546 35847960 35582612 35320772 35060672 34800904 34540968 34281584 
3420.921 34025260 33774888 33532746 33300326 33077114 32861200 32650146 
3424.297 32440976 32232016 32022194 31811510 31600072 31388704 31177864 
3427.672 30968408 30761292 30557936 30359014 30164974 29975176 29787838 
3431.047 29600900 29412412 29221346 29028170 28834336 28642394 28454780 
3434.422 28273614 28099768 27932742 27771680 27614914 27460710 27307584 
3437.798 27154406 27000188 26844900 26687938 26529944 26371018 26211766 
3441.173 26052324 25892696 25733020 25573228 25413458 25254028 25095008 
3444.548 24936048 24776758 24616124 24453692 24289708 24125474 23963434 
3447.923 23806462 23656858 23515666 23382350 23254880 23130280 23006306 
3451.299 22881040 22754240 22626396 22497926 22369110 22239740 22108978 
3454.674 21975954 21840812 21704284 21568148 21434144 21303970 21178224 
3458.049 21056752 20938482 20822154 20706588 20591088 20475028 20358374 
3461.424 20240952 20122624 20003914 19884958 19766556 19649780 19535044 
3464.800 19422766 19312800 19205082 19099120 18994950 18892536 18791980 
3468.175 18693278 18595948 18499610 18403776 18308170 18213242 18119614 
3471.550 18028250 17939220 17852554 17767218 17682036 17596182 17509724 
3474.925 17423144 17337824 17255000 17175504 17099780 17027788 16959256 
3478.301 16894038 16832174 16773246 16716633 16661575 16606629 16550759 
3481.676 16493797 16436635 16381200 16329592 16283562 16243109 16206581 
3485.051 16171226 16133536 16091412 16043963 15992396 15939252 15887592 
3488.426 15840234 15798861 15764158 15735539 15712004 15692458 15676003 
3491.802 15661918 15649656 15638869 15629904 15623137 15619600 15620115 
3495.177 15625782 15636705 15652746 15673770 15699603 15731072 15769759 
3498.552 15817039 15873846 15940214 16014157 16092135 16170744 16247135 
3501.927 16320165 16391523 16464716 16544150 16634239 16737500 16854702 
3505.302 16984580 17124628 17271586 17422834 17575756 17728458 17880624 
3508.678 18032256 18185118 18341212 18503344 18673182 18851564 19037288 
3512.053 19227836 19419924 19610296 19796830 19978796 20156604 20331150 
3515.428 20503336 20672776 20838598 20999406 21153488 21299726 21437206 
3518.803 21564770 21681088 21784058 21870850 21938906 21985716 22009974 
3522.179 22011368 21990420 21948492 21886738 21805936 21706132 21586918 
3525.554 21447162 21286154 21102664 20896898 20669996 20423972 20161950 
3528.929 19887490 19603432 19312282 19015478 18713860 18407994 18098992 
3532.304 17788170 17476814 17165612 16855046 16544564 16233582 15921963 
3535.680 15610292 15300458 14994481 14695060 14403380 14120247 13845134 
3539.055 13577373 13316234 13061159 12812445 12569978 12333374 12101804 
3542.430 11873831 11647748 11422599 11197702 10972955 10748835 10526460 
3545.805 10307048 10092698 9886183 9689998 9506669 9337264 9180480 9032988 
3549.663 8889875 8745694 8596085 8439467 8276995 8112727 7952268 7800503 
3553.520 7660460 7532599 7414717 7303271 7194817 7086525 6976610 6865007 
3557.378 6752287 6639295 6527273 6416995 6309435 6204993 6104139 6007440 
3561.235 5915197 5827506 5744601 5666579 5592632 5520779 5448166 5370566 
3565.093 5283589 5183954 5070966 4947183 4819515 4696909 4587731 4497696 
3568.950 4427932 4375080 4333279 4295330 4255376 4209371 4155442 4094161 
3572.807 4027137 3956879 3885329 3813991 3743468 3674058 3605662 3538145 
3576.665 3471774 3406616 3343270 3282170 3223516 3167373 3113674 3062116 
3580.522 3012800 2965625 2920790 2879195 2841840 2809223 2781311 2756635 
3584.380 2732794 2706154 2672481 2628309 2571410 2502454 2424279 2342387 
3588.237 2263542 2193303 2135495 2091345 2059617 2037412 2020834 2005987 
3592.094 1989011 1966743 1937454 1900246 1855987 1806675 1754973 1704109 
3595.952 1656510 1614138 1577656 1546664 1520196 1497221 1476142 1456560 
3599.809 1438375 1421953 1408423 1398185 1391670 1388412 1387515 1388080 
3603.667 1388479 1387614 1384025 1375615 1360458 1336228 1301066 1254442 
3607.524 1197888 1135429 1072546 1015618 968659 933194 907096 885381 862705 
3611.864 834320 797472 752861 703939 654791 610094 572602 542643 518459 
3616.203 497096 474738 447805 414306 373415 326890 278116 232530 194871 
3620.543 168817 155028 152145 156818 165436 174651 183866 193479 205181 
3624.883 220397 238365 255604 265948 260710 232331 176739 97193 5434 -81800 
3629.704 -148680 -187100 -198295 -190379 -173256 -156066 -145102 -143479 
3633.562 -150634 -164247 -181006 -198030 -213198 -226345 -237771 -248334 
3637.419 -258368 -268402 -278700 -289627 -301680 -315321 -331048 -348893 
3641.277 -367996 -386667 -402325 -412985 -416560 -412256 -400902 -384946 
3645.134 -368526 -355647 -351012 -357534 -376206 -406364 -444431 -487095 
3648.991 -529821 -569002 -601496 -624128 -634252 -630182 -611621 -580584 
3652.849 -541503 -500962 -466210 -444298 -440525 -456645 -489279 -530549 
3656.706 -570789 -601264 -617312 -618867 -609437 -594514 -579194 -566983 
3660.564 -559902 -557883 -559703 -563575 -567811 -571020 -571748 -569432 
3664.421 -562715 -551232 -533891 -511420 -484877 -457538 -434137 -419771 
3668.279 -419473 -435328 -464290 -497388 -520422 -519429 -485341 -417288 
3672.136 -322042 -212304 -103895 -12226 47748 65544 38404 -26407 -114198 
3676.476 -208760 -298501 -379517 -452573 -520058 -582966 -639744 -687053 
3680.333 -722119 -743785 -753675 -755196 -752054 -746266 -737732 -724401 
3684.190 -703925 -675574 -641398 -606856 -578433 -564105 -569134 -595275 
3688.048 -639545 -694431 -751326 -802758 -844196 -875115 -896476 -909603 
3691.905 -915554 -914728 -907454 -895087 -880009 -864765 -851967 -842840 
3695.763 -837119 -833051 -827925 -819823 -807818 -793663 -780003 -771073 
3699.620 -769948 -778415 -795482 -817938 -840426 -857622 -865658 -863310 
3703.478 -851471 -833184 -811423 -789462 -769220 -751426 -735879 -722482 
3707.335 -710408 -699690 -690957 -685432 -684572 -690295 -703627 -725129 
3711.192 -753145 -784865 -815457 -840161 -854679 -857225 -848131 -829943 
3715.050 -806528 -781723 -759827 -742958 -732108 -726981 -726220 -727940 
3718.907 -730752 -734225 -738459 -743685 -750003 -756751 -762771 -766541 
3722.765 -767137 -764921 -760687 -756652 -755064 -757115 -762705 -770047 
3726.622 -775538 -775108 -766177 -747655 -721457 -691420 -662539 -639777 
3730.479 -627039 -625219 -632465 -644905 -657775 -668229 -676963 -687384 
3734.337 -704818 -732406 -769617 -810960 -848297 -872734 -879546 -868733 
3738.194 -844163 -810761 -772594 -731910 -688476 -642490 -595639 -552920 
3742.052 -523401 -518238 -547128 -613209 -706472 -804246 -878190 -908479 
3745.909 -892045 -840327 -772065 -705347 -655956 -633524 -640737 -672927 
3749.767 -720795 -772925 -819095 -853720 -873925 -879182 -870188 -848065 
3753.624 -815226 -775670 -734490 -696647 -666112 -645236 -634119 -631009 
3757.481 -634119 -640836 -650596 -662903 -677063 -691552 -703065 -708324 
3761.339 -705182 -694000 -677890 -661712 -650430 -646890 -650761 -658470 
3765.196 -664458 -663466 -652978 -634814 -614268 -598021 -591668 -598121 
3769.054 -616220 -641299 -666377 -684969 -692975 -689568 -676864 -658304 
3772.911 -637759 -618337 -601363 -587168 -574958 -563542 -551993 -540642 
3776.769 -530913 -525883 -528001 -539385 -559306 -584819 -610165 -629355 
3780.626 -638354 -635972 -624756 -609867 -597029 -591139 -594084 -605169 
3784.483 -620984 -637097 -649471 -655360 -654169 -646560 -633524 -616617 
3788.341 -596996 -575984 -555170 -536837 -522375 -513439 -509435 -509567 
3792.198 -511354 -513340 -514664 -516418 -520621 -529457 -543786 -562020 
3796.056 -580186 -592628 -595176 -586010 -567711 -546533 -530714 -529291 
3799.913 -548419 -589849 -647354 -709251 -759199 -784038 -778415 -745273 
3803.771 -694265 -637891 -589088 -558347 -551695 -569267 -604275 -645071 
3807.628 -678783 -696845 -696812 -681727 -657510 -629719 -602158 -575521 
3811.485 -548949 -520819 -491033 -462040 -438738 -427020 -432084 -454990 
3815.343 -491100 -529192 -556394 -562847 -545970 -511156 -469421 -434468 
3819.200 -418480 -429800 -469586 -530913 -598683 -654930 -686359 -688178 
3823.058 -664954 -626245 -583760 -546665 -520555 -506489 -501690 -500962 
3826.915 -498844 -491133 -477761 -461047 -445159 -434567 -432018 -438042 
3830.772 -450753 -466475 -480376 -488849 -489213 -480575 -464092 -442048 
3834.630 -417685 -394877 -377464 -368724 -371505 -386138 -410866 -441485 
3838.487 -473028 -500598 -521183 -534123 -540278 -541801 -541006 -539683 
3842.345 -539087 -539749 -541006 -541966 -541403 -537896 -530383 -518503 
3846.202 -502518 -482925 -461047 -436950 -410667 -381503 -348860 -313103 
3850.060 -276879 -246049 -229458 -237406 -279495 -358825 -468031 -586606 
3853.917 -688939 -754535 -775207 -756751 -712162 -655393 -597294 -545176 
3857.774 -502054 -468328 -442776 -423643 -409277 -398618 -390905 -385674 
3861.632 -382993 -383655 -388687 -399644 -416758 -437910 -458134 -470645 
3865.489 -469222 -450587 -417023 -375908 -338762 -317076 -320288 -351376 
3869.347 -404576 -466111 -518172 -548287 -551894 -534388 -506026 -478787 
3873.204 -460848 -455155 -458498 -463695 -462735 -449925 -424173 -388985 
3877.062 -351178 -318169 -296547 -290819 -301415 -325221 -354853 -381900 
3880.919 -397592 -397128 -379616 -349953 -315917 -286614 -270521 -273203 
3884.776 -294263 -327439 -361838 -385542 -389779 -372664 -338762 -297210 
3888.634 -258004 -230054 -219391 -227803 -252143 -285521 -319526 -346046 
3892.491 -359918 -359554 -346278 -323201 -293402 -260554 -227173 -195711 
3896.349 -168023 -145831 -130859 -124400 -126520 -136590 -152654 -172097 
3900.206 -192068 -210615 -226975 -242109 -257905 -275753 -296713 -319162 
3904.063 -340517 -356806 -364884 -363328 -352899 -336246 -316513 -297011 
3907.921 -279958 -265719 -254328 -245023 -236744 -228862 -221543 -214291 
3911.778 -206972 -198957 -189849 -179516 -169116 -160372 -155238 -155304 
3915.636 -161034 -170871 -182298 -192134 -198228 -199752 -197732 -193625 
3919.493 -189485 -185676 -181437 -175972 -168321 -158649 -148680 -140863 
3923.351 -137583 -139670 -145964 -153648 -158716 -158351 -150899 -137550 
3927.208 -120823 -103697 -89386 -79580 -74710 -74611 -78785 -86603 -97800 
3931.548 -112243 -128541 -145036 -159014 -168321 -171236 -167559 -158285 
3935.405 -145400 -130959 -116483 -102637 -89452 -76400 -63148 -50162 -38168 
3939.745 -28925 -23723 -23955 -29620 -40123 -53640 -67985 -80541 -89353 
3944.084 -93129 -91572 -85742 -76731 -66726 -57682 -50725 -47147 -46683 
3948.424 -48803 -52282 -56026 -58808 -60001 -59272 -56390 -51420 -44828 
3952.763 -37009 -28792 -20708 -13187 -6825 -1093 4638 11298 19483 29523 
3957.585 40922 52620 63091 71177 76082 77507 75983 72536 68261 64450 61401 
3962.889 59811 59579 60473 62230 64715 67433 70548 74160 78468 84102 91426 
3968.193 100341 110681 121983 133683 144985 155625 165237 173822 181380 
3972.533 187778 192783 196529 198783 200208 201667 204319 209126 216982 
3976.872 227657 240454 254013 266645 276890 283720 286471 285311 280968 
3981.212 274536 267275 260478 255571 253251 253715 256665 260776 264755 
3985.552 266810 265750 261439 254046 245161 236409 229447 225469 224640 
3989.891 226828 231105 236309 241249 245194 247780 248742 248278 246554 
3994.231 243603 239558 234552 229116 223646 218806 215557 214065 214595 
3998.570 216850 220264 223546 225933 226894 
##END=
