##TITLE=814d_1_b
##JCAMP-DX=5.01  $$ Nicolet v. 1
##DATATYPE=INFRARED SPECTRUM
##ORIGIN=UniL
##OWNER=Nicolet
##LONGDATE=2011/09/28
##TIME=10:07:21
##SPECTROMETER/DATA SYSTEM=Nicolet iS5
##DATA PROCESSING=
Ratio against background
%Transmittance->Absorbance
Truncated
ElementMultiply or ElementDivide
##COMMENTS=
Number of sample scans: 32
Collection length: 51.11 sec
Sample gain: 2.0
Background collected on: Mer Sep 28 10:01:47 2011 (GMT+02:00);
Number of background scans: 32
Background gain: 2.0
Sample spacing:  1.000
Number of scan points: 12415
Resolution points: 8192
Number of FFT points: 65536
Apodization: N-B fort;
Phase correction: Mertz;
Laser frequency: 15798.0 cm-1
Number of rejected sample scans: 0
Number of rejected background scans: 0
Bench serial number: ASB1000141;
##RESOLUTION=4.000
##XUNITS=1/CM
##YUNITS=ABSORBANCE
##FIRSTX=649.893372
##LASTX=4000.122314
##FIRSTY=0.093347
##MAXX=4000.122314
##MINX=649.893372
##MAXY=0.268729
##MINY=-0.003518
##XFACTOR=1.000000
##YFACTOR=1.000000E-009
##NPOINTS=6950
##DELTAX=0.482117
##ZPD=6100
##XYDATA=(X++(Y..Y))
649.893 93346648 93233336 93177272 93182896 93234640 93312024 93401664 
653.268 93509352 93659576 93881456 94190736 94581968 95025632 95483744 
656.643 95926344 96343872 96748016 97162568 97605848 98080096 98570840 
660.018 99054848 99515024 99950072 100372952 100801304 101247056 101705544 
663.393 102158264 102579144 102945960 103243944 103461992 103585456 
666.285 103589752 103442656 103124192 102649608 102082176 101508888 
669.178 101004664 100598752 100271600 99970928 99632912 99209208 98675376 
672.553 98040152 97335656 96603016 95872296 95153080 94438752 93717096 
675.928 92984280 92250200 91534208 90855744 90224352 89634224 89070776 
679.302 88518448 87971296 87437064 86933032 86474512 86068128 85707296 
682.677 85375976 85056816 84740840 84429760 84134464 83866184 83628192 
686.052 83413176 83206808 82994848 82770448 82538856 82313648 82110768 
689.427 81939640 81800288 81684496 81582936 81489632 81406656 81340480 
692.802 81297088 81275864 81268880 81261928 81242344 81206400 81159856 
696.177 81117280 81093800 81099664 81135776 81195768 81270032 81352784 
699.551 81444624 81550632 81676304 81822288 81981496 82142312 82293112 
702.926 82427200 82545832 82656240 82765472 82875816 82982056 83073272 
706.301 83139280 83175272 83185264 83178760 83167488 83157648 83149304 
709.676 83137232 83118048 83096704 83090688 83127400 83236624 83441840 
713.051 83747672 84134512 84555264 84945560 85230112 85334592 85205480 
716.425 84815552 84174008 83325736 82351256 81355064 80441928 79713360 
719.800 79245376 79078224 79216184 79623160 80228520 80924304 81582096 
723.175 82068304 82253096 82046848 81415008 80392808 79077824 77613472 
726.550 76159600 74843392 73747296 72896048 72265680 71803448 71452200 
729.925 71170056 70932600 70731456 70564392 70426112 70305792 70190464 
733.300 70069984 69943224 69816432 69700176 69601808 69521688 69453448 
736.674 69389608 69325704 69265192 69216304 69187512 69181488 69192288 
740.049 69206904 69211720 69200608 69176552 69150640 69135680 69138872 
743.424 69157552 69182304 69200408 69204960 69197808 69188328 69187168 
746.799 69199792 69222056 69243120 69249880 69234960 69200376 69156432 
750.174 69116416 69088632 69073912 69065408 69054880 69037592 69015992 
753.548 68997424 68990320 68997352 69014904 69034176 69048232 69056744 
756.923 69068008 69094464 69146016 69224000 69319376 69417680 69505904 
760.298 69580368 69649136 69727248 69828184 69957088 70107904 70269216 
763.673 70431920 70597832 70781800 71008168 71300992 71674392 72131080 
767.048 72664032 73264312 73927216 74654872 75455528 76344792 77349616 
770.423 78519600 79946344 81756688 84099280 87100800 90792320 95044808 
773.797 99512192 103684096 106915816 108584536 108291280 105943200 101820552 
777.172 96460328 90562296 84787920 79612816 75322504 71978536 69487040 
780.547 67666000 66324396 65308028 64505972 63857360 63329428 62903000 
783.922 62568172 62322708 62175444 62143944 62248828 62505840 62920080 
787.297 63486980 64198644 65053896 66064732 67257304 68665048 70323760 
790.671 72263560 74508048 77079712 80004352 83311008 87027680 91164720 
794.046 95698040 100546704 105572880 110574968 115286824 119420936 122667808 
797.421 124726776 125365672 124434944 121911584 117907136 112664536 
800.314 106522512 99845064 93015152 86370808 80169976 74609424 69799464 
803.689 65777072 62525772 59989308 58091288 56745588 55874116 55409844 
807.063 55295724 55487092 55940712 56604504 57416780 58296660 59148712 
810.438 59880448 60404316 60654412 60595476 60219180 59544180 58607276 
813.813 57462352 56171880 54799252 53411688 52067616 50812756 49680628 
817.188 48687084 47834616 47116192 46520540 46037492 45659684 45383568 
820.563 45207812 45132188 45156744 45283564 45519284 45875280 46369356 
823.938 47022696 47853408 48872968 50078500 51448312 52935328 54466972 
827.312 55949264 57261604 58278964 58886348 58993068 58560556 57608216 
830.687 56216304 54503860 52613932 50692240 48854500 47188440 45745488 
834.062 44542140 43571296 42808580 42222308 41774800 41428712 41152032 
837.437 40917136 40706716 40513708 40339188 40188724 40067524 39977344 
840.812 39914688 39872660 39843496 39822288 39807796 39801732 39806636 
844.186 39824536 39855480 39899212 39956168 40029556 40123812 40244300 
847.561 40393368 40569732 40768292 40982712 41208676 41446204 41700132 
850.936 41977564 42285996 42629444 43007952 43419048 43859600 44329592 
854.311 44832160 45373160 45959436 46597808 47293280 48051740 48880900 
857.686 49791464 50798268 51918148 53167004 54559984 56109928 57827368 
861.060 59721536 61796600 64046860 66446588 68943752 71456464 73866568 
864.435 76039784 77835744 79120480 79797008 79810904 79162104 77905192 
867.810 76147800 74039664 71740088 69416200 67215840 65246688 63584552 
871.185 62265344 61291764 60642296 60277952 60150828 60201976 60368908 
874.560 60587968 60793156 60928936 60954824 60849264 60613456 60267596 
877.935 59846336 59388924 58935912 58526092 58192084 57964420 57871128 
881.309 57934356 58170980 58587708 59178860 59924112 60790756 61738500 
884.684 62720092 63690236 64611576 65456436 66214480 66894220 67523528 
888.059 68143992 68803816 69549296 70411544 71402792 72513064 73715496 
891.434 74971112 76236960 77475624 78653848 79745088 80728296 81583416 
894.809 82291744 82835672 83195776 83351592 83281136 82960160 82367312 
898.183 81490664 80332920 78917224 77287704 75507840 73646632 71774480 
901.558 69956496 68242080 66669708 65266668 64049320 63026912 62201564 
904.933 61567572 61112620 60818616 60666452 60638068 60721172 60909724 
908.308 61203136 61602736 62109308 62721468 63435712 64248504 65157324 
911.683 66160144 67253320 68427328 69665440 70943088 72231472 73506936 
915.058 74755376 75978560 77193488 78431312 79732424 81138488 82694600 
918.432 84442120 86413136 88627504 91079992 93733952 96510480 99297832 
921.807 101965128 104376344 106430080 108078320 109343032 110314880 
924.700 111146672 112037824 113190616 114802096 117034240 119980872 
927.593 123657104 127969432 132718432 137566224 142062128 145709568 
930.485 147972784 148399616 146709568 142832512 136955136 129480064 
933.378 120988800 112102288 103399936 95376920 88355488 82513984 77905992 
936.753 74490816 72179200 70863736 70447080 70836248 71933760 73627432 
940.128 75756056 78106200 80435272 82467264 83950840 84705480 84636784 
943.502 83765032 82209536 80173640 77888896 75576088 73424256 71552872 
946.877 70019568 68829600 67952936 67343000 66950260 66734308 66662020 
950.252 66706596 66846484 67060524 67329184 67637656 67974944 68336112 
953.627 68720440 69129032 69561936 70017928 70493688 70986160 71493768 
957.002 72017368 72558880 73119808 73699440 74294352 74899328 75509656 
960.377 76122968 76740432 77365656 78001904 78650592 79309480 79974232 
963.751 80639880 81303480 81966088 82631552 83305464 83991320 84690544 
967.126 85401784 86123232 86854352 87597320 88356632 89137440 89943552 
970.501 90776144 91634728 92519200 93432024 94379376 95369864 96412504 
973.876 97514096 98677080 99900776 101182768 102522456 103921680 105384640 
977.251 106914968 108513280 110175312 111893280 113656688 115456704 
980.143 117286976 119141896 121015416 122897488 124772216 126621664 
983.036 128428224 130178272 131865144 133485600 135034928 136502480 
985.929 137867504 139101216 140174128 141059984 141744560 142227136 
988.821 142520128 142645968 142633728 142520768 142350032 142167968 
991.714 142026000 141969904 142034496 142240656 142591888 143079024 
994.607 143685264 144394880 145195552 146079408 147040688 148071136 
997.500 149157984 150286240 151440736 152611104 153793440 154987744 
1000.392 156193792 157406112 158611056 159788704 160919136 161985824 
1003.285 162981264 163906832 164770064 165580880 166350400 167093360 
1006.178 167828656 168584528 169397744 170305376 171341568 172528992 
1009.070 173875056 175374288 177013408 178779216 180660688 182650448 
1011.963 184742848 186928640 189195360 191529952 193922416 196371792 
1014.856 198884688 201470864 204133488 206860048 209616304 212351504 
1017.748 215004512 217514128 219834176 221934928 223806320 225457024 
1020.641 226914816 228228400 229463040 230705104 232049136 233579312 
1023.534 235363408 237434656 239790160 242394784 245193312 248124000 
1026.427 251118544 254110304 257027680 259785856 262296352 264471168 
1029.320 266233712 267537232 268364992 268729248 268658656 268192112 
1032.213 267372672 266244528 264861312 263282800 261564944 259751472 
1035.106 257855360 255851840 253676320 251239088 248448784 245221376 
1037.999 241503392 237274592 232545744 227356448 221773104 215891616 
1040.892 209826304 203710048 197684608 191872176 186376416 181270128 
1043.785 176591344 172356336 168565728 165212400 162286208 159773232 
1046.678 157654160 155900976 154478144 153348256 152472992 151819728 
1049.571 151362752 151077616 150939792 150920416 150984448 151097232 
1052.464 151227504 151351808 151456944 151535088 151577984 151572816 
1055.357 151497888 151324112 151022128 150562944 149923344 149087376 
1058.250 148043696 146787504 145322544 143666224 141852160 139929024 
1061.144 137961504 136016192 134153768 132425544 130864784 129490104 
1064.037 128308696 127318832 126511424 125869912 125370664 124980752 
1066.930 124660768 124373312 124083264 123765568 123406368 122999128 
1069.823 122541952 122033480 121471160 120853192 120180864 119460944 
1072.716 118705792 117931304 117154952 116392712 115659440 114971224 
1075.609 114344496 113797200 113345312 112997504 112750992 112588432 
1078.502 112483080 112400704 112309328 112186664 112019768 111805400 
1081.395 111545736 111244352 110906168 110539416 110161600 109802680 
1084.288 109505448 109327520 109330624 109575752 110121424 111012344 
1087.181 112279984 113936696 115969872 118334216 120941736 123669968 
1090.074 126354320 128805456 130846384 132318896 133118360 133209672 
1092.967 132626992 131469864 129879176 128033416 126114456 124284056 
1095.860 122682088 121399552 120477800 119909328 119643984 119599040 
1098.753 119666112 119735304 119698064 119456880 118940504 118103144 
1101.646 116932128 115448408 113705240 111781312 109762064 107737552 
1104.540 105785752 103963360 102312144 100856136 99606704 98567760 97736624 
1107.915 97104640 96655080 96365176 96205616 96141360 96137560 96158728 
1111.290 96168736 96133504 96017552 95785248 95407008 94860008 94133664 
1114.665 93231768 92170472 90975104 89674056 88297872 86876008 85435384 
1118.041 84003384 82605656 81263760 79995184 78810104 77711616 76696776 
1121.416 75759096 74889648 74076904 73306640 72559472 71809352 71028416 
1124.791 70188672 69270128 68267320 67191704 66071980 64946256 63859128 
1128.166 62851488 61953672 61185512 60553232 60051972 59666488 59374108 
1131.542 59147152 58952912 58759212 58537392 58265740 57934280 57545796 
1134.917 57115292 56665772 56225696 55824944 55488752 55237848 55085484 
1138.292 55035568 55083564 55215088 55409844 55641260 55881804 56107852 
1141.667 56299848 56445584 56539208 56579368 56567288 56506524 56402192 
1145.042 56261524 56093944 55910712 55721716 55535024 55355000 55182352 
1148.418 55015712 54854060 54698708 54553708 54425728 54322044 54249020 
1151.793 54211216 54211252 54251044 54332896 54459572 54633924 54857784 
1155.168 55130588 55449184 55808628 56202764 56625532 57071572 57534824 
1158.543 58007700 58480524 58940804 59373960 59766436 60105240 60378844 
1161.919 60577608 60690876 60707564 60616468 60406676 60070116 59603052 
1165.294 59005328 58280820 57435500 56477696 55417788 54268804 53047856 
1168.669 51774556 50470328 49156688 47851520 46569112 45320012 44111128 
1172.044 42948468 41838168 40786856 39802136 38891204 38059680 37311308 
1175.420 36647888 36069360 35575280 35164636 34836660 34590164 34423528 
1178.795 34335624 34325836 34395480 34548720 34792040 35132552 35576860 
1182.170 36129380 36791324 37562320 38442408 39433808 40542812 41779432 
1185.545 43155336 44681308 46363716 48201808 50184188 52286420 54470916 
1188.921 56680572 58844384 60882160 62705928 64239824 65428660 66244968 
1192.296 66695124 66814988 66663796 66307032 65810732 65231012 64604388 
1195.671 63950180 63270584 62555736 61789764 60957608 60050864 59070540 
1199.046 58027432 56938540 55825320 54707652 53600880 52516400 51461556 
1202.422 50441376 49461464 48527364 47644812 46818008 46047328 45328876 
1205.797 44654020 44011968 43390744 42779696 42172024 41563708 40954456 
1209.172 40346532 39744540 39155348 38587416 38051688 37560476 37125652 
1212.547 36759084 36470480 36267280 36155308 36139032 36222220 36408752 
1215.923 36701464 37101868 37609508 38222000 38935488 39746140 40651516 
1219.298 41650056 42741196 43924012 45196600 46556200 48000740 49530200 
1222.673 51148064 52861712 54680936 56615300 58671668 60852732 63155800 
1226.048 65572060 68084080 70666296 73280360 75871064 78372336 80704640 
1229.424 82780432 84519072 85846368 86704072 87058696 86902632 86261840 
1232.799 85194064 83795536 82190272 80513472 78914048 77529728 76476984 
1236.174 75857928 75748720 76204584 77266600 78958632 81288616 84243232 
1239.549 87785992 91848128 96323480 101080808 105953600 110748536 115269976 
1242.925 119308632 122665736 125180376 126731616 127264600 126793296 
1245.818 125400040 123220192 120418952 117192616 113738600 110242784 
1248.711 106881024 103785160 101034928 98647016 96569032 94687200 92839952 
1252.086 90863832 88611208 85985088 82960872 79583840 75960760 72226856 
1255.461 68534512 65021680 61787584 58896480 56367784 54185348 52305068 
1258.836 50668112 49212980 47878232 46614888 45387948 44175096 42967272 
1262.212 41764620 40572748 39399052 38251888 37138896 36067484 35045156 
1265.587 34079692 33177994 32345514 31585180 30896782 30277614 29723790 
1268.962 29231554 28798044 28421066 28098708 27827740 27603368 27419626 
1272.337 27269830 27148762 27052764 26979738 26928196 26896644 26882792 
1275.713 26884166 26898902 26926398 26967504 27023426 27094166 27177756 
1279.088 27269586 27363548 27454146 27537168 27610288 27671518 27717570 
1282.463 27741480 27733532 27682078 27577276 27414438 27196982 26935458 
1285.838 26646894 26352394 26072062 25824436 25624576 25483516 25408786 
1289.214 25404536 25471076 25605210 25800210 26047716 26338030 26662006 
1292.589 27011578 27377946 27751440 28121048 28473636 28797406 29084214 
1295.964 29331722 29544610 29733016 29911454 30093590 30291398 30514142 
1299.339 30768012 31057124 31384822 31752296 32158368 32598068 33063312 
1302.715 33542302 34022608 34492396 34941436 35361532 35746456 36090784 
1306.090 36391532 36648176 36864792 37049828 37215096 37375040 37541800 
1309.465 37724416 37926964 38149500 38388832 38640616 38900732 39164924 
1312.840 39428728 39686812 39934008 40164808 40375912 40565692 40733756 
1316.216 40880404 41005288 41106936 41184048 41236876 41268940 41287888 
1319.591 41304796 41330960 41375604 41443400 41533772 41641488 41758964 
1322.966 41879216 41996796 42110136 42221868 42340528 42481364 42664316 
1326.341 42915332 43260560 43719016 44297740 44985048 45750164 46543072 
1329.717 47306208 47985012 48534068 48928668 49165484 49261708 49248868 
1333.092 49167412 49061936 48972096 48932524 48970316 49101740 49333976 
1336.467 49664876 50086124 50584492 51145980 51758616 52412012 53098664 
1339.842 53812508 54548000 55299528 56060088 56818996 57560020 58258504 
1343.218 58878080 59375936 59705264 59821692 59694468 59308624 58666928 
1346.593 57785732 56691748 55417900 53997596 52469288 50874772 49257664 
1349.968 47667924 46157124 44771548 43554152 42534492 41727268 41133308 
1353.343 40740780 40530224 40476612 40553980 40735648 40992688 41297764 
1356.719 41623840 41946360 42247284 42513884 42739148 42920420 43057452 
1360.094 43151928 43207668 43234168 43248296 43274616 43347100 43502584 
1363.469 43773692 44187752 44760784 45499344 46401540 47456904 48644388 
1366.844 49925364 51245552 52532256 53697492 54656584 55332572 55667324 
1370.219 55631620 55222572 54465128 53404756 52109832 50664500 49157360 
1373.595 47684268 46330464 45158584 44206464 43482000 42972064 42652944 
1376.970 42502592 42508180 42670528 43003632 43534376 44299980 45339320 
1380.345 46686936 48358852 50336668 52549456 54861164 57091672 59017056 
1383.720 60412124 61094424 60929164 59860976 57922352 55252524 52086820 
1387.096 48715144 45448608 42529632 40096016 38184772 36752268 35715592 
1390.471 34980004 34464848 34105032 33849564 33661476 33509836 33369806 
1393.846 33225458 33070714 32911022 32760002 32634250 32545886 32498534 
1397.221 32486714 32497466 32515068 32524354 32516782 32492608 32460220 
1400.597 32432086 32419198 32428946 32463044 32519388 32594066 32684654 
1403.972 32791410 32918244 33070858 33255004 33474226 33729224 34018916 
1407.347 34341756 34696776 35083192 35499260 35941244 36402160 36873700 
1410.722 37348356 37821576 38293432 38767540 39248948 39741312 40245756 
1414.098 40761668 41288508 41827444 42381112 42952056 43538624 44131632 
1417.473 44715496 45270804 45784696 46259060 46716676 47192648 47716812 
1420.848 48306964 48961972 49668148 50406024 51160404 51925952 52709092 
1424.223 53526400 54398576 55345780 56381028 57511824 58740172 60063876 
1427.599 61472472 62940956 64429948 65881372 67227056 68405616 69370840 
1430.974 70106072 70626368 70976720 71221152 71426696 71659544 71973848 
1434.349 72412800 73016656 73824104 74873744 76199328 77815056 79710216 
1437.724 81852448 84191736 86663496 89180608 91636240 93885904 95758312 
1441.100 97094608 97755504 97658288 96786488 95180344 92922592 90113912 
1444.475 86870096 83300528 79497808 75549872 71537552 67551600 63712760 
1447.850 60158892 57025468 54416040 52372124 50877420 49875712 49301572 
1451.225 49097660 49222296 49649052 50353820 51309352 52490524 53871280 
1454.601 55433108 57166612 59053460 61053580 63091964 65066552 66881224 
1457.976 68477176 69845144 71003840 71981584 72807056 73507960 74112200 
1461.351 74645584 75126128 75556456 75918184 76178160 76297120 76251656 
1464.726 76049616 75732824 75359944 74978752 74614736 74266320 73916216 
1468.102 73541592 73120552 72630352 72036376 71284712 70300456 68998360 
1471.477 67320640 65277064 62971944 60575552 58264336 56157552 54291520 
1474.852 52644304 51175836 49863628 48719628 47786420 47113428 46743316 
1478.227 46695460 46968272 47552052 48439564 49633192 51142212 52975716 
1481.603 55132728 57598304 60346896 63351280 66589208 70052112 73738304 
1484.978 77640416 81734208 85954232 90177000 94231904 97889568 100885184 
1488.353 102962048 103886960 103511104 101817200 98945648 95177376 90853704 
1491.728 86314016 81806248 77464264 73340144 69420360 65669216 62066416 
1495.104 58621876 55384964 52432236 49838916 47650876 45870456 44468944 
1498.479 43400336 42621328 42101596 41822224 41771952 41941504 42320216 
1501.854 42893864 43646248 44553452 45583276 46691696 47799440 48786020 
1505.229 49480140 49665472 49156500 47887664 45963484 43603716 41031396 
1508.604 38398172 35772756 33180178 30635334 28156898 25783860 23565756 
1511.980 21545376 19755424 18207334 16892834 15791096 14872465 14102996 
1515.355 13443178 12854524 12307706 11789696 11309914 10892800 10565297 
1518.730 10339995 10207306 10131394 10061568 9944998 9751430 9491633 9211649 
1522.588 8966517 8789545 8685215 8633059 8603757 8569961 8517989 8448555 
1526.445 8372782 8302459 8243157 8193925 8152632 8122079 8113706 8143719 
1530.302 8226307 8365012 8548029 8747350 8923594 9041412 9082044 9055994 
1534.160 8996858 8947981 8942501 8994795 9105256 9266142 9469214 9703889 
1538.017 9955338 10200114 10400603 10514443 10512542 10397582 10206118 
1541.393 9991005 9799076 9652425 9547515 9462373 9371153 9255311 9113986 
1545.250 8963472 8830729 8740488 8704213 8718885 8769191 8835903 8900021 
1549.107 8950043 8983734 9006466 9026493 9050140 9079812 9114494 9151445 
1552.965 9189347 9229655 9277347 9340886 9430034 9554797 9723135 9938591 
1556.822 10193601 10458843 10679349 10774581 10675580 10377526 9955270 
1560.198 9520114 9156520 8904993 8764796 8714355 8724564 8768042 8824778 
1564.055 8884025 8946256 9019592 9114797 9238726 9391908 9568211 9757156 
1567.912 9945134 10117150 10260159 10366158 10436170 10481652 10522657 
1571.288 10582441 10680164 10829202 11033719 11288762 11579446 11883604 
1574.663 12175266 12429446 12631921 12785623 12912173 13039170 13191239 
1578.038 13384536 13626980 13923202 14277969 14696602 15183229 15739249 
1581.413 16362036 17045052 17778644 18551304 19347028 20143068 20910424 
1584.789 21611850 22209470 22672650 22982094 23137336 23155754 23074472 
1588.164 22942306 22816676 22759966 22826664 23062628 23499506 24147680 
1591.539 24993742 25993326 27076814 28145124 29082444 29779072 30136346 
1594.914 30090608 29625482 28774676 27616854 26254460 24803068 23362980 
1598.290 22009102 20793548 19741728 18860422 18142864 17574790 17137968 
1601.665 16814952 16593307 16466368 16433399 16497480 16662505 16929420 
1605.040 17294168 17745404 18262692 18817652 19369444 19869004 20265218 
1608.415 20507296 20556138 20390320 20009256 19434650 18709226 17894400 
1611.791 17055598 16253015 15533259 14918620 14411326 13995569 13645169 
1615.166 13327748 13012675 12682273 12335930 11992622 11680831 11427599 
1618.541 11248942 11146842 11112950 11131952 11184715 11249350 11305800 
1621.916 11338211 11336952 11302569 11243638 11175229 11111590 11063561 
1625.292 11036779 11030219 11038580 11052413 11061012 11054010 11025631 
1628.667 10977441 10918928 10864940 10830867 10830255 10870649 10953281 
1632.042 11073451 11221944 11386304 11548548 11686141 11772775 11782580 
1635.417 11701901 11538953 11324062 11096124 10888451 10720034 10593849 
1638.792 10502799 10434914 10379290 10329510 10286046 10255172 10246047 
1642.168 10266334 10319161 10401315 10504632 10616836 10721936 10802027 
1645.543 10838849 10816294 10727846 10581763 10403181 10226845 10088968 
1648.918 10018266 10030370 10129089 10304673 10535014 10776144 10961198 
1652.293 11013736 10878293 10568386 10164905 9767017 9434335 9180142 8991886 
1656.151 8850105 8738729 8648033 8573780 8514609 8469266 8435650 8409839 
1660.008 8386260 8358122 8317016 8252748 8155772 8020137 7848442 7653412 
1663.866 7456985 7283896 7152777 7074502 7048436 7064399 7104005 7144895 
1667.723 7165005 7145333 7075377 6954961 6794289 6610429 6423317 6252622 
1671.581 6112910 6012715 5952179 5921813 5902030 5865019 5784423 5644458 
1675.438 5451185 5231137 5020651 4848329 4725882 4649785 4607086 4584449 
1679.295 4573834 4576982 4603603 4665659 4769128 4907404 5055345 5171715 
1683.153 5204208 5108045 4874766 4544804 4189999 3871589 3622200 3443519 
1687.010 3320432 3232295 3159597 3087911 3007028 2912818 2807389 2699286 
1690.868 2602142 2531515 2502120 2522283 2592109 2700552 2827299 2943908 
1694.725 3019674 3034989 2992882 2921658 2858983 2836237 2864820 2934567 
1698.583 3016370 3066287 3040060 2909415 2685916 2418015 2166696 1972868 
1702.440 1849665 1790172 1776199 1784815 1791702 1777396 1730555 1652319 
1706.297 1554379 1453003 1363782 1294918 1248726 1222077 1210414 1210381 
1710.155 1222077 1248793 1296214 1368934 1469060 1594450 1739869 1898582 
1714.012 2063578 2228838 2389062 2535814 2656411 2733694 2749033 2691884 
1717.870 2566543 2395026 2207456 2033717 1893557 1794564 1734846 1706570 
1721.727 1700317 1705905 1715020 1721639 1722072 1715286 1702811 1688375 
1725.584 1676966 1674272 1684483 1708866 1745325 1788509 1832461 1873391 
1729.442 1912194 1954461 2009017 2083188 2177918 2283694 2377401 2426711 
1733.299 2396058 2265274 2045335 1779392 1522889 1316054 1177920 1105664 
1737.157 1084836 1094004 1111809 1119848 1105896 1068328 1014954 959295 
1741.014 913670 884950 873628 875089 882891 891657 900057 911612 932663 
1745.354 969888 1027707 1106029 1200347 1302960 1404534 1497686 1575462 
1749.211 1632197 1661832 1657641 1614637 1533696 1423748 1301365 1186326 
1753.069 1096761 1041823 1022127 1027475 1042088 1046838 1026013 973242 
1756.926 893715 802186 715655 648088 605217 584148 574725 563345 536340 
1761.266 482699 399050 289489 166961 47052 -54402 -124301 -156364 -150435 
1765.605 -113403 -57152 4108 56961 95337 121254 144554 176408 224806 289555 
1770.427 361477 423759 458054 452216 406114 331466 247084 170508 110814 
1774.767 69752 44203 30484 27270 35918 58750 97093 148465 206606 262136 
1779.588 306067 332594 341481 337966 329609 324171 326327 335512 347881 
1783.928 357464 359023 349406 329742 304940 282824 271949 280139 312931 
1788.268 372851 457590 559961 668662 768129 841325 873329 854771 785954 
1792.607 676859 545463 410592 286869 183071 101832 41585 -994 -29653 -47644 
1797.429 -57715 -62188 -63579 -64970 -70934 -85874 -114661 -159742 -220848 
1801.769 -293799 -372333 -448370 -514465 -565759 -600040 -617973 -622473 
1805.626 -616881 -604077 -585348 -561259 -531873 -498116 -462437 -428112 
1809.483 -399147 -378854 -368923 -369287 -378192 -392659 -409178 -423610 
1813.341 -432647 -433210 -423279 -402094 -371306 -333895 -294064 -256050 
1817.198 -222835 -194983 -171434 -149839 -128176 -104624 -78586 -48969 
1821.056 -14843 25050 71210 121486 170839 211280 233790 232663 208496 169845 
1825.877 130136 104020 101170 123209 162685 205545 235879 240023 213004 
1830.217 159370 91857 25745 -27268 -61028 -75174 -72822 -58610 -35717 -6361 
1835.039 28794 69487 115487 165602 218971 274933 333788 397558 469497 554222 
1839.861 656284 779780 926786 1096429 1283187 1476574 1662663 1826073 
1843.718 1955327 2047932 2111921 2161301 2211553 2273501 2349716 2436174 
1847.575 2524149 2604609 2670714 2719624 2752400 2771907 2781078 2780544 
1851.433 2769173 2744631 2705287 2651044 2583909 2506586 2421747 2330861 
1855.290 2233933 2130634 2021566 1908267 1793832 1681390 1573233 1469891 
1859.148 1370696 1274048 1179017 1085767 995459 909686 830005 757541 693717 
1863.487 640854 602629 583351 586537 613014 659038 717048 775299 821772 
1867.827 846670 845043 817821 771349 715522 659171 609132 569052 539525 
1872.167 519288 505953 496167 486713 474738 458684 438684 416794 395402 
1876.506 376632 361178 347118 330737 308322 277055 236111 187479 134213 
1880.846 79893 26706 -24584 -75008 -125427 -176237 -226809 -274759 -317672 
1885.185 -352668 -377464 -390342 -390739 -378755 -356673 -328995 -301680 
1889.043 -282210 -276514 -285687 -306083 -329922 -347701 -351376 -337537 
1892.900 -307772 -268236 -226445 -188922 -158451 -134569 -114198 -93494 
1896.758 -70702 -45623 -19151 7985 35985 66372 100374 138787 180220 222518 
1901.579 263097 301458 338430 376466 417988 463096 509336 552961 589888 
1905.919 617859 637768 652335 665045 677290 688142 694348 692124 679414 
1910.259 657346 629704 602131 578740 562084 552364 548781 550937 559596 
1914.598 575654 598946 626585 651904 666140 660532 630899 579370 514810 
1918.938 448435 390627 346687 315882 292837 270955 244929 212308 174651 
1923.277 134843 96165 60341 27502 -2948 -31078 -55661 -74843 -87133 -92102 
1928.099 -91473 -87730 -84119 -82529 -83556 -87166 -93328 -101676 -112541 
1932.439 -125725 -139339 -150998 -157523 -156828 -149276 -138312 -128176 
1936.296 -123208 -125692 -133079 -140432 -141359 -130694 -105717 -68118 
1940.154 -22265 26110 70481 105345 126524 130600 117277 88576 50035 9642 
1944.975 -22364 -38765 -34590 -10669 26739 68162 104683 130170 143494 147206 
1949.797 145880 143858 144123 146841 152377 160796 172629 188109 205545 
1954.137 220662 227193 219502 195137 156918 112438 72569 46522 39828 50698 
1958.958 72503 96861 117111 130004 138091 145184 154896 168917 187247 208960 
1963.780 235381 268767 312234 366484 428866 491954 547387 587930 610758 
1968.120 617991 615868 610161 604951 600439 594035 583285 568687 553027 
1972.459 541548 539425 548349 567028 592077 621143 654558 696140 750305 
1976.799 818021 896471 975467 1043218 1091081 1114400 1115032 1099519 
1980.656 1075768 1048233 1020234 992271 963778 937246 915762 902348 897998 
1984.996 900190 901983 896039 877845 847400 810651 778352 759831 761723 
1989.336 784792 824195 872400 921872 966634 1004359 1034748 1057865 1074506 
1993.675 1086099 1093639 1100249 1109551 1124300 1145428 1171275 1197423 
1997.533 1219120 1233341 1239057 1238924 1237096 1236797 1238924 1243310 
2001.390 1247530 1249624 1250056 1249956 1250787 1253578 1256004 1254940 
2005.248 1247464 1232378 1211777 1189881 1171275 1156890 1144166 1126924 
2009.105 1099054 1057865 1005522 949100 898430 862241 845110 847932 868183 
2013.445 902149 947440 1003230 1067498 1137223 1205730 1265441 1308809 
2017.302 1333403 1341679 1341446 1342078 1350819 1370064 1398085 1429167 
2021.159 1458289 1483323 1504702 1524618 1545600 1566549 1584773 1596911 
2025.017 1600503 1596013 1586835 1577723 1571937 1571105 1573699 1576592 
2028.874 1578920 1581614 1586269 1596246 1612542 1633794 1657708 1681656 
2032.732 1705240 1731220 1764454 1807507 1860845 1921113 1981755 2037545 
2036.589 2086151 2128669 2170192 2215483 2265874 2318869 2368439 2406454 
2040.447 2427511 2429810 2415949 2391327 2362009 2332160 2304345 2279030 
2044.304 2255482 2233367 2213151 2194835 2178551 2164698 2153043 2144086 
2048.161 2138958 2137826 2139258 2139757 2133164 2113752 2078161 2027458 
2052.019 1968208 1909931 1863807 1837020 1831596 1843143 1862609 1881044 
2055.876 1891560 1891960 1884039 1871294 1855588 1837386 1815326 1787710 
2059.734 1755272 1721872 1693198 1675502 1672376 1683219 1703876 1727993 
2063.591 1750548 1769079 1784217 1798457 1814261 1832528 1852094 1869963 
2067.448 1883873 1892426 1895920 1895920 1893823 1890196 1885004 1876885 
2071.306 1865038 1849665 1831031 1809836 1786579 1761128 1732850 1702213 
2075.163 1670813 1641410 1616799 1599838 1590127 1586469 1585172 1582578 
2079.021 1575827 1564255 1547894 1528575 1507860 1486947 1466933 1449246 
2082.878 1434818 1425643 1422751 1425576 1432092 1438774 1441633 1438142 
2086.736 1427504 1410883 1390407 1368203 1345003 1320674 1294652 1266903 
2090.593 1239256 1214369 1195330 1184233 1181110 1183834 1189416 1195363 
2094.450 1200480 1205397 1211677 1219818 1228856 1236764 1240552 1238724 
2098.308 1232245 1224204 1219120 1220316 1228689 1242546 1258729 1274081 
2102.165 1286709 1297776 1309673 1324396 1343141 1365078 1388279 1410551 
2106.023 1431560 1452338 1475410 1503305 1536888 1575229 1616001 1656610 
2109.880 1695660 1732883 1769312 1805610 1842045 1877284 1909431 1936955 
2113.738 1959454 1977494 1992573 2005688 2017172 2026560 2033184 2036946 
2117.595 2040208 2045568 2056720 2075597 2102532 2135062 2170126 2204359 
2121.452 2235732 2264108 2290156 2313906 2335092 2351349 2359811 2358578 
2125.310 2347384 2326864 2299482 2266873 2229803 2187242 2138092 2080857 
2129.167 2016839 1948670 1879980 1814494 1754973 1701980 1656011 1616998 
2133.025 1586336 1566051 1558369 1562891 1576426 1592954 1604826 1605624 
2136.882 1592688 1566682 1532399 1495226 1460084 1429565 1404700 1385554 
2140.740 1372457 1366707 1368735 1378208 1392733 1406861 1414673 1412711 
2144.597 1399913 1379039 1355639 1334965 1320574 1312631 1308577 1304821 
2148.454 1297610 1285214 1266438 1241383 1210215 1172206 1128054 1079788 
2152.312 1030132 983138 940367 900555 858290 806966 742538 667368 593736 
2156.651 541449 534781 593571 724483 917655 1149182 1388047 1603629 1777629 
2160.991 1902276 1981655 2027192 2051361 2065942 2080025 2098736 2123808 
2164.848 2154542 2188041 2219379 2245857 2265108 2277065 2284193 2288956 
2168.706 2292254 2293353 2288790 2274833 2249387 2214683 2175454 2139957 
2172.563 2116083 2108059 2115117 2132165 2150479 2162800 2163899 2152410 
2176.421 2130001 2100001 2064411 2025661 1984617 1943145 1904706 1874522 
2180.278 1857351 1857983 1877883 1915122 1964979 2021466 2077528 2127137 
2184.135 2166463 2192637 2205891 2208822 2206224 2204959 2211486 2229903 
2187.993 2261044 2301880 2346085 2386696 2419548 2443338 2460299 2475128 
2191.850 2491123 2509919 2530615 2550379 2566143 2576909 2582909 2585475 
2195.708 2585976 2583909 2577409 2564310 2544479 2519617 2494489 2474861 
2199.565 2464931 2465964 2475694 2489957 2503753 2514151 2520383 2523283 
2203.423 2524516 2524249 2522383 2518084 2511485 2504620 2501121 2504020 
2207.280 2514684 2531414 2548945 2561444 2565310 2560611 2552111 2547179 
2211.137 2552578 2571676 2602942 2640610 2676848 2706054 2725592 2736262 
2214.995 2742164 2746532 2751467 2756735 2760937 2762037 2759870 2755701 
2218.852 2751300 2748332 2747365 2747099 2746332 2744231 2740530 2736962 
2222.710 2735362 2736262 2739796 2744464 2748666 2751100 2751833 2751300 
2226.567 2750500 2749166 2745998 2738796 2725759 2705787 2679548 2649711 
2230.425 2619142 2590342 2565910 2546912 2534248 2529082 2531981 2543913 
2234.282 2564310 2591109 2621142 2650711 2676715 2697252 2712488 2723558 
2238.139 2731627 2737996 2743197 2747265 2751300 2756368 2764138 2776376 
2241.997 2793216 2813025 2832735 2848210 2856115 2854947 2845542 2829767 
2245.854 2810724 2791415 2773308 2758136 2747032 2741030 2741664 2750166 
2249.712 2766639 2790282 2819328 2851379 2884465 2917688 2950580 2983007 
2253.569 3014135 3042029 3063685 3076665 3078701 3069691 3051205 3026213 
2257.427 2997620 2969295 2943808 2924093 2912117 2909716 2916887 2932632 
2261.284 2953249 2973665 2989246 2996552 2994851 2987010 2978103 2973599 
2265.141 2977569 2991448 3013334 3040361 3068456 3094518 3117311 3136368 
2268.999 3151520 3162934 3170244 3173314 3172713 3169876 3166806 3165237 
2272.856 3166105 3168375 3170444 3170945 3168808 3165204 3162100 3161633 
2276.714 3165571 3173548 3184095 3194843 3203689 3209964 3214337 3218676 
2280.571 3224351 3232462 3243312 3256231 3271087 3288013 3307144 3328512 
2284.428 3351618 3374357 3394427 3409655 3418939 3422445 3422245 3421143 
2288.286 3421744 3425518 3433266 3444287 3458448 3475548 3495589 3519071 
2292.143 3545761 3574892 3604893 3634162 3661795 3687525 3711886 3735881 
2296.001 3760312 3785346 3810448 3834449 3856646 3876570 3894423 3910638 
2299.858 3925315 3938054 3948286 3955375 3958952 3959755 3958819 3957548 
2303.716 3957381 3958384 3960524 3963499 3966877 3970822 3975939 3982827 
2307.573 3991789 4002690 4014763 4026835 4038708 4049912 4061350 4073056 
2311.430 4085498 4097673 4108677 4117073 4122091 4123730 4123128 4121455 
2315.288 4120552 4121422 4124767 4130888 4139953 4152130 4168020 4187892 
2319.145 4211813 4239349 4269664 4301387 4332944 4362563 4388167 4407245 
2323.003 4417220 4415882 4401556 4374611 4336860 4292184 4245171 4200371 
2326.860 4161463 4130554 4107975 4092823 4083658 4078708 4076501 4075731 
2330.718 4075363 4074160 4071283 4066701 4061082 4056199 4054661 4058473 
2334.575 4068808 4085364 4106537 4130019 4154037 4177555 4200906 4225363 
2338.432 4252030 4281710 4313902 4347435 4380502 4411697 4439982 4465156 
2342.290 4487552 4507071 4523744 4537371 4547817 4555652 4562684 4571591 
2346.147 4586123 4609999 4646436 4697143 4762227 4840120 4927377 5019981 
2350.005 5113007 5202196 5284294 5357852 5423371 5482894 5539136 5594613 
2353.862 5650634 5707703 5764948 5821931 5878217 5934342 5991248 6050277 
2357.719 6112573 6178946 6250438 6327791 6411817 6502921 6600269 6701844 
2361.577 6804217 6903450 6996140 7080059 7154798 7221532 7282077 7337743 
2365.434 7389002 7435311 7475221 7507685 7532363 7549254 7558963 7561829 
2369.292 7557885 7546961 7528856 7504246 7475019 7443738 7413336 7387148 
2373.149 7367298 7356177 7355705 7367837 7394596 7438008 7498886 7577069 
2377.007 7671083 7778880 7897939 8026684 8164348 8311038 8466867 8631370 
2380.864 8803171 8980047 9159295 9338246 9514899 9687321 9853575 10010874 
2384.721 10156052 10284859 10394087 10481448 10546693 10591066 10617074 
2388.097 10627565 10624476 10608993 10581729 10543026 10493668 10434778 
2391.472 10367481 10292729 10210834 10121831 10025691 9923370 9816497 
2394.847 9707956 9600729 9497796 9401185 9312144 9231957 9161935 9104680 
2398.705 9063132 9040160 9037995 9057009 9095342 9150227 9218181 9296303 
2402.562 9383342 9479068 9583792 9698502 9823918 9960458 10108435 10268336 
2406.419 10440853 10626479 10824820 11034977 11255029 11482779 11716469 
2409.795 11955531 12199869 12449903 12705917 12966552 13229529 13490924 
2413.170 13746046 13990437 14219626 14429377 14616236 14776812 14908264 
2416.545 15008989 15078759 15119241 15133273 15125005 15098210 15056153 
2419.920 15001306 14935321 14859230 14774069 14680973 14581318 14476307 
2423.296 14367281 14255439 14142600 14031364 13925665 13829878 13748747 
2426.671 13686270 13645237 13626364 13629202 13652692 13695708 13757811 
2430.046 13838908 13939727 14060556 14201104 14360704 14537872 14730946 
2433.421 14938476 15158662 15390460 15632961 15885737 16148873 16423490 
2436.797 16711501 17014696 17335444 17675654 18036436 18418260 18821702 
2440.172 19246850 19693878 20163510 20655820 21171228 21709372 22270396 
2443.547 22853800 23459704 24087752 24737262 25406712 26093630 26794466 
2446.922 27506032 28224814 28948508 29675538 30404712 31135002 31865026 
2450.298 32593138 33316712 34032964 34738412 35428288 36097660 36739648 
2453.673 37347776 37915464 38436724 38907184 39322940 39679480 39972260 
2457.048 40194756 40339772 40400204 40369952 40245248 40024832 39709252 
2460.423 39300524 38801268 38214980 37545920 36799400 35982816 35105180 
2463.799 34175684 33204962 32202076 31176368 30136170 29089884 28045830 
2467.174 27013870 26003108 25023928 24085858 23197242 22364680 21592560 
2470.549 20882992 20235676 19648808 19118892 18641222 18210616 17821310 
2473.924 17467674 17144482 16846918 16570689 16312391 16069302 15839238 
2477.300 15621043 15413805 15217612 15032656 14859368 14697391 14545854 
2480.675 14403380 14268177 14138458 14013706 13894019 13780281 13673685 
2484.050 13575151 13484601 13401656 13325082 13254364 13189190 13129968 
2487.425 13077344 13032136 12994819 12964982 12942280 12926168 12916576 
2490.801 12913573 12917805 12929548 12948595 12974164 13005232 13041252 
2494.176 13081408 13125938 13174469 13227070 13282923 13340731 13398991 
2497.551 13456404 13511774 13564860 13615526 13664009 13710378 13754664 
2500.926 13796904 13837847 13878179 13918925 13960872 14004261 14048339 
2504.302 14091873 14133460 14172142 14207848 14241058 14272731 14303993 
2507.677 14334985 14365500 14394578 14421054 14443696 14461200 14472230 
2511.052 14475245 14468188 14449553 14417457 14371458 14312178 14241162 
2514.427 14160948 14074007 13982498 13888305 13792868 13697314 13602944 
2517.802 13510851 13422058 13337109 13256277 13179353 13106746 13038760 
2521.178 12976895 12922652 12877187 12841214 12814322 12795143 12781869 
2524.553 12772860 12766855 12763442 12762317 12763477 12766275 12770301 
2527.928 12775317 12781630 12790229 12803026 12822205 12848791 12883433 
2531.303 12925280 12973140 13025274 13080725 13138881 13199949 13263690 
2534.679 13330139 13398615 13468469 13539222 13610739 13683294 13757400 
2538.054 13833264 13910919 13990026 14070174 14151226 14233560 14317486 
2541.429 14403585 14491449 14580016 14667640 14752473 14833105 14909225 
2544.804 14981585 15051522 15120818 15190744 15261848 15334164 15407453 
2548.180 15480996 15554517 15627671 15699876 15770514 15838826 15903952 
2551.555 15965410 16022682 16075699 16124628 16169231 16209779 16246550 
2554.930 16280087 16311632 16342252 16373010 16403772 16433468 16460242 
2558.305 16481614 16495448 16500646 16497307 16486295 16468570 16444342 
2561.681 16412959 16373046 16322745 16261443 16189557 16109327 16024675 
2565.056 15939562 15858209 15783846 15718050 15661335 15613005 15571998 
2568.431 15536900 15506543 15480412 15458369 15441236 15430112 15425958 
2571.806 15429632 15441065 15459296 15482576 15509359 15538548 15569936 
2575.182 15604419 15643129 15687373 15737187 15791954 15849926 15908970 
2578.557 15967404 16024057 16078621 16131748 16184364 16237743 16293228 
2581.932 16352057 16415471 16484814 16560467 16642123 16728858 16818638 
2585.307 16909508 16999704 17088716 17176126 17262828 17349376 17435838 
2588.683 17521728 17606118 17687696 17765836 17840194 17910490 17976860 
2592.058 18039234 18096850 18149912 18198488 18243858 18288126 18333884 
2595.433 18383658 18438898 18500302 18567142 18638558 18713168 18790490 
2598.808 18870770 18954626 19043242 19137900 19239680 19349108 19466460 
2602.184 19591334 19722932 19860020 20001068 20144664 20289832 20436338 
2605.559 20584870 20736234 20891440 21050668 21213258 21377926 21542798 
2608.934 21706096 21866460 22022696 22173900 22318600 22454868 22580322 
2612.309 22692792 22790590 22872730 22939338 22990688 23027128 23048510 
2615.685 23054416 23044354 23018534 22978182 22925646 22864136 22797016 
2619.060 22727008 22656276 22585942 22516630 22448902 22383588 22321320 
2622.435 22263210 22209714 22161208 22117484 22078646 22044832 22016840 
2625.810 21995892 21983100 21979790 21986552 22003526 22030296 22066062 
2629.186 22110164 22161452 22219060 22281834 22348878 22419384 22492832 
2632.561 22569538 22650028 22735352 22826138 22922850 23025660 23133878 
2635.936 23246736 23363294 23482228 23602838 23723692 23844300 23963960 
2639.311 24082462 24200016 24317498 24435290 24553886 24672970 24791422 
2642.687 24908150 25021822 25131380 25237066 25339444 25440404 25540826 
2646.062 25642220 25745150 25849862 25956708 26066150 26178754 26295186 
2649.437 26416300 26541990 26672084 26806060 26943072 27082668 27225098 
2652.812 27370960 27521282 27677450 27840316 28010768 28189140 28375224 
2656.188 28568888 28769260 28975356 29186440 29401384 29619380 29839970 
2659.563 30062660 30287418 30513964 30742158 30971680 31202144 31433370 
2662.938 31665326 31898260 32132000 32366648 32601460 32835934 33069174 
2666.313 33300754 33530596 33759128 33987600 34217084 34449244 34684968 
2669.688 34925384 35171320 35423004 35680516 35943400 36210660 36480568 
2673.064 36751080 37020100 37285744 37546460 37801404 38049736 38291332 
2676.439 38525460 38751780 38970172 39180772 39384284 39582304 39777224 
2679.814 39971428 40168296 40370892 40582716 40807052 41047312 41306252 
2683.189 41586132 41888116 42212336 42558320 42924732 43310088 43713116 
2686.565 44132400 44566888 45015224 45475608 45947132 46428200 46918180 
2689.940 47417028 47924960 48442636 48970608 49509068 50057972 50617216 
2693.315 51186872 51767204 52358592 52961232 53575204 54199692 54833724 
2696.690 55476060 56125952 56782744 57446204 58116172 58792256 59473800 
2700.066 60159920 60849528 61541800 62235708 62930344 63624292 64315124 
2703.441 64999820 65674460 66334704 66976204 67594688 68185672 68744776 
2706.816 69267336 69748264 70183296 70568560 70901264 71180008 71404088 
2710.191 71573032 71686976 71746032 71751192 71703624 71605384 71458880 
2713.567 71266120 71028504 70745880 70417384 70041520 69617672 69145472 
2716.942 68626672 68063536 67459592 66818700 66145212 65443644 64718828 
2720.317 63976408 63222028 62461840 61701836 60947808 60205440 59479768 
2723.692 58775904 58098632 57451988 56839128 56262240 55722504 55220732 
2727.068 54757076 54332108 53946568 53601480 53297420 53034752 52812728 
2730.443 52630088 52485404 52376832 52303424 52264332 52259024 52287052 
2733.818 52347380 52438480 52559028 52707036 52880760 53078072 53296632 
2737.193 53533036 53783068 54041608 54303424 54563252 54817032 55061636 
2740.569 55294748 55515032 55721000 55911912 56087228 56246740 56391744 
2743.944 56523548 56644408 56756648 56862200 56962304 57058456 57151724 
2747.319 57243576 57336276 57431832 57531912 57638104 57750760 57869920 
2750.694 57995012 58126552 58264868 58411760 58569432 58740816 58929460 
2754.070 59138912 59373120 59635436 59928600 60254736 60614180 61006028 
2757.445 61427964 61876672 62348072 62837512 63340008 63849492 64358852 
2760.820 64860688 65346660 65808684 66239984 66634400 66987032 67294056 
2764.195 67552144 67758168 67909776 68005408 68045824 68032960 67971496 
2767.571 67866504 67724240 67550976 67352328 67133808 66900784 66658660 
2770.946 66412456 66167132 65926448 65693848 65471420 65260856 65063128 
2774.321 64879380 64710252 64555564 64414532 64285272 64164220 64047396 
2777.696 63930028 63806624 63671328 63518352 63341236 63134536 62893464 
2781.072 62614940 62298692 61946600 61563484 61154616 60727076 60287584 
2784.447 59842376 59397780 58959440 58531932 58119352 57724228 57347692 
2787.822 56989392 56647768 56321272 56008628 55709360 55423620 55152216 
2791.197 54895496 54653276 54424980 54209412 54005512 53812096 53628544 
2794.573 53453620 53285620 53122028 52959508 52794096 52622348 52441284 
2797.948 52248676 52043264 51824096 51590340 51341084 51075012 50791560 
2801.323 50489836 50170056 49832484 49477728 49106640 48720220 48319816 
2804.698 47907348 47485808 47058292 46628944 46201456 45779284 45365508 
2808.073 44962596 44573240 44200076 43845892 43513936 43207304 42928244 
2811.449 42678388 42458268 42267588 42105392 41970188 41860172 41773228 
2814.824 41707320 41660232 41630108 41615996 41617384 41634812 41669716 
2818.199 41723916 41799096 41896584 42017600 42162712 42332564 42527000 
2821.574 42745620 42987868 43252028 43536204 43837868 44154264 44482344 
2824.950 44819816 45163216 45509644 45855208 46195708 46526512 46842364 
2828.325 47138244 47408896 47649880 47857036 48026832 48157048 48246240 
2831.700 48294596 48303780 48276564 48216356 48127100 48012916 47877900 
2835.075 47726648 47563364 47392896 47219172 47045624 46874256 46705752 
2838.451 46539532 46374444 46209192 46043052 45876348 45710184 45545960 
2841.826 45386180 45233000 45088588 44955208 44835060 44730228 44642268 
2845.201 44572356 44520812 44486856 44468868 44463876 44467952 44475992 
2848.576 44481868 44478232 44457636 44413040 44339132 44233168 44095764 
2851.952 43930864 43745180 43547196 43346444 43151604 42970860 42810740 
2855.327 42675832 42569284 42492176 42443512 42420676 42419212 42433684 
2858.702 42457940 42485892 42512092 42532152 42542676 42541948 42528900 
2862.077 42504160 42469228 42426336 42377824 42326428 42274380 42223656 
2865.453 42176296 42134124 42099664 42075312 42063812 42067428 42087688 
2868.828 42124924 42178268 42246076 42325660 42414608 42510412 42610912 
2872.203 42714580 42819956 42926708 43035244 43147280 43265244 43392648 
2875.578 43533348 43690252 43866236 44062500 44279324 44516188 44771692 
2878.954 45043964 45330640 45628948 45936192 46249184 46565424 46883000 
2882.329 47200812 47517896 47833876 48147940 48458344 48763000 49058968 
2885.704 49343628 49614432 49869648 50107872 50328744 50532380 50719424 
2889.079 50891312 51050604 51200292 51344292 51487108 51632956 51786132 
2892.455 51951348 52133028 52336428 52566772 52829828 53130420 53471872 
2895.830 53854552 54274960 54725468 55193112 55659452 56103292 56500716 
2899.205 56826964 57062008 57190692 57206832 57112908 56920712 56648444 
2902.580 56317120 55949040 55563944 55177236 54800904 54442780 54108144 
2905.956 53800652 53522764 53276180 53061784 52880048 52730756 52613784 
2909.331 52528812 52475796 52454260 52463380 52500880 52563144 52645612 
2912.706 52742164 52845884 52950040 53047408 53130940 53194604 53232544 
2916.081 53240072 53214528 53154832 53062008 52938664 52788708 52616924 
2919.457 52428124 52227112 52018052 51804944 51591160 51379568 51172072 
2922.832 50969852 50773088 50580732 50391028 50201260 50008712 49810784 
2926.207 49605632 49392296 49171272 48944280 48714364 48485980 48263640 
2929.582 48052812 47858808 47686300 47539484 47421832 47334992 47279644 
2932.958 47255224 47259772 47291172 47347260 47426564 47528836 47654316 
2936.333 47803804 47977428 48174188 48391484 48625152 48870592 49123188 
2939.708 49379412 49637500 49896932 50157744 50419568 50680212 50935388 
2943.083 51178040 51398104 51584408 51724500 51805992 51819020 51756940 
2946.458 51617692 51404632 51127004 50798896 50436244 50056936 49676728 
2949.834 49307880 48958408 48632048 48328704 48045560 47778464 47523032 
2953.209 47274880 47030488 46786528 46540236 46289800 46033768 45771480 
2956.584 45503428 45230832 44955172 44678808 44403648 44131596 43864144 
2959.959 43601920 43345416 43094660 42849536 42610400 42378080 42153988 
2963.335 41940376 41739596 41554336 41386612 41237968 41109232 41000520 
2966.710 40911604 40841816 40790456 40755920 40735792 40726548 40723164 
2970.085 40719996 40711084 40691140 40656284 40604944 40537612 40457228 
2973.460 40367840 40275020 40184364 40100192 40025452 39959944 39899756 
2976.836 39836596 39758668 39651308 39498364 39286160 39004244 38647892 
2980.211 38219288 37726516 37183692 36607080 36015180 35426164 34855796 
2983.586 34317696 33822484 33377000 32985732 32650538 32371930 32149982 
2986.961 31984992 31877364 31826664 31829302 31876828 31952466 32032360 
2990.337 32086510 32081090 31987130 31783380 31462080 31030396 30509770 
2993.712 29932398 29332324 28743594 28193170 27697402 27263762 26891110 
2997.087 26573550 26301840 26067032 25861502 25678776 25514470 25365368 
3000.462 25228428 25101574 24982618 24869272 24759780 24652630 24546944 
3003.838 24442686 24340590 24242058 24149116 24063164 23985354 23915958 
3007.213 23854452 23799706 23750742 23706476 23666514 23630722 23598990 
3010.588 23571108 23546760 23525284 23506186 23488978 23473800 23460964 
3013.963 23451240 23445542 23444700 23449634 23461594 23481424 23510244 
3017.339 23548334 23595420 23649756 23708678 23768802 23826202 23877660 
3020.714 23920264 23952580 23973308 23981852 23978000 23961720 23933148 
3024.089 23893588 23845070 23790606 23734086 23679286 23629462 23587340 
3027.464 23554002 23529376 23512586 23501814 23494820 23489398 23483452 
3030.840 23475128 23463028 23446450 23425084 23399206 23369274 23336198 
3034.215 23300850 23264390 23228350 23194514 23164806 23140832 23123988 
3037.590 23115076 23114274 23121158 23135416 23156664 23184484 23218912 
3040.965 23259320 23305186 23355322 23408472 23463692 23520248 23577860 
3044.341 23636530 23695874 23755294 23813322 23868452 23919180 23964976 
3047.716 24006152 24044148 24080536 24116718 24153424 24190066 24225520 
3051.091 24258316 24287326 24311540 24330708 24344410 24352192 24353452 
3054.466 24347354 24334038 24313922 24288972 24261678 24234594 24210526 
3057.842 24190734 24175984 24166106 24160326 24157874 24158014 24160082 
3061.217 24163478 24167508 24171326 24174302 24176228 24177070 24177526 
3064.592 24178436 24180644 24185128 24192448 24203310 24218408 24238274 
3067.967 24263184 24293108 24327590 24365192 24404936 24445316 24485592 
3071.343 24525662 24565948 24607216 24650560 24696644 24745854 24798156 
3074.718 24853624 24911624 24971632 25032878 25094306 25154972 25214138 
3078.093 25271166 25326412 25380578 25434186 25487976 25541986 25596000 
3081.468 25649284 25701134 25751056 25799014 25844832 25888898 25931314 
3084.844 25972010 26010776 26048104 26084694 26121956 26161192 26203672 
3088.219 26250026 26299870 26352148 26405524 26458872 26511944 26565024 
3091.594 26619026 26675114 26733886 26795204 26858118 26921216 26983018 
3094.969 27042292 27099102 27154088 27209010 27266056 27327202 27393862 
3098.344 27466004 27542570 27620844 27698286 27772350 27841306 27905464 
3101.720 27966100 28025508 28085876 28148588 28213748 28280510 28347492 
3105.095 28413426 28478166 28542456 28607816 28675734 28746922 28821200 
3108.470 28897190 28973338 29048116 29121064 29192500 29263062 29334096 
3111.845 29406066 29479180 29552734 29625908 29698032 29768994 29839332 
3115.221 29909750 29981316 30054742 30130240 30207702 30286708 30366580 
3118.596 30446860 30526832 30606110 30684228 30761292 30837268 30912616 
3121.971 30987906 31063850 31141090 31220086 31300488 31381722 31462510 
3125.346 31541314 31617142 31689276 31757892 31824238 31889704 31956210 
3128.722 32025084 32096822 32170962 32246150 32321028 32394316 32465470 
3132.097 32535064 32604318 32674686 32747566 32823678 32903340 32985840 
3135.472 33070680 33156928 33244162 33331882 33419438 33506222 33591772 
3138.847 33675548 33757264 33837312 33916264 33994908 34073780 34153280 
3142.223 34233648 34315076 34398024 34482964 34570892 34662252 34756932 
3145.598 34854504 34953324 35052124 35149904 35246024 35340864 35435264 
3148.973 35529932 35625128 35720736 35816076 35910792 36004628 36098380 
3152.348 36193084 36289756 36389224 36490948 36594028 36696776 36797564 
3155.724 36895416 36990188 37082308 37173184 37264152 37356588 37451748 
3159.099 37550472 37653296 37760164 37870812 37984312 38099688 38215924 
3162.474 38332372 38448780 38565508 38682956 38801740 38921896 39043212 
3165.849 39164884 39286340 39406776 39525760 39643104 39758740 39872332 
3169.225 39983088 40090420 40193340 40290976 40382712 40468428 40548048 
3172.600 40621972 40690744 40754900 40815172 40871740 40925256 40975468 
3175.975 41022040 41064796 41103804 41139680 41173596 41207548 41242852 
3179.350 41280892 41321488 41363868 41406368 41447444 41486304 41522908 
3182.726 41558384 41594592 41633136 41675328 41722020 41772904 41827772 
3186.101 41886000 41946724 42009680 42073852 42138468 42202952 42266748 
3189.476 42330008 42393276 42457176 42522324 42589384 42658208 42729128 
3192.851 42801852 42876892 42954396 43034476 43116544 43198520 43278424 
3196.227 43353472 43421832 43483684 43540344 43594484 43649144 43706740 
3199.602 43767536 43830644 43893876 43955392 44013840 44069396 44123376 
3202.977 44177628 44233936 44293484 44356712 44423832 44494528 44568760 
3206.352 44646052 44725488 44805344 44883524 44957928 45027020 45090976 
3209.728 45150716 45208732 45267092 45327404 45389856 45453612 45517300 
3213.103 45579596 45640288 45700172 45760952 45824464 45892000 45964296 
3216.478 46040840 46120388 46201164 46281472 46359696 46434540 46505456 
3219.853 46572396 46636140 46698116 46760512 46825388 46894816 46969716 
3223.229 47050316 47135772 47224344 47314008 47402580 47488508 47570428 
3226.604 47647808 47721216 47791372 47859956 47928920 47999856 48073836 
3229.979 48151236 48231688 48314112 48397556 48481496 48565380 48649948 
3233.354 48735236 48821688 48909380 48997908 49086904 49176136 49265348 
3236.729 49354320 49443384 49532204 49620748 49709236 49798148 49888460 
3240.105 49981608 50078424 50178984 50282204 50385708 50486780 50583932 
3243.480 50676564 50766236 50856260 50950328 51051236 51160404 51276908 
3246.855 51398032 51520684 51641576 51758768 51871736 51981076 52087936 
3250.230 52193704 52299796 52406664 52515280 52625792 52738084 52851648 
3253.606 52965908 53079420 53191120 53300040 53405544 53507848 53607176 
3256.981 53704392 53799868 53894200 53987576 54080220 54172140 54263472 
3260.356 54354148 54443344 54530228 54612996 54690556 54761516 54825792 
3263.731 54883500 54935764 54983480 55028048 55070588 55111740 55152332 
3267.107 55192848 55233484 55274348 55315220 55355340 55393996 55430396 
3270.482 55463752 55493608 55519700 55541576 55559200 55572076 55580364 
3273.857 55584276 55584392 55581528 55576332 55569144 55560064 55548880 
3277.232 55535740 55521092 55506220 55493196 55483216 55477192 55474896 
3280.608 55475008 55475384 55474256 55470792 55465220 55458820 55453136 
3283.983 55449332 55447752 55447712 55447488 55446244 55442704 55436984 
3287.358 55429832 55422568 55416168 55411728 55409092 55408076 55407772 
3290.733 55407396 55405628 55402088 55396632 55389668 55382288 55376080 
3294.109 55372200 55371940 55375552 55382028 55390608 55399528 55408076 
3297.484 55415680 55423096 55430660 55439172 55448392 55457952 55467176 
3300.859 55475384 55482540 55489240 55496468 55504864 55515144 55527268 
3304.234 55540824 55555584 55571664 55589700 55610340 55634252 55661336 
3307.610 55690864 55721716 55752796 55783876 55815336 55848192 55884028 
3310.985 55924012 55968712 56017940 56071096 56127460 56186548 56248132 
3314.360 56311952 56378160 56446372 56516488 56588160 56661504 56736752 
3317.735 56814048 56893440 56974504 57056532 57138120 57218436 57296956 
3321.111 57373860 57449872 57525820 57602616 57680636 57759616 57838840 
3324.486 57917544 57994180 58067804 58137304 58201820 58260588 58313788 
3327.861 58361764 58405088 58444396 58479840 58510968 58536560 58555100 
3331.236 58565448 58567044 58560256 58545884 58525072 58498532 58465736 
3334.612 58426692 58380340 58325916 58264072 58195456 58121244 58041932 
3337.987 57957416 57866400 57767604 57659864 57542464 57416136 57282320 
3341.362 57142956 57000348 56856232 56711680 56567664 56424376 56280872 
3344.737 56136772 55990308 55840016 55684724 55523844 55357560 55187540 
3348.113 55015448 54843008 54671164 54500252 54329628 54158588 53987200 
3351.488 53816180 53646804 53480640 53318660 53160900 53006676 52854564 
3354.863 52704004 52554732 52407340 52263284 52123280 51987796 51856428 
3358.238 51728420 51603140 51480128 51360180 51244212 51132932 51026712 
3361.614 50924808 50825940 50728548 50631212 50533236 50434008 50333988 
3364.989 50232840 50130856 50028232 49925700 49824164 49725288 49630368 
3368.364 49540040 49453816 49370280 49286872 49201848 49113648 49022168 
3371.739 48928444 48833368 48738052 48642460 48545296 48444824 48339664 
3375.115 48228464 48111108 47988308 47861064 47730348 47596896 47460748 
3378.490 47321544 47179388 47033664 46884404 46731548 46574532 46412456 
3381.865 46244428 46069356 45886252 45695092 45496696 45292464 45084876 
3385.240 44876540 44669296 44465052 44264612 44067888 43874816 43685380 
3388.615 43499068 43316496 43137696 42962188 42789532 42617964 42445884 
3391.991 42271716 42094880 41915852 41736536 41558784 41384608 41214980 
3395.366 41049864 40887760 40727352 40567220 40406824 40246048 40085692 
3398.741 39925692 39765964 39605608 39443824 39280100 39115248 38950132 
3402.116 38786484 38625548 38467316 38310440 38153008 37992560 37827032 
3405.492 37655792 37479128 37298312 37115188 36931632 36749276 36569340 
3408.867 36393080 36220816 36052944 35888840 35727212 35566360 35404704 
3412.242 35240884 35074752 34907284 34739920 34574552 34412584 34254340 
3415.617 34099516 33947256 33796444 33646224 33496414 33346798 33197236 
3418.993 33047724 32898120 32748140 32598280 32449224 32301612 32156724 
3422.368 32014418 31874404 31735898 31597648 31458552 31318114 31175976 
3425.743 31032460 30887962 30743260 30598892 30455922 30315060 30177190 
3429.118 30042704 29911206 29781700 29652408 29521310 29386848 29248566 
3432.494 29107280 28964340 28822332 28683380 28549212 28420642 28297980 
3435.869 28180548 28067672 27958114 27850702 27744306 27637406 27528872 
3439.244 27417896 27303704 27186046 27064754 26940394 26813744 26686176 
3442.619 26559494 26435736 26316766 26203214 26094124 25986750 25877046 
3445.995 25761076 25635858 25501540 25359642 25215014 25071946 24934504 
3449.370 24804192 24680720 24561740 24444964 24328500 24211786 24094722 
3452.745 23978350 23862572 23746578 23628938 23508076 23383540 23256034 
3456.120 23127832 23000926 22877862 22759934 22646852 22537536 22429918 
3459.496 22322190 22212852 22100958 21986236 21869038 21750614 21631910 
3462.871 21514700 21400552 21289946 21183128 21078944 20975724 20871622 
3466.246 20765672 20657452 20548114 20439010 20330804 20223908 20117904 
3469.621 20011722 19904348 19795788 19686494 19577608 19470308 19364766 
3472.997 19260602 19156772 19052520 18947390 18842358 18738942 18638592 
3476.372 18542520 18450446 18361432 18274130 18187018 18099336 18010878 
3479.747 17921608 17831046 17738950 17644456 17547086 17447012 17345444 
3483.122 17244072 17145070 17050326 16960254 16875232 16794118 16715840 
3486.498 16639266 16563531 16487429 16410481 16332000 16251467 16168956 
3489.873 16085085 16001161 15918801 15838826 15762096 15688678 15618123 
3493.248 15550292 15485047 15422869 15363822 15308009 15254606 15202033 
3496.623 15148609 15093544 15037149 14980693 14926370 14876409 14831425 
3499.999 14791278 14753672 14715762 14675112 14629566 14578919 14524407 
3503.374 14468634 14414922 14366664 14327074 14298206 14281086 14274614 
3506.749 14276121 14281427 14285777 14284921 14276154 14259411 14236642 
3510.124 14211854 14189053 14171389 14160503 14156498 14158620 14165808 
3513.500 14177209 14191655 14208430 14226029 14242018 14253556 14259035 
3516.875 14256809 14247530 14233184 14216133 14199153 14183781 14170464 
3520.250 14157559 14143319 14124047 14096151 14056244 14000942 13928368 
3523.625 13838292 13732777 13615116 13489659 13360275 13229496 13098038 
3527.000 12964674 12827597 12685378 12536963 12382976 12224066 12061671 
3530.376 11896171 11728418 11559165 11390045 11223407 11062133 10907715 
3533.751 10760757 10618941 10479039 10337111 10190718 10039458 9885302 
3537.126 9732081 9582912 9440430 9305205 9176453 9053456 8936379 8826638 
3540.984 8726728 8638975 8563641 8498593 8439568 8380281 8313977 8235627 
3544.841 8141795 8030768 7903540 7762722 7612541 7458603 7307584 7165611 
3548.698 7037525 6926040 6829966 6745355 6666009 6585601 6499087 6404553 
3552.556 6303451 6199280 6097183 6000822 5912678 5833181 5761221 5694879 
3556.413 5632407 5571555 5510678 5448535 5383616 5315453 5244551 5172051 
3560.271 5100434 5033020 4973090 4924126 4889376 4871214 4871013 4888337 
3564.128 4919368 4956332 4988206 5000339 4977447 4909314 4792277 4632537 
3567.986 4444234 4246041 4055263 3883958 3738087 3617556 3518737 3435904 
3571.843 3363972 3298863 3238004 3179422 3122551 3066755 3011399 2956384 
3575.700 2901944 2847643 2794117 2741297 2689150 2637710 2587009 2536980 
3579.558 2488091 2440673 2394959 2351915 2313173 2281062 2259512 2252251 
3583.415 2262410 2291321 2337057 2392960 2448137 2489257 2502154 2474994 
3587.273 2403522 2290855 2149147 1995103 1846603 1718113 1618129 1549158 
3591.130 1507661 1486980 1477505 1469160 1453967 1425776 1382097 1323898 
3594.988 1254575 1178884 1101213 1025914 955443 891723 835084 784726 738389 
3599.327 693153 645333 592476 533222 468934 403660 343404 294064 261373 
3603.667 249140 258588 288660 335578 393578 454339 508407 545795 557937 
3608.006 540122 493082 424157 344598 266645 199711 147637 108129 74624 39596 
3612.828 -2849 -53541 -107606 -156795 -191936 -207104 -201176 -179549 
3616.686 -151031 -128839 -126056 -153284 -216344 -314096 -439102 -578565 
3620.543 -718976 -848297 -958338 -1045478 -1108970 -1149818 -1168356 
3623.918 -1163499 -1132104 -1071127 -978570 -857622 -717421 -576149 -459955 
3627.776 -397525 -413779 -516418 -690957 -902428 -1111978 -1291233 -1426361 
3631.633 -1519219 -1580364 -1623544 -1660613 -1699362 -1742266 -1787146 
3635.008 -1829942 -1866763 -1895828 -1918095 -1936403 -1953721 -1972588 
3638.384 -1993862 -2016850 -2039870 -2061207 -2079706 -2095106 -2106878 
3641.759 -2114758 -2116506 -2108658 -2085939 -2042574 -1974270 -1879036 
3645.134 -1759262 -1621828 -1478373 -1344252 -1234871 -1164490 -1143076 
3648.509 -1174503 -1257536 -1385342 -1547911 -1730947 -1917336 -2090225 
3651.885 -2233577 -2336676 -2395697 -2413919 -2401266 -2373059 -2348211 
3655.260 -2343400 -2369697 -2428087 -2509102 -2597644 -2677640 -2739972 
3658.635 -2781687 -2806312 -2820205 -2830443 -2842260 -2857863 -2877152 
3662.010 -2898645 -2919512 -2937317 -2949592 -2953147 -2944458 -2919841 
3665.385 -2875177 -2808123 -2718340 -2608744 -2486766 -2363205 -2251938 
3668.761 -2167413 -2119803 -2110076 -2125969 -2145620 -2142191 -2093919 
3672.136 -1990168 -1832846 -1636484 -1424974 -1233120 -1099650 -1056418 
3675.511 -1117464 -1270288 -1482864 -1718307 -1950818 -2169292 -2371806 
3678.886 -2559700 -2733124 -2887586 -3017743 -3118189 -3188813 -3232952 
3682.262 -3257716 -3269588 -3271758 -3263307 -3239332 -3194504 -3126052 
3685.637 -3036104 -2931557 -2825011 -2731181 -2663249 -2630678 -2636145 
3689.012 -2675499 -2740697 -2823563 -2917932 -3018500 -3121051 -3219632 
3692.387 -3307405 -3378491 -3428889 -3458375 -3470143 -3470143 -3464588 
3695.763 -3458638 -3454168 -3449960 -3442597 -3427574 -3401307 -3363564 
3699.138 -3317269 -3268667 -3226177 -3199043 -3194339 -3214961 -3258242 
3702.513 -3316644 -3379576 -3435464 -3475698 -3494795 -3490785 -3464555 
3705.888 -3419092 -3357811 -3283564 -3199240 -3107432 -3011162 -2915266 
3709.264 -2827151 -2755612 -2710701 -2701678 -2732827 -2803119 -2904668 
3712.639 -3023534 -3143980 -3252619 -3339727 -3400551 -3435332 -3447594 
3716.014 -3442663 -3426752 -3405285 -3382634 -3361263 -3341404 -3322103 
3719.389 -3301749 -3279059 -3253901 -3227098 -3200062 -3174045 -3149605 
3722.765 -3126249 -3103320 -3080817 -3060254 -3045251 -3040611 -3051206 
3726.140 -3078974 -3121775 -3172203 -3219500 -3252026 -3260182 -3239365 
3729.515 -3189537 -3115294 -3023337 -2921618 -2816551 -2711622 -2608546 
3732.890 -2508707 -2415632 -2338028 -2288228 -2279790 -2322736 -2417082 
3736.266 -2551202 -2703193 -2849831 -2972266 -3059892 -3110623 -3126249 
3739.641 -3109768 -3062721 -2985660 -2878831 -2745866 -2596096 -2447231 
3743.016 -2323164 -2251839 -2252531 -2324680 -2441629 -2563159 -2654753 
3746.391 -2697266 -2689593 -2641942 -2570504 -2492334 -2423507 -2377573 
3749.767 -2363008 -2384724 -2443277 -2536016 -2656498 -2793572 -2932282 
3753.142 -3056174 -3151184 -3209995 -3231669 -3221704 -3188484 -3142302 
3756.517 -3092331 -3045974 -3009352 -2987601 -2984837 -3004417 -3047290 
3759.892 -3109504 -3182038 -3252388 -3306780 -3334828 -3333414 -3306122 
3763.268 -3262451 -3214402 -3173222 -3146447 -3135032 -3134111 -3135559 
3766.643 -3132894 -3123288 -3108781 -3095786 -3092496 -3105688 -3138947 
3770.018 -3190261 -3253671 -3320491 -3382666 -3434379 -3473134 -3498805 
3773.393 -3512971 -3518066 -3516258 -3508008 -3492889 -3469782 -3437633 
3776.769 -3396803 -3350873 -3305037 -3267417 -3244989 -3241897 -3257157 
3780.144 -3285274 -3317170 -3344297 -3360835 -3366030 -3362775 -3356923 
3783.519 -3353832 -3357548 -3369318 -3386710 -3406304 -3424418 -3438849 
3786.894 -3449040 -3455910 -3460841 -3464851 -3469026 -3473233 -3477013 
3790.270 -3480366 -3481943 -3479938 -3472050 -3455351 -3427705 -3388584 
3793.645 -3339530 -3284748 -3230025 -3181314 -3142796 -3115393 -3095095 
3797.020 -3075158 -3047652 -3006884 -2951205 -2884755 -2817275 -2761275 
3800.395 -2731642 -2738557 -2783070 -2854308 -2932676 -2997835 -3034590 
3803.771 -3038078 -3012807 -2970786 -2928431 -2902661 -2907861 -2950284 
3807.146 -3025048 -3117564 -3210686 -3289976 -3347684 -3382765 -3398020 
3810.521 -3396277 -3379444 -3346928 -3296980 -3228742 -3143848 -3048541 
3813.896 -2952752 -2869845 -2812436 -2788074 -2793605 -2815728 -2834722 
3817.271 -2831628 -2795613 -2726571 -2634894 -2537828 -2458103 -2419290 
3820.647 -2437544 -2515954 -2640130 -2784255 -2920302 -3027614 -3097464 
3824.022 -3131447 -3137565 -3126677 -3109899 -3096181 -3089042 -3088384 
3827.397 -3090029 -3088482 -3078810 -3058806 -3028996 -2992505 -2953607 
3830.772 -2916451 -2883834 -2856053 -2830508 -2802658 -2768255 -2723871 
3834.148 -2668617 -2605088 -2538618 -2476059 -2425188 -2392237 -2380967 
3837.523 -2390754 -2417774 -2455830 -2498626 -2541945 -2583745 -2624388 
3840.898 -2665192 -2708066 -2754163 -2804996 -2860891 -2921849 -2986779 
3844.273 -3053114 -3116281 -3170394 -3209272 -3227130 -3220257 -3186544 
3847.649 -3126117 -3039887 -2928727 -2793506 -2635520 -2457214 -2265716 
3851.024 -2074298 -1903052 -1780546 -1736788 -1791964 -1943165 -2161017 
3854.399 -2399519 -2616220 -2788074 -2909803 -2988885 -3036235 -3061833 
3857.774 -3071835 -3068545 -3052423 -3023534 -2983291 -2934552 -2881628 
3861.150 -2828501 -2778757 -2734507 -2697990 -2672107 -2659692 -2663512 
3864.525 -2682744 -2711622 -2738919 -2751628 -2738622 -2695356 -2626660 
3867.900 -2544976 -2469997 -2423046 -2418664 -2459223 -2531305 -2613025 
3871.275 -2682382 -2727197 -2747414 -2753274 -2759925 -2780238 -2820929 
3874.651 -2879522 -2944195 -2998921 -3029622 -3027812 -2992077 -2927707 
3878.026 -2845091 -2758542 -2682480 -2629657 -2607361 -2615430 -2644840 
3881.401 -2680735 -2708791 -2716594 -2700229 -2663413 -2618032 -2580978 
3884.776 -2568264 -2590892 -2648067 -2726999 -2806115 -2864446 -2889330 
3888.152 -2877086 -2833899 -2772732 -2710569 -2663249 -2643061 -2655016 
3891.527 -2695883 -2755809 -2822180 -2883077 -2930011 -2957721 -2963743 
3894.902 -2947453 -2909276 -2850720 -2774477 -2685378 -2588488 -2491148 
3898.277 -2400475 -2322340 -2260771 -2216963 -2188776 -2172853 -2165995 
3901.653 -2166589 -2175688 -2196557 -2233643 -2290337 -2366600 -2458565 
3905.028 -2558218 -2657683 -2748303 -2825044 -2885940 -2931492 -2963480 
3908.403 -2984508 -2996486 -3001027 -2999119 -2992340 -2981678 -2968581 
3911.778 -2953311 -2935375 -2913028 -2883735 -2845618 -2798872 -2746096 
3915.154 -2692228 -2643852 -2607426 -2587039 -2583547 -2594614 -2616023 
3918.529 -2642304 -2669308 -2693973 -2713368 -2725913 -2729403 -2722719 
3921.904 -2706617 -2683435 -2658671 -2638714 -2630053 -2636903 -2659066 
3925.279 -2692063 -2728349 -2759629 -2779415 -2783860 -2772897 -2748764 
3928.655 -2715113 -2675960 -2635355 -2597842 -2567572 -2549521 -2548039 
3932.030 -2565827 -2602881 -2655477 -2717385 -2780436 -2836994 -2882023 
3935.405 -2913160 -2930274 -2935737 -2932216 -2921684 -2905491 -2884360 
3938.780 -2858159 -2827513 -2794066 -2760188 -2729568 -2706156 -2693314 
3942.156 -2692952 -2705169 -2727362 -2754822 -2781621 -2802461 -2813127 
3945.531 -2812304 -2801012 -2782971 -2763118 -2745998 -2735264 -2732762 
3948.906 -2737635 -2748335 -2762658 -2778658 -2795251 -2812238 -2828895 
3952.281 -2844598 -2858620 -2869746 -2876889 -2880180 -2879917 -2877086 
3955.656 -2873070 -2868857 -2864809 -2860957 -2857336 -2853847 -2850358 
3959.032 -2846968 -2843774 -2840680 -2837652 -2834459 -2831430 -2828994 
3962.407 -2827678 -2827612 -2828764 -2829817 -2829718 -2826789 -2820468 
3965.782 -2810592 -2798411 -2784913 -2771810 -2759826 -2749027 -2738886 
3969.157 -2728942 -2718471 -2707869 -2697661 -2688967 -2682480 -2678726 
3972.533 -2677508 -2677771 -2678693 -2679352 -2678990 -2677508 -2674775 
3975.908 -2671053 -2667003 -2662623 -2658309 -2654094 -2650241 -2646618 
3979.283 -2643226 -2639669 -2635882 -2631699 -2627451 -2623103 -2619217 
3982.658 -2616023 -2614013 -2613322 -2614474 -2616945 -2620699 -2624849 
3986.034 -2628604 -2630744 -2630678 -2628241 -2624355 -2620732 -2618888 
3989.409 -2620600 -2626496 -2636343 -2648331 -2660252 -2670033 -2676355 
3992.784 -2678595 -2677080 -2673227 -2668254 -2663249 -2658935 -2656136 
3996.159 -2654818 -2655477 -2658112 -2662623 -2668847 -2675993 -2683205 
3999.535 -2689692 -2694730 -2698122 
##END=
