##TITLE=814d_1_a
##JCAMP-DX=5.01  $$ Nicolet v. 1
##DATATYPE=INFRARED SPECTRUM
##ORIGIN=UniL
##OWNER=Nicolet
##LONGDATE=2011/09/28
##TIME=10:03:46
##SPECTROMETER/DATA SYSTEM=Nicolet iS5
##DATA PROCESSING=
Ratio against background
%Transmittance->Absorbance
Truncated
ElementMultiply or ElementDivide
##COMMENTS=
Number of sample scans: 32
Collection length: 51.11 sec
Sample gain: 2.0
Background collected on: Mer Sep 28 10:01:47 2011 (GMT+02:00);
Number of background scans: 32
Background gain: 2.0
Sample spacing:  1.000
Number of scan points: 12415
Resolution points: 8192
Number of FFT points: 65536
Apodization: N-B fort;
Phase correction: Mertz;
Laser frequency: 15798.0 cm-1
Number of rejected sample scans: 0
Number of rejected background scans: 0
Bench serial number: ASB1000141;
##RESOLUTION=4.000
##XUNITS=1/CM
##YUNITS=ABSORBANCE
##FIRSTX=649.893372
##LASTX=4000.122314
##FIRSTY=0.097365
##MAXX=4000.122314
##MINX=649.893372
##MAXY=0.272989
##MINY=-0.002639
##XFACTOR=1.000000
##YFACTOR=1.000000E-009
##NPOINTS=6950
##DELTAX=0.482117
##ZPD=6100
##XYDATA=(X++(Y..Y))
649.893 97365144 97290768 97280320 97332056 97427048 97541880 97660400 
653.268 97786544 97942456 98158304 98454320 98832344 99272424 99746248 
656.643 100228816 100711168 101201248 101713456 102255192 102818016 
659.536 103377024 103901392 104370320 104781080 105149208 105498648 
662.428 105850600 106211856 106573928 106918064 107222736 107469480 
665.321 107638160 107704384 107635608 107397344 106974184 106393888 
668.214 105732528 105084256 104522960 104070384 103698704 103349824 
671.107 102958512 102477984 101887416 101199616 100447728 99672720 98902952 
674.481 98146344 97395864 96639688 95874072 95108736 94361168 93648728 
677.856 92979600 92349128 91745384 91157688 90584008 90033232 89519912 
681.231 89054216 88636032 88253256 87888368 87526464 87163976 86809680 
684.606 86480488 86192288 85950272 85747384 85568520 85397504 85224952 
687.981 85051904 84886936 84740200 84615808 84510544 84415112 84321192 
691.355 84226376 84136560 84061080 84007760 83976488 83958480 83939336 
694.730 83906704 83857264 83798384 83745544 83714688 83715728 83748400 
698.105 83804176 83870768 83940064 84010056 84084968 84170624 84269304 
701.480 84377088 84485384 84584240 84667312 84734192 84788928 84835896 
704.855 84876464 84906720 84919568 84909936 84877024 84827520 84770400 
708.229 84715672 84667064 84623136 84578696 84531392 84487472 84464288 
711.604 84487560 84584288 84774992 85062496 85428120 85826912 86197704 
714.979 86467352 86562016 86426272 86029112 85375360 84506512 83500512 
718.354 82460816 81492384 80697816 80155152 79907632 79963880 80293416 
721.729 80830056 81469840 82084704 82538016 82694440 82457488 81786928 
725.104 80715048 79339552 77807128 76282024 74895400 73732104 72817448 
728.478 72126504 71605344 71195696 70855320 70560024 70302208 70080416 
731.853 69890376 69722696 69565824 69411264 69258816 69114544 68987248 
735.228 68880696 68791080 68707896 68620424 68523264 68421472 68326024 
738.603 68249600 68198928 68170352 68151904 68129112 68093144 68044152 
741.978 67990176 67941968 67906488 67882616 67863176 67838768 67805608 
745.352 67767960 67736400 67722184 67730624 67757472 67791360 67818936 
748.727 67830904 67827072 67813744 67799376 67788224 67777808 67760416 
752.102 67729896 67685904 67636848 67596000 67576024 67581288 67606952 
755.477 67639904 67667592 67684856 67696128 67713392 67748720 67808168 
758.852 67887928 67978400 68069152 68156832 68247784 68353832 68485088 
762.227 68644296 68823736 69011184 69197464 69384520 69587408 69831408 
765.601 70141704 70533632 71010824 71566192 72189376 72872808 73615856 
768.976 74424744 75314928 76314528 77475032 78888808 80681128 82996696 
772.351 85956936 89589176 93764872 98144560 102230120 105392456 107022888 
775.726 106729072 104415656 100351120 95058128 89223576 83502840 78373888 
779.101 74130944 70847240 68438616 66729276 65528400 64677716 64059192 
782.475 63604496 63274228 63044496 62900932 62838396 62862404 62987760 
785.850 63233832 63616692 64143136 64811788 65618148 66563136 67659496 
789.225 68932768 70414464 72138472 74133464 76421552 79023848 81965008 
792.600 85271680 88969336 93066992 97540512 102312472 107251752 112166632 
795.975 116803600 120887768 124120880 126210648 126927792 126119376 
798.867 123752784 119925800 114863600 108887488 102347656 95617184 89030256 
802.242 82847344 77272224 72425600 68355384 65055928 62478596 60551860 
805.617 59191160 58317124 57859580 57757156 57961464 58425820 59096240 
808.992 59910264 60787516 61633780 62357784 62873548 63115956 63050432 
812.367 62669256 61991768 61055148 59913724 58629608 57265424 55886704 
815.742 54549612 53298656 52166544 51170208 50314196 49594452 49002584 
819.116 48529552 48167972 47912420 47758788 47703720 47745772 47886372 
822.491 48132948 48498168 49001028 49662760 50500852 51525268 52731800 
825.866 54098912 55581380 57110304 58596088 59922664 60967936 61616828 
829.241 61775704 61400256 60502992 59157100 57476688 55602656 53681332 
832.616 51831712 50146104 48681116 47457460 46470860 45698660 45109208 
835.990 44664192 44324892 44057988 43834200 43634816 43451240 43282852 
839.365 43134144 43009380 42909956 42833304 42774356 42728032 42692756 
842.740 42670568 42665920 42682592 42722108 42782072 42858204 42946240 
846.115 43044720 43155296 43282116 43428896 43597452 43786412 43993048 
849.490 44215264 44453528 44711604 44994792 45308644 45655708 46035980 
852.865 46447668 46888980 47361156 47868316 48416336 49011892 49660528 
856.239 50365876 51132000 51964980 52873688 53871804 54975396 56200616 
859.614 57564028 59080524 60763276 62624276 64670256 66896996 69279648 
862.989 71766352 74274768 76685984 78864608 80668328 81960720 82641456 
866.364 82651592 81986056 80694496 78880112 76689192 74280400 71821080 
869.739 69461928 67314904 65461368 63943884 62771352 61928716 61383236 
873.113 61092368 61003020 61058044 61199324 61366216 61507212 61584064 
876.488 61574672 61477052 61305844 61087828 60853644 60635096 60462696 
879.863 60362584 60360908 60482840 60749520 61178072 61776008 62537632 
883.238 63442340 64456424 65537960 66637992 67710304 68717216 69631832 
886.613 70445912 71169896 71834528 72483224 73165448 73927768 74800640 
889.987 75794800 76898720 78083832 79309840 80532584 81714296 82821240 
893.362 83825952 84706488 85441632 86011496 86398416 86584864 86554368 
896.737 86292552 85785496 85024048 84008648 82753320 81288528 79661656 
900.112 77934688 76171296 74433704 72776816 71239848 69851256 68628768 
903.487 67581448 66713168 66022724 65503940 65145692 64932360 64847528 
906.862 64875340 65004012 65227396 65543584 65952756 66455080 67049392 
910.236 67733688 68506160 69366440 70314368 71348632 72462088 73641176 
913.611 74865440 76110848 77358216 78597384 79832248 81080424 82371920 
916.986 83744744 85237536 86891584 88743896 90822544 93142536 95694240 
920.361 98437480 101290816 104141248 106857928 109305400 111383112 113042984 
923.736 114305952 115261032 116058808 116896832 117975264 119490872 
926.628 121605600 124415360 127939176 132091808 136685088 141397392 
929.521 145796800 149403392 151693120 152215344 150678464 146989264 
932.414 141305072 133998888 125628872 116803344 108101224 100026488 92915992 
935.789 86964360 82241328 78717552 76311176 74918584 74443072 74791312 
939.163 75865736 77555440 79701416 82092400 84486712 86605944 88192392 
942.538 89056456 89091880 88308104 86816960 84818168 82544904 80223296 
945.913 78050080 76152144 74593336 73383176 72493256 71877376 71485480 
949.288 71276472 71216896 71279672 71442864 71685096 71986352 72330952 
952.663 72707592 73110704 73539120 73993448 74473120 74975600 75496640 
956.037 76032448 76581160 77144224 77724848 78325984 78948296 79589296 
959.412 80243552 80905456 81571344 82240848 82915952 83599152 84291344 
962.787 84990520 85693016 86394664 87093792 87792160 88493912 89204088 
966.162 89925208 90657288 91397552 92143432 92894312 93653416 94426648 
969.537 95220904 96041112 96889224 97764968 98668096 99601072 100570552 
972.912 101585408 102655184 103787016 104983064 106241736 107559584 
975.804 108935136 110369472 111867168 113432128 115065656 116763880 
978.697 118518576 120317752 122150264 124006288 125876424 127750424 
981.590 129614296 131448688 133233816 134951296 136589632 138145552 
984.482 139621872 141021984 142344064 143577888 144705408 145707072 
987.375 146565920 147274240 147835040 148260768 148570368 148785792 
990.268 148934208 149046400 149156448 149303008 149521280 149838000 
993.160 150268160 150812608 151461680 152200112 153014208 153894528 
996.053 154834944 155830480 156873168 157949120 159043040 160139776 
998.946 161230144 162312448 163390048 164466624 165541056 166604720 
1001.839 167643968 168644368 169596240 170497568 171353824 172174112 
1004.731 172967936 173742992 174508944 175279312 176076768 176932672 
1007.624 177880416 178950576 180163232 181524192 183026992 184658496 
1010.517 186406240 188259744 190212464 192257680 194384816 196578560 
1013.409 198823296 201107168 203428160 205793984 208217232 210704880 
1016.302 213250272 215826288 218390880 220893024 223282432 225522064 
1019.195 227588736 229473984 231182240 232731088 234154592 235501936 
1022.087 236843056 238259344 239826048 241606288 243633008 245905696 
1024.980 248394224 251049600 253816816 256635104 259444896 262181008 
1027.873 264764480 267111600 269138080 270770016 271962240 272698208 
1030.766 272988768 272860512 272348128 271490048 270325824 268904416 
1033.659 267282784 265515568 263647440 261694160 259635808 257413600 
1036.552 254944688 252143952 248933248 245263072 241115008 236498608 
1039.446 231450096 226030320 220328272 214451536 208527392 202693088 
1042.339 197068752 191756800 186829808 182325328 178258928 174629296 
1045.232 171427072 168638944 166247808 164231504 162558944 161192880 
1048.125 160094736 159225904 158555360 158058672 157714192 157499520 
1051.018 157387680 157345312 157338688 157337888 157320656 157276288 
1053.911 157199344 157085200 156924896 156701168 156389664 155965168 
1056.804 155402816 154682096 153788192 152709152 151437264 149971776 
1059.697 148323424 146518272 144597184 142616752 140636496 138711600 
1062.590 136889200 135200688 133665096 132292256 131084920 130040568 
1065.483 129150152 128397704 127758520 127200872 126693608 126207408 
1068.376 125720696 125221696 124704120 124164664 123600152 123005504 
1071.269 122376784 121713592 121021368 120311496 119598168 118896752 
1074.162 118219880 117577768 116980536 116438408 115962776 115563448 
1077.055 115243880 114996480 114800576 114627328 114442632 114217544 
1079.948 113935832 113594224 113202352 112775872 112332808 111889640 
1082.842 111462336 111071016 110742720 110512784 110427280 110534920 
1085.735 110883976 111520496 112480408 113788984 115456448 117472016 
1088.628 119795720 122347800 125015304 127643768 130052816 132071464 
1091.521 133544728 134367856 134503408 133981824 132899000 131393448 
1094.414 129642384 127828168 126113712 124640984 123503008 122742824 
1097.307 122354040 122286760 122456592 122751976 123057712 123258384 
1100.200 123247600 122945824 122299144 121288344 119931216 118280528 
1103.093 116417136 114430640 112415816 110454928 108608064 106918872 
1105.986 105412432 104100440 102987416 102070440 101341520 100784504 
1108.879 100376584 100089192 99887976 99739288 99609952 99466736 99279080 
1112.254 99015392 98644104 98138912 97480168 96660128 95684088 94569864 
1115.630 93343736 92033816 90669456 89277864 87882032 86505160 85167744 
1119.005 83887240 82677768 81547512 80498992 79530040 78635344 77807288 
1122.380 77035360 76305608 75597584 74883152 74131688 73311856 72399840 
1125.755 71387376 70283752 69116960 67925432 66755132 65649100 64639652 
1129.131 63748524 62983856 62341836 61808440 61362512 60978120 60625228 
1132.506 60274604 59901060 59486340 59023128 58516124 57980928 57439356 
1135.881 56917652 56442260 56034224 55710492 55480956 55348600 55309612 
1139.256 55353120 55463712 55621260 55804896 55996376 56180704 56348580 
1142.632 56495844 56621528 56726592 56812992 56883316 56940996 56990712 
1146.007 57037980 57087516 57142160 57201728 57263800 57324024 57378968 
1149.382 57427900 57473284 57520412 57576208 57647188 57739104 57856140 
1152.757 58002248 58180984 58396180 58650848 58946308 59281280 59651776 
1156.133 60052120 60475644 60915900 61366632 61820704 62268712 62699072 
1159.508 63097364 63447400 63734980 63947492 64074664 64108804 64042100 
1162.883 63866960 63575728 63161856 62621908 61956232 61169112 60267980 
1166.258 59261376 58159848 56974428 55718324 54407776 53061260 51698560 
1169.634 50339828 49001732 47697620 46437272 45227228 44072804 42979564 
1173.009 41953220 41000336 40126832 39336796 38632360 38013064 37477500 
1176.384 37023380 36648896 36352872 36134460 35992860 35927640 35939228 
1179.759 36028928 36200756 36460604 36814584 37268812 37827140 38490920 
1183.135 39260120 40135444 41119648 42219820 43446476 44811292 46325336 
1186.510 47995116 49819704 51787400 53873416 56039352 58227436 60365784 
1189.885 62373276 64161384 65653644 66794812 67557632 67948944 68005408 
1193.260 67787680 67362768 66798484 66152700 65463448 64751252 64018868 
1196.635 63256784 62448756 61579176 60639516 59630608 58564124 57458648 
1200.011 56337944 55224492 54136104 53086268 52082596 51129352 50229640 
1203.386 49385836 48599804 47871720 47198484 46572984 45983596 45416896 
1206.761 44858688 44297044 43724220 43136816 42535700 41924940 41311536 
1210.136 40704716 40114840 39554356 39036612 38574452 38180320 37864740 
1213.512 37635448 37498852 37459732 37522076 37689796 37965980 38352384 
1216.887 38848808 39453076 40161792 40971240 41879108 42884244 43986628 
1220.262 45186048 46481188 47869424 49348232 50916424 52575748 54331244 
1223.637 56190772 58161512 60248872 62453612 64770980 67190504 69692392 
1227.013 72249280 74821744 77354608 79783704 82032800 84019744 85669888 
1230.388 86915464 87704848 88009272 87824808 87178960 86128536 84766936 
1233.763 83213792 81599208 80066576 78749008 77759016 77195544 77132184 
1237.138 77621392 78700992 80391408 82696040 85597368 89054952 92997992 
1240.514 97320280 101893656 106558128 111130152 115425936 119250280 
1243.407 122417984 124779720 126222480 126694008 126206536 124834840 
1246.300 122704192 119968816 116813704 113427224 109988744 106670112 
1249.193 103602408 100867128 98485120 96409728 94533280 92700016 90749640 
1252.568 88535472 85957744 82986824 79661216 76080840 72376008 68696064 
1255.943 65178536 61924856 59002784 56436940 54215644 52300024 50635608 
1259.319 49164408 47827812 46578188 45380844 44212660 43063268 41930592 
1262.694 40818048 39730748 38674372 37653912 36673844 35739152 34855080 
1266.069 34026836 33258974 32554388 31913452 31334568 30815142 30352830 
1269.444 29945958 29593664 29295104 29047938 28848038 28689892 28566658 
1272.820 28472434 28402636 28354142 28324610 28312162 28314602 28329986 
1276.195 28357218 28396870 28450394 28519384 28603746 28701184 28806294 
1279.570 28912490 29013788 29105828 29186760 29255194 29308574 29340514 
1282.945 29341470 29299464 29204052 29049710 28838796 28581486 28294514 
1286.321 27998788 27714532 27460110 27250392 27095682 27002904 26975402 
1289.696 27013060 27112436 27266550 27467346 27705526 27972744 28262368 
1293.071 28568110 28883662 29202104 29514998 29814630 30095826 30357448 
1296.446 30603514 30841750 31082750 31335990 31609480 31909172 32239192 
1299.822 32602708 33002750 33440906 33916084 34423272 34953752 35494944 
1303.197 36033212 36556364 37053656 37517564 37943124 38326908 38668288 
1306.572 38968648 39233676 39472164 39695636 39916576 40145036 40387328 
1309.947 40645440 40917864 41201176 41491192 41784612 42078344 42368032 
1313.323 42648488 42913100 43154784 43368592 43550600 43699300 43814188 
1316.698 43894976 43941204 43952972 43932260 43884600 43818992 43747744 
1320.073 43682744 43633352 43604744 43596756 43605436 43625624 43653100 
1323.448 43686368 43727700 43783220 43863780 43984872 44165044 44426808 
1326.823 44791604 45273228 45873844 46577744 47351620 48144460 48898736 
1330.199 49560912 50087088 50453996 50659176 50720392 50668596 50543544 
1333.574 50388500 50241912 50137140 50100364 50147592 50286516 50516816 
1336.949 50832756 51225568 51686692 52210296 52792560 53430984 54122368 
1340.324 54860716 55636852 56437772 57245692 58037844 58784820 59447432 
1343.700 59982080 60342936 60487336 60386536 60027352 59413584 58562344 
1347.075 57500552 56261260 54878048 53389096 51835896 50261484 48714548 
1350.450 47244804 45896456 44709108 43709636 42909884 42308752 41893704 
1353.825 41645792 41541976 41559292 41674672 41863088 42100976 42364748 
1357.201 42632952 42889948 43124520 43330184 43503864 43643756 43749688 
1360.576 43824304 43876316 43923496 43991764 44115972 44331940 44669516 
1363.951 45150460 45784884 46574388 47514716 48596508 49803352 51104048 
1367.326 52452760 53783928 55013832 56056692 56829872 57265048 57321452 
1370.702 56984328 56269256 55216400 53893824 52390628 50803888 49241148 
1374.077 47798772 46547348 45528264 44748040 44189072 43822144 43621116 
1377.452 43571664 43675448 43949344 44422768 45134980 46125252 47427636 
1380.827 49057260 50995636 53172208 55450764 57650212 59543076 60898440 
1384.203 61528168 61292640 60135720 58094616 55317968 52053608 48602884 
1387.578 45284116 42340564 39905420 38007532 36594784 35577040 34854004 
1390.953 34341540 33972768 33697068 33480096 33296890 33131610 32978010 
1394.328 32838580 32722234 32639642 32598854 32601640 32643572 32715234 
1397.704 32804880 32901444 32995850 33082944 33161900 33235364 33307266 
1401.079 33380396 33455868 33533104 33611460 33691736 33778144 33878396 
1404.454 34002756 34160664 34358252 34596548 34872064 35179008 35511628 
1407.829 35866852 36243220 36640748 37058636 37493900 37941716 38397124 
1411.205 38856416 39318552 39784920 40257388 40736632 41221356 41709140 
1414.580 42197984 42688184 43181464 43679992 44183056 44685236 45178140 
1417.955 45654716 46116776 46578296 47067004 47611944 48228652 48917060 
1421.330 49660496 50436208 51221840 52006136 52792264 53597772 54448340 
1424.706 55368928 56377556 57480088 58674668 59954616 61313208 62738964 
1428.081 64209976 65691992 67132376 68466896 69636032 70593784 71322664 
1431.456 71836488 72178496 72409080 72589816 72779128 73022656 73357288 
1434.831 73821912 74462976 75336840 76503856 78001616 79830936 81953840 
1438.207 84302208 86790744 89315632 91762904 93989896 95835192 97152704 
1441.582 97816848 97754184 96950608 95442096 93301304 90616136 87488168 
1444.957 84014880 80281616 76373784 72376784 68391024 64551064 61006872 
1448.332 57901380 55338516 53353652 51920800 50974400 50443464 50268924 
1451.708 50410824 50845496 51549780 52493592 53645716 54971936 56447168 
1455.083 58061248 59806860 61669600 63609176 65557884 67433624 69167384 
1458.458 70722600 72088208 73268976 74276272 75126600 75839616 76434112 
1461.833 76923248 77307176 77570136 77686856 77634584 77411824 77048104 
1465.208 76601824 76137728 75699728 75303152 74935200 74569136 74174256 
1468.584 73723224 73188664 72532528 71699632 70617792 69211640 67439008 
1471.959 65328516 63000476 60629572 58384544 56368500 54601984 53052012 
1475.334 51674416 50448260 49388696 48540628 47952412 47661860 47681900 
1478.709 48005184 48618408 49514452 50698868 52186420 53991256 56115772 
1482.085 58544444 61247848 64192376 67348216 70700136 74241904 77964472 
1485.460 81844888 85822432 89782056 93563272 96950272 99694224 101555352 
1488.835 102319816 101856368 100158704 97368328 93753528 89633000 85317128 
1492.210 81027232 76876896 72904400 69090808 65401540 61823644 58379276 
1495.586 55133068 52177864 49600320 47451548 45732456 44408788 43427652 
1498.961 42739844 42311672 42122004 42157968 42408728 42860036 43492692 
1502.336 44283944 45201012 46201200 47229588 48197216 48980104 49416760 
1505.711 49322764 48563860 47128676 45153692 42851624 40411256 37942224 
1509.087 35481712 33035890 30611904 28229200 25931524 23774052 21803498 
1512.462 20053150 18532286 17228558 16117614 15169264 14352794 13636655 
1515.837 12993488 12404591 11863582 11378413 10965378 10638465 10399449 
1519.212 10232375 10103687 9973646 9807719 9595343 9357712 9137130 8972267 
1523.070 8876923 8839386 8831473 8824676 8799046 8751407 8693227 8642997 
1526.927 8614673 8610922 8624881 8647121 8673858 8709960 8766351 8852980 
1530.785 8971421 9111245 9250809 9363197 9429256 9446660 9434944 9424617 
1534.642 9443985 9505958 9606996 9734148 9872354 10010603 10140823 10256224 
1538.500 10347358 10398906 10393543 10321978 10194789 10041560 9898250 
1541.875 9792095 9730590 9702534 9685594 9658963 9611196 9546871 9482251 
1545.732 9438262 9428815 9455160 9506838 9567296 9622613 9664892 9695893 
1549.590 9723915 9758410 9803584 9856422 9908183 9949880 9976561 9990361 
1553.447 9999617 10016231 10051733 10112334 10198859 10307048 10429348 
1556.822 10552396 10652896 10699114 10654934 10503885 10270846 10018435 
1560.198 9812057 9687694 9650629 9684204 9763392 9862185 9960593 10047969 
1564.055 10124002 10198046 10283637 10391914 10526425 10681998 10848090 
1567.430 11013362 11168667 11309370 11435695 11551781 11664527 11781798 
1570.805 11912244 12064056 12243526 12454269 12694453 12957062 13227856 
1574.181 13489078 13723543 13921354 14086055 14236677 14402181 14605235 
1577.556 14857242 15158388 15503865 15890617 16320234 16798456 17332306 
1580.931 17926926 18583224 19296832 20058944 20857682 21675550 22488434 
1584.306 23265962 23969562 24560548 25007886 25292906 25416690 25399230 
1587.682 25281386 25116072 24963982 24889342 24946926 25181060 25621132 
1591.057 26275194 27127988 28133846 29222728 30294596 31233082 31927716 
1594.432 32279306 32223988 31746342 30881450 29709242 28333026 26868728 
1597.807 25416304 24050032 22821530 21756188 20861160 20130260 19549462 
1601.183 19100714 18766410 18533980 18396828 18354554 18410516 18568318 
1604.558 18828344 19185828 19628944 20137862 20685982 21235386 21739954 
1607.933 22150678 22416628 22496496 22364924 22016284 21468570 20761502 
1611.308 19954856 19113422 18296628 17550018 16894212 16330555 15843431 
1614.684 15410097 15006245 14614145 14230206 13865179 13540658 13277799 
1618.059 13089467 12976179 12928421 12929855 12961055 13003116 13037394 
1621.434 13050437 13035516 12994717 12937808 12878655 12830362 12800023 
1624.809 12788455 12791730 12803880 12818485 12829337 12831693 12821898 
1628.185 12799409 12767265 12733075 12707213 12699400 12717756 12764705 
1631.560 12837358 12926953 13020698 13103399 13157767 13167501 13120030 
1634.935 13012094 12853773 12669548 12490244 12340430 12231700 12162760 
1638.310 12123575 12100169 12079012 12051621 12015274 11974979 11940069 
1641.686 11920622 11923483 11948720 11989148 12032307 12063408 12066747 
1645.061 12030330 11947731 11821394 11663472 11494789 11340863 11224325 
1648.436 11161120 11158264 11213342 11316172 11446785 11576894 11664324 
1651.811 11658231 11517925 11242550 10891576 10553855 10297514 10138009 
1655.187 10054853 10016061 9994870 9974629 9947744 9913539 9874319 9832392 
1659.044 9787452 9737028 9676445 9600932 9505857 9388454 9248271 9088507 
1662.901 8916864 8744949 8586352 8453149 8352143 8284222 8243427 8218979 
1666.759 8195815 8158440 8093924 7994824 7861533 7702886 7533070 7367534 
1670.616 7218938 7095888 7001292 6933380 6884800 6843632 6793312 6715573 
1674.474 6597544 6438383 6253396 6067984 5907740 5786572 5703775 5648486 
1678.331 5606326 5566957 5527356 5493296 5475344 5482558 5515410 5562628 
1682.188 5599379 5593069 5511819 5340476 5095406 4822731 4575542 4384552 
1686.046 4254238 4169726 4111387 4061785 4008944 3947182 3874999 3794438 
1689.903 3710081 3629183 3560861 3513893 3495322 3506478 3542187 3588857 
1693.761 3627713 3638138 3604259 3525117 3419206 3318762 3251190 3229024 
1697.618 3244480 3276094 3293722 3266246 3173515 3017371 2827899 2647944 
1701.476 2512485 2432642 2400290 2398591 2409219 2416449 2408186 2378601 
1705.333 2328496 2265707 2200996 2144485 2103098 2078327 2068406 2069338 
1709.190 2077894 2092211 2113086 2142920 2185144 2241527 2312107 2394293 
1713.048 2484292 2578409 2673114 2765705 2853280 2930264 2987744 3015637 
1716.905 3005560 2956885 2879596 2792416 2714489 2659345 2631043 2625976 
1720.763 2636110 2652778 2669713 2683549 2693751 2701353 2707854 2714056 
1724.620 2719724 2724592 2729160 2734695 2742330 2752034 2762537 2770874 
1728.478 2775042 2775275 2775342 2781678 2800386 2834036 2878228 2919790 
1732.335 2937770 2909482 2817628 2663146 2469929 2277465 2121044 2016506 
1736.192 1961651 1942247 1940949 1941082 1930631 1903574 1860346 1807240 
1740.050 1753443 1707668 1674970 1656144 1649259 1650756 1657475 1667453 
1743.907 1680592 1698487 1723735 1758666 1804179 1859248 1920813 1984185 
1747.765 2044503 2097970 2141489 2172790 2189573 2189607 2171391 2136727 
1751.622 2091112 2043271 2002492 1976063 1965545 1967110 1971703 1968175 
1755.479 1946174 1900047 1831863 1750914 1670014 1600104 1546398 1507195 
1759.337 1475942 1443129 1400678 1343341 1270392 1185728 1096363 1011234 
1763.194 937943 881962 846172 830370 831598 843915 860149 873429 879571 
1767.534 879173 877745 882925 900190 930007 966634 999378 1016083 1008012 
1771.874 974836 925823 875554 837375 818552 818452 831797 852314 876849 
1776.213 905336 939968 982839 1033320 1087527 1139482 1182472 1212275 
1780.071 1228922 1236133 1239854 1244971 1253744 1265275 1276574 1284217 
1783.928 1286344 1283286 1277205 1271057 1267867 1269961 1279132 1296712 
1787.785 1323931 1361023 1406296 1455130 1500546 1533264 1544469 1527844 
1791.643 1482858 1414806 1333503 1250355 1173967 1108321 1054045 1009407 
1795.500 972212 940865 914201 891358 870773 850455 828478 803116 773108 
1799.840 738555 699923 658142 614574 570943 529241 492087 461935 440740 
1804.179 428999 425682 428767 435666 444986 456528 470957 489765 512819 
1808.519 538729 564407 586072 600439 606378 605183 599808 594035 591049 
1812.859 593272 601135 614773 634217 659669 690863 728067 769988 815099 
1817.198 861145 906399 949532 989813 1027209 1061685 1093440 1122971 1150711 
1821.538 1177123 1202008 1223473 1238625 1243642 1235368 1213770 1182771 
1825.395 1150711 1126559 1117988 1127389 1151608 1181807 1206859 1217459 
1829.253 1208089 1180678 1143036 1106295 1080020 1068859 1072812 1088490 
1833.110 1111976 1139914 1171176 1205896 1244739 1288005 1335331 1385720 
1836.968 1439040 1495891 1558236 1628672 1709930 1803813 1911228 2031686 
1840.825 2163532 2303846 2448070 2589542 2721424 2837404 2934868 3016938 
1844.682 3092383 3171412 3262340 3368614 3487473 3611843 3732372 3841268 
1848.540 3933006 4006068 4061450 4101820 4128479 4141626 4140054 4122358 
1852.397 4088174 4038975 3977276 3905489 3825256 3736750 3639341 3532867 
1856.255 3418972 3301000 3183361 3069824 2961922 2859250 2759169 2659179 
1860.112 2558178 2457167 2358678 2265974 2181348 2105994 2040375 1984950 
1863.969 1941182 1911162 1896752 1897517 1910397 1929533 1947139 1957124 
1867.827 1955826 1944177 1926937 1909465 1897085 1891527 1891760 1895254 
1871.684 1899115 1901444 1901245 1897850 1890995 1880212 1865837 1848467 
1875.542 1830166 1813196 1799089 1787643 1776964 1763057 1742398 1712791 
1879.399 1674438 1629902 1582778 1535625 1489374 1442796 1393365 1339685 
1883.257 1282323 1223905 1169049 1122041 1085733 1060788 1045576 1037837 
1887.114 1035313 1036143 1039000 1043052 1046473 1048299 1048632 1049229 
1890.971 1053348 1064408 1085003 1115264 1152405 1192140 1230384 1264776 
1894.829 1295981 1326524 1359361 1396423 1436912 1478270 1517769 1554046 
1898.686 1588265 1623051 1661233 1704608 1752478 1802150 1850263 1895121 
1902.544 1936855 1977561 2019136 2061981 2104197 2142354 2172989 2194435 
1906.401 2208123 2217281 2226007 2236265 2247855 2258413 2264841 2265374 
1910.259 2260944 2254150 2248088 2244791 2244025 2243825 2242792 2240361 
1914.116 2238030 2238196 2241926 2247488 2249820 2241593 2216915 2173988 
1917.973 2117182 2055921 2000096 1957024 1928069 1909132 1893258 1873856 
1921.831 1847901 1816224 1782886 1752311 1727561 1708466 1693298 1679793 
1925.688 1667220 1657142 1651521 1651854 1657442 1665158 1670779 1671245 
1929.546 1665524 1655147 1642774 1630667 1619759 1608750 1596080 1581115 
1933.403 1565153 1551552 1543671 1544004 1552350 1566250 1582578 1598740 
1937.260 1615236 1633794 1657242 1687011 1722172 1759897 1796327 1828868 
1941.118 1856187 1879181 1899015 1915655 1928202 1934858 1934891 1929733 
1944.975 1923675 1921679 1928734 1946940 1974632 2007286 2039709 2068206 
1948.833 2091378 2109857 2125173 2138359 2148781 2155874 2159437 2161601 
1952.690 2165430 2174621 2190106 2209521 2227172 2236298 2232334 2215483 
1956.548 2190173 2164365 2145784 2138958 2142920 2154142 2167561 2180982 
1960.405 2195601 2215749 2245523 2286658 2336624 2390328 2442605 2491157 
1964.262 2536514 2581842 2629642 2680415 2731727 2779177 2819728 2852913 
1968.120 2881263 2908381 2936335 2963924 2986844 3000890 3003692 2997954 
1971.977 2990513 2989746 3002324 3029583 3068490 3114808 3166305 3225619 
1975.835 3299698 3395529 3514628 3650868 3787118 3903282 3982158 4013994 
1979.692 3999112 3946046 3867778 3776756 3682713 3593000 3511889 3443352 
1983.550 3390252 3353488 3331483 3318195 3305741 3287278 3260738 3229058 
1987.407 3201218 3187400 3194976 3224851 3270987 3322569 3369282 3403911 
1991.264 3425083 3436906 3445589 3456377 3471975 3492583 3517368 3546029 
1995.122 3579636 3618826 3662730 3707274 3745874 3770807 3776890 3762451 
1998.979 3731136 3689764 3645923 3605929 3573489 3549803 3534571 3527990 
2002.837 3529894 3539782 3556318 3575427 3593367 3606998 3616520 3625207 
2006.694 3637871 3657685 3683214 3707308 3719706 3711752 3680574 3630887 
2010.552 3572954 3520240 3483264 3466798 3469135 3484700 3508148 3537009 
2014.409 3572153 3615485 3667174 3722714 3775118 3815362 3838594 3845948 
2018.266 3844110 3842706 3849759 3868413 3897131 3930698 3963867 3994865 
2022.124 4025130 4057604 4095231 4136140 4175714 4208066 4229111 4238680 
2025.981 4240989 4242059 4247078 4257752 4271504 4283484 4290511 4292385 
2029.839 4292418 4296100 4308080 4329229 4357174 4386828 4412902 4433924 
2033.696 4450795 4466328 4484271 4506869 4534223 4566099 4602130 4642349 
2037.553 4687831 4738108 4790401 4839618 4879457 4904858 4914039 4909046 
2041.411 4894939 4878318 4864077 4854729 4850641 4851043 4854461 4860626 
2045.268 4869807 4881568 4894838 4907907 4918798 4926740 4931667 4932806 
2049.126 4928315 4913068 4879927 4822832 4738443 4630494 4509849 4390476 
2052.983 4288570 4215159 4173339 4157984 4157784 4160560 4156914 4143901 
2056.841 4124098 4103192 4085532 4072822 4063658 4055196 4045363 4034260 
2060.698 4024427 4018575 4018341 4022755 4029210 4034694 4038774 4043390 
2064.555 4052186 4068440 4092455 4121455 4149855 4171365 4182807 4183944 
2068.413 4178190 4170161 4163002 4157549 4152063 4143399 4129283 4109748 
2072.270 4086535 4062253 4038741 4016168 3992892 3967512 3939592 3910571 
2076.128 3883423 3860958 3843876 3830805 3818471 3803228 3783107 3758741 
2079.985 3732639 3708210 3687859 3672220 3660124 3649766 3639976 3631188 
2083.843 3624907 3621632 3620964 3620196 3615384 3602922 3581440 3551941 
2087.700 3517702 3482562 3449063 3417569 3386679 3354489 3320231 3285008 
2091.557 3252125 3225719 3208729 3202987 3207928 3222314 3244046 3271921 
2095.415 3304439 3339163 3372454 3399736 3416434 3420274 3412527 3397799 
2099.272 3383273 3375025 3377129 3389752 3409989 3433433 3456477 3477552 
2103.130 3497793 3518771 3541519 3565839 3590260 3612310 3631021 3646692 
2106.987 3661260 3677333 3696514 3719004 3743835 3769737 3796243 3824086 
2110.844 3854506 3888405 3925416 3962931 3997507 4025765 4046032 4058708 
2114.702 4066500 4072454 4079410 4088609 4099813 4111888 4124900 4138983 
2118.559 4156044 4177588 4204486 4235802 4269765 4303193 4333145 4357777 
2122.417 4375749 4386092 4388435 4382577 4368286 4346833 4320227 4290377 
2126.274 4259258 4226869 4191706 4150324 4099747 4037571 3965205 3886031 
2130.132 3805100 3728228 3659857 3603022 3559592 3531430 3520708 3530028 
2133.989 3560761 3611208 3675194 3743835 3806136 3853035 3879579 3885429 
2137.846 3874832 3852667 3823719 3790661 3754898 3717300 3680440 3647527 
2141.704 3622467 3608201 3604492 3607500 3612310 3614549 3612478 3607800 
2145.561 3604626 3606865 3616220 3631121 3646825 3658186 3661661 3656549 
2149.419 3644486 3628047 3609771 3589926 3567977 3542421 3512457 3477886 
2153.276 3438142 3392223 3337627 3272422 3198848 3125154 3069124 3053507 
2157.134 3103629 3238404 3461053 3756034 4091753 4429338 4730337 4970576 
2160.991 5138085 5236133 5276781 5277687 5256389 5228822 5206455 5195825 
2164.848 5198172 5210513 5225067 5235429 5235127 5221780 5197535 5166250 
2168.706 5132452 5098658 5064832 5028361 4986362 4938068 4885087 4832715 
2172.563 4787520 4754723 4736702 4732447 4737003 4745411 4752278 4754121 
2176.421 4748727 4734792 4711713 4679592 4640005 4596404 4554782 4521969 
2180.278 4503990 4505262 4526556 4565195 4616429 4674434 4733653 4789497 
2184.135 4837373 4873861 4897016 4907270 4907538 4904858 4907035 4921044 
2187.993 4950903 4995010 5047367 5098758 5141773 5170844 5185497 5188481 
2191.850 5183820 5175337 5165244 5153810 5140835 5126954 5113510 5102044 
2195.708 5093595 5086924 5079146 5067078 5048373 5023701 4996686 4972118 
2199.565 4954724 4946278 4945306 4948591 4951942 4952813 4950534 4946178 
2203.423 4941620 4937230 4932035 4924361 4913135 4899027 4885087 4874699 
2207.280 4871282 4875470 4885891 4898759 4911526 4922887 4933543 4945675 
2211.137 4960589 4977380 4992965 5003222 5004495 4997323 4984921 4973124 
2214.995 4968130 4973660 4989211 5012171 5037378 5060206 5078677 5092757 
2218.852 5103351 5111733 5117701 5120048 5118170 5112068 5103150 5093662 
2222.710 5085617 5079146 5072810 5064162 5050753 5032450 5011199 4989714 
2226.567 4972018 4959651 4951976 4946580 4940280 4930628 4917123 4900434 
2230.425 4882406 4864044 4845917 4827757 4809698 4792981 4779748 4773483 
2234.282 4775761 4786817 4805075 4827087 4850038 4872153 4893364 4915246 
2238.139 4938336 4962801 4985993 5004562 5015825 5018472 5013780 5005300 
2241.997 4997390 4993703 4995647 5002618 5012339 5022160 5029735 5033557 
2245.854 5032651 5026551 5015221 4999333 4980933 4962667 4948524 4942324 
2249.712 4945977 4959718 4981369 5007545 5034696 5061145 5086086 5110593 
2253.569 5135168 5159846 5182982 5202397 5215643 5221244 5219131 5210378 
2257.427 5196395 5178724 5157968 5134933 5110727 5086924 5065972 5050350 
2261.284 5041803 5040528 5045825 5055915 5069223 5085080 5103552 5125143 
2265.141 5149988 5177214 5204912 5231371 5254914 5274970 5291840 5306397 
2268.999 5318740 5328501 5334774 5336652 5334170 5328635 5322061 5316660 
2272.856 5313944 5313273 5313273 5312032 5308007 5301433 5293484 5286038 
2276.714 5280671 5277821 5276881 5277183 5278022 5280269 5286038 5297508 
2280.571 5316124 5342019 5373585 5408039 5442697 5475344 5504772 5530276 
2284.428 5551821 5568266 5578368 5581691 5578100 5568803 5556654 5544539 
2288.286 5534974 5528867 5526081 5525175 5524806 5524370 5524168 5525276 
2292.143 5528699 5534907 5543364 5552929 5562628 5571991 5581355 5591626 
2296.001 5603944 5618846 5635999 5654360 5672420 5688937 5703272 5714955 
2299.858 5724087 5730734 5734663 5736006 5734864 5731608 5726974 5721535 
2303.716 5715929 5710087 5703507 5695785 5686620 5676180 5665169 5654696 
2307.573 5645901 5639591 5636368 5636502 5640530 5648116 5659630 5673998 
2311.430 5690347 5706898 5722073 5734327 5742989 5748294 5750947 5751887 
2315.288 5752189 5752390 5752894 5754371 5757259 5762665 5771395 5784456 
2319.145 5801951 5824181 5851014 5882181 5917111 5954094 5990206 6020207 
2323.003 6038013 6037543 6014227 5966993 5898738 5816357 5728082 5642544 
2326.860 5566756 5504537 5456822 5422197 5399048 5385360 5380227 5382811 
2330.718 5392271 5406664 5423338 5439610 5453601 5465144 5475646 5487424 
2334.575 5502692 5522356 5546284 5572831 5600721 5629084 5658388 5689575 
2338.432 5723315 5759442 5796310 5831301 5861626 5885438 5902232 5913080 
2342.290 5920000 5924534 5928196 5931622 5935283 5940355 5948652 5963298 
2346.147 5987485 6024373 6075578 6141036 6219245 6307351 6401123 6496800 
2350.005 6590008 6677482 6756797 6827105 6888874 6943749 6994120 7042004 
2353.862 7088816 7135329 7181376 7227596 7274529 7323590 7376262 7434267 
2357.719 7497908 7567156 7641204 7719109 7799930 7883363 7968500 8054227 
2361.577 8138486 8218743 8292395 8357784 8415109 8465989 8513123 8559181 
2365.434 8605953 8653712 8701171 8746235 8786096 8818827 8842666 8856835 
2369.292 8860893 8855313 8840806 8819469 8793873 8766959 8741772 8720946 
2373.149 8706242 8699548 8702658 8717532 8747012 8794008 8860758 8948352 
2377.007 9055757 9181055 9321184 9473515 9635994 9807955 9989073 10178812 
2380.864 10376067 10578605 10783480 10987194 11186856 11379705 11563520 
2384.239 11735736 11893651 12033941 12153287 12249558 12321715 12370498 
2387.615 12398078 12407625 12401965 12383658 12354543 12315580 12267725 
2390.990 12211388 12147154 12074992 11994802 11906386 11809443 11704998 
2394.365 11594453 11480873 11367665 11258429 11156497 11064070 10983184 
2397.740 10915326 10862324 10825975 10808107 10810043 10832158 10873333 
2401.115 10931567 11004356 11089019 11184136 11288660 11402291 11525683 
2404.491 11659320 11804029 11960469 12129402 12311353 12506271 12713388 
2407.866 12931118 13157529 13390755 13629476 13873527 14123431 14379987 
2411.241 14643171 14911899 15183195 15452772 15714787 15963897 16194165 
2414.616 16400812 16579984 16729029 16846780 16933552 16991264 17022792 
2417.992 17031716 17021930 16996294 16957154 16905752 16843232 16770111 
2421.367 16687432 16596232 16497720 16392864 16282873 16169025 16053349 
2424.742 15938496 15828414 15727945 15641274 15572753 15525567 15501255 
2428.117 15500843 15524365 15571414 15641445 15733477 15846627 15979333 
2431.493 16130028 16297150 16479583 16676381 16886944 17110532 17346410 
2434.868 17593870 17852554 18122654 18405158 18702030 19015028 19345434 
2438.243 19694018 20060612 20444532 20846142 21266318 21706898 22170552 
2441.618 22659314 23174802 23716588 24284068 24875062 25488154 26121570 
2444.994 26773776 27442744 28126104 28820598 29523368 30231290 30942504 
2448.369 31655882 32370434 33085052 33798556 34508432 35211920 35906044 
2451.744 36587292 37251952 37895688 38512968 39097844 39643504 40143804 
2455.119 40593120 40986716 41319552 41586900 41782752 41900452 41933696 
2458.495 41877280 41727560 41483788 41147184 40720256 40206136 39608804 
2461.870 38932664 38182780 37366084 36491020 35566252 34602072 33607384 
2465.245 32591138 31561624 30526122 29492656 28470028 27467520 26495288 
2468.620 25563598 24681212 23855642 23091804 22392030 21755978 21181354 
2471.996 20664506 20200026 19781986 19404194 19060552 18745756 18455390 
2475.371 18186118 17935560 17702088 17484024 17279722 17087546 16906166 
2478.746 16734056 16570896 16415816 16268495 16128033 15993426 15863432 
2482.121 15737427 15615272 15498027 15387096 15284224 15190332 15105929 
2485.497 15029981 14961625 14899177 14841778 14788741 14740098 14696328 
2488.872 14658113 14626379 14602083 14586766 14581592 14587828 14605853 
2492.247 14634707 14673159 14718504 14768447 14820899 14874420 14928291 
2495.622 14982408 15036806 15091452 15145967 15200078 15253096 15304336 
2498.998 15353077 15398562 15439829 15476429 15508569 15537449 15565163 
2502.373 15594115 15626539 15663739 15705340 15749659 15794395 15837418 
2505.748 15877042 15913198 15946710 15978886 16010650 16042382 16073532 
2509.123 16102690 16128343 16148528 16161459 16165379 16158707 16140517 
2512.499 16109603 16066622 16012507 15949324 15879137 15803672 15724132 
2515.874 15641034 15554517 15464962 15373399 15281547 15191293 15104694 
2519.249 15022984 14946638 14875621 14809585 14748668 14693654 14645364 
2522.624 14605064 14573197 14549692 14533658 14524133 14519987 14520329 
2526.000 14524509 14531978 14541948 14553666 14566550 14580496 14596155 
2529.375 14615070 14639094 14669560 14707399 14752232 14803208 14858441 
2532.750 14916666 14976715 15038145 15100715 15164427 15228971 15294418 
2536.125 15360595 15427710 15496379 15567155 15640518 15716642 15795082 
2539.500 15875461 15956953 16039699 16123218 16208198 16294191 16381063 
2542.876 16468054 16554270 16638715 16720869 16800522 16878056 16953880 
2546.251 17028444 17102158 17175194 17247760 17320098 17392450 17464706 
2549.626 17536702 17607636 17676756 17743436 17806950 17866986 17923092 
2553.001 17975238 18022586 18065000 18101996 18133778 18161140 18185430 
2556.377 18207888 18229172 18249318 18267356 18281594 18290614 18293274 
2559.752 18289232 18278692 18261828 18238674 18208820 18171366 18125590 
2563.127 18071702 18010394 17943364 17872924 17801322 17730494 17662262 
2566.502 17597562 17537666 17483402 17435734 17395208 17361894 17335168 
2569.878 17314272 17298376 17287204 17280860 17279928 17285170 17297308 
2573.253 17316272 17341788 17373308 17410280 17452530 17499650 17551260 
2576.628 17606360 17663780 17722106 17779990 17836916 17892880 17948472 
2580.003 18004488 18061340 18119442 18178898 18240022 18303540 18370902 
2583.379 18443290 18521634 18606116 18695596 18788070 18881808 18975220 
2586.754 19067096 19157604 19246712 19334384 19420168 19503436 19583188 
2590.129 19659002 19730770 19798842 19863662 19925612 19984520 20040346 
2593.504 20093162 20143968 20194056 20245604 20300424 20359624 20423278 
2596.880 20490520 20560376 20631982 20705130 20780966 20860880 20946618 
2600.255 21039258 21139468 21246730 21360700 21480548 21605860 21736332 
2603.630 21871372 22010742 22153850 22300182 22449668 22602208 22758466 
2607.005 22918694 23082928 23250546 23420222 23589754 23757182 23919844 
2610.381 24075422 24221912 24357062 24478930 24585934 24676478 24749748 
2613.756 24805490 24843834 24865306 24870570 24860640 24836714 24800472 
2617.131 24753992 24699730 24640216 24577940 24514548 24450958 24387482 
2620.506 24324014 24260312 24196478 24133074 24071114 24011966 23957132 
2623.882 23907836 23865128 23829842 23802506 23783430 23772652 23770132 
2627.257 23775592 23789032 23810172 23838942 23875348 23918970 23969702 
2630.632 24026988 24090238 24158890 24232668 24311294 24394702 24482998 
2634.007 24576186 24673918 24775742 24881096 24989216 25099642 25211432 
2637.383 25324166 25436962 25549506 25661446 25772994 25884642 25997336 
2640.758 26111294 26226900 26343594 26459824 26574360 26685754 26793162 
2644.133 26896750 26997088 27095718 27193630 27291988 27391428 27492266 
2647.508 27594788 27699664 27807602 27919492 28035862 28157002 28282702 
2650.884 28412860 28546630 28683874 28824600 28969652 29119364 29275008 
2654.259 29437090 29606080 29782018 29964702 30153822 30348672 30548588 
2657.634 30753182 30961930 31174660 31391304 31611654 31835504 32061860 
2661.009 32289762 32517962 32745280 32970644 33194054 33415716 33636164 
2664.385 33856512 34077296 34299012 34521992 34746164 34971456 35197836 
2667.760 35425340 35654224 35884848 36117752 36354024 36594892 36841456 
2671.135 37094508 37353880 37618864 37887444 38157168 38425756 38691068 
2674.510 38951364 39205864 39453656 39694036 39926020 40148856 40362204 
2677.885 40566456 40762944 40954204 41143288 41333368 41527540 41728508 
2681.261 41939060 42161396 42398464 42652688 42926340 43221064 43537304 
2684.636 43874776 44232436 44608672 45002504 45412224 45837020 46275500 
2688.011 46725860 47186848 47656460 48133580 48617812 49109124 49608192 
2691.386 50115944 50633448 51161116 51699756 52250056 52812544 53387748 
2694.762 53975980 54576548 55188220 55809156 56437696 57072248 57711592 
2698.137 58355288 59003012 59654404 60308904 60965612 61623620 62282440 
2701.512 62941148 63599208 64255304 64907236 65552212 66186264 66805096 
2704.887 67404640 67980832 68529784 69047920 69531096 69974992 70375496 
2708.263 70728992 71032360 71283616 71481656 71626016 71716832 71754512 
2711.638 71740360 71676112 71564200 71407248 71207488 70966184 70683488 
2715.013 70358160 69988688 69573760 69113296 68608360 68061480 67476200 
2718.388 66856532 66206760 65531372 64834832 64121940 63397556 62667528 
2721.764 61937200 61212368 60498764 59801384 59125324 58474836 57853792 
2725.139 57264476 56709000 56188132 55702652 55253240 54840492 54465508 
2728.514 54129352 53832760 53575728 53357660 53177448 53033596 52924552 
2731.889 52849736 52808688 52801204 52827024 52885512 52975120 53094244 
2735.265 53240184 53410792 53603244 53814680 54042136 54282020 54530112 
2738.640 54782452 55034520 55282556 55523128 55753136 55970220 56172408 
2742.015 56358352 56527696 56680948 56819940 56946624 57063636 57173228 
2745.390 57277216 57376808 57473248 57567960 57662816 57760260 57862156 
2748.766 57969984 58084692 58205608 58332016 58462860 58598172 58738652 
2752.141 58886464 59044384 59215920 59405072 59615324 59850592 60113648 
2755.516 60407100 60732220 61088820 61475564 61889628 62327376 62784864 
2758.891 63257708 63741580 64231524 64721556 65205180 65674648 66122100 
2762.267 66540116 66922008 67261792 67555424 67799408 67991448 68129968 
2765.642 68214584 68246848 68229168 68165936 68061904 67922368 67753056 
2769.017 67559032 67345744 67118536 66882812 66644168 66407396 66176312 
2772.392 65954068 65742420 65542856 65356016 65182848 65023600 64878272 
2775.768 64745940 64624728 64511164 64401200 64289920 64171404 64039604 
2779.143 63888452 63711152 63502356 63257904 62975428 62655508 62301064 
2782.518 61917404 61510416 61086916 60653268 60215072 59777924 59346872 
2785.893 58926576 58521012 58133176 57764384 57414396 57081392 56763336 
2789.269 56457920 56164112 55881692 55611772 55355604 55114332 54889212 
2792.644 54680032 54486280 54306684 54139520 53982248 53831560 53683848 
2796.019 53534836 53380140 53216736 53041864 52854228 52653056 52438108 
2799.394 52209140 51965316 51705392 51428428 51133380 50819680 50487524 
2802.770 50137624 49771284 49389880 48995388 48590356 48177484 47759936 
2806.145 47341236 46924824 46513788 46111324 45720384 45343916 44985084 
2809.520 44646712 44331648 44042512 43780396 43546460 43340548 43161996 
2812.895 43009856 42882888 42780060 42699884 42640808 42601372 42579920 
2816.271 42575276 42586752 42614456 42659016 42721820 42804156 42907324 
2819.646 43032756 43181208 43353508 43549684 43769624 44012372 44276536 
2823.021 44560096 44860924 45176452 45503908 45841104 46184872 46531824 
2826.396 46878056 47218432 47548024 47861436 48153236 48418708 48653688 
2829.771 48854800 49019236 49145188 49231684 49279004 49288728 49262896 
2833.147 49204780 49118100 49006812 48875116 48727636 48568604 48402448 
2836.522 48232724 48062288 47892884 47725392 47559368 47394520 47230436 
2839.897 47067080 46905000 46745272 46588844 46437232 46291608 46153624 
2843.272 46025332 45909012 45807192 45722076 45655484 45608120 45579228 
2846.648 45566864 45567564 45576984 45589568 45599396 45599984 45584824 
2850.023 45548504 45486832 45398096 45282936 45144832 44989240 44822864 
2853.398 44653504 44488288 44334396 44197656 44082524 43992352 43928444 
2856.773 43890432 43875952 43881192 43901280 43930756 43964192 43996752 
2860.149 44024176 44042624 44049848 44043540 44023188 43988940 43942524 
2863.524 43886508 43824268 43759768 43696408 43637968 43587412 43547560 
2866.899 43520712 43508516 43511888 43531224 43565728 43614232 43674900 
2870.274 43746024 43825956 43913268 44007056 44106288 44209508 44316308 
2873.650 44425740 44538360 44655232 44779116 44913468 45061940 45228404 
2877.025 45415500 45624568 45855872 46107972 46378496 46664136 46961556 
2880.400 47267640 47579296 47894032 48210248 48526404 48841116 49153088 
2883.775 49460796 49762180 50055592 50339124 50611520 50871792 51119364 
2887.151 51353504 51573920 51780344 51972596 52151188 52317740 52474224 
2890.526 52623692 52769624 52915680 53065600 53223592 53393664 53580640 
2893.901 53788840 54022620 54285172 54578128 54900648 55248948 55616328 
2897.276 55992460 56363180 56712776 57023316 57276576 57457588 57555328 
2900.652 57565392 57490152 57339036 57126100 56867528 56580348 56279248 
2904.027 55975760 55678924 55394788 55127652 54880832 54656620 54456940 
2907.402 54282548 54134192 54011704 53914904 53843224 53796340 53773352 
2910.777 53772752 53792252 53828708 53878520 53937228 54000108 54062472 
2914.153 54118992 54164220 54192780 54199464 54179756 54130812 54051516 
2917.528 53942368 53806056 53645980 53466288 53271460 53065828 52853256 
2920.903 52637680 52422144 52209512 52001280 51798112 51599672 51404372 
2924.278 51209948 51014044 50813908 50607536 50393372 50170464 49938744 
2927.654 49699280 49454076 49206676 48961448 48724224 48501096 48298336 
2931.029 48121844 47976392 47865100 47789968 47750948 47747288 47777136 
2934.404 47838684 47930472 48051332 48200472 48377036 48579756 48806376 
2937.779 49053476 49316828 49591888 49874036 50159716 50446552 50732716 
2941.155 51017284 51298648 51574072 51839404 52088424 52312320 52501220 
2944.530 52644076 52729332 52747364 52691396 52558732 52351976 52079644 
2947.905 51755000 51394340 51015384 50634900 50265648 49916408 49590960 
2951.280 49288840 49006588 48738980 48481164 48228392 47977872 47727352 
2954.656 47475680 47221796 46965024 46704428 46439372 46169872 45896456 
2958.031 45620704 45344836 45071200 44801960 44538616 44282220 44032760 
2961.406 43789928 43553456 43323448 43100776 42887060 42684240 42494988 
2964.781 42321352 42165380 42028404 41911288 41814344 41736716 41677556 
2968.156 41634524 41604476 41583252 41565820 41546388 41519700 41480476 
2971.532 41425576 41353336 41264316 41161064 41048116 40931048 40815864 
2974.907 40707844 40610768 40525496 40449224 40374968 40292252 40187704 
2978.282 40046340 39854828 39602452 39282824 38895840 38446572 37945368 
2981.657 37405412 36842248 36272212 35710084 35169668 34662752 34198336 
2985.033 33783480 33423052 33120204 32877178 32695726 32576960 32520424 
2988.408 32522462 32574244 32658860 32752604 32825320 32842726 32774936 
2991.783 32599140 32305182 31898118 31397146 30832856 30238998 29649890 
2995.158 29093924 28589200 28145654 27764334 27440804 27167034 26934048 
2998.534 26733358 26556994 26398798 26253826 26118298 25989880 25867340 
3001.909 25750000 25637722 25530178 25427054 25327606 25231520 25138788 
3005.284 25049622 24964860 24885342 24811980 24745012 24684474 24630010 
3008.659 24581130 24537514 24498914 24465226 24436026 24410894 24389376 
3012.035 24370870 24355274 24342554 24332952 24327028 24325206 24327904 
3015.410 24335648 24349178 24369188 24396524 24432136 24476056 24527312 
3018.785 24584144 24643584 24702010 24756028 24802508 24839028 24863904 
3022.160 24876044 24874816 24860114 24832326 24792894 24744100 24688824 
3025.536 24631028 24574538 24522894 24478686 24443456 24417520 24400030 
3028.911 24389164 24382574 24377354 24370940 24361058 24346442 24326714 
3032.286 24302254 24274188 24243704 24211928 24179664 24147470 24115840 
3035.661 24085650 24057912 24033994 24015118 24002722 23997504 23999920 
3039.037 24010180 24028250 24053920 24087016 24126700 24172342 24222508 
3042.412 24275870 24331654 24389200 24448154 24508204 24568648 24628222 
3045.787 24685002 24737084 24783178 24823030 24858116 24890220 24922012 
3049.162 24955278 24990760 25027718 25064540 25099082 25129730 25155218 
3052.538 25175090 25189030 25196650 25197318 25190470 25176392 25155604 
3055.913 25130116 25102486 25075350 25051130 25030842 25015046 25003290 
3059.288 24995042 24989708 24986830 24986162 24987074 24988514 24989356 
3062.663 24988338 24985286 24980546 24975634 24972300 24972616 24977774 
3066.039 24988302 25003746 25023436 25046252 25071594 25099046 25128290 
3069.414 25159326 25192332 25227164 25263616 25301616 25340954 25381594 
3072.789 25423330 25466158 25510220 25555762 25603240 25653046 25705352 
3076.164 25760056 25816666 25874162 25931666 25988192 26043564 26097888 
3079.540 26151726 26205678 26259986 26314830 26369434 26423272 26475494 
3082.915 26525682 26573128 26617864 26659788 26698896 26735506 26770324 
3086.290 26804438 26839224 26875988 26915540 26958092 27003150 27049660 
3089.665 27096494 27142944 27188868 27235082 27282322 27331826 27384016 
3093.041 27439214 27496784 27555774 27615478 27675084 27734344 27793440 
3096.416 27852858 27913310 27975500 28039752 28106026 28173654 28241542 
3099.791 28308306 28372890 28434792 28494086 28552150 28610434 28670354 
3103.166 28732902 28797866 28864576 28931720 28998166 29063206 29127088 
3106.542 29190586 29254768 29320200 29387380 29455918 29525282 29594870 
3109.917 29664292 29733334 29802102 29870850 29939426 30007946 30076438 
3113.292 30144658 30212854 30281416 30350768 30421058 30492744 30565616 
3116.667 30639884 30715022 30791026 30867328 30943250 31018046 31090900 
3120.042 31161452 31229772 31296678 31363628 31432230 31503656 31578406 
3123.418 31656132 31735364 31814114 31890414 31962666 32030470 32094288 
3126.793 32155688 32216742 32279306 32345086 32414700 32487716 32563030 
3130.168 32639180 32714304 32787442 32858234 32927286 32995776 33064920 
3133.543 33135794 33208896 33284192 33361360 33439942 33519502 33599720 
3136.919 33680452 33761204 33841540 33920600 33997920 34073244 34146504 
3140.294 34218596 34290300 34362412 34435720 34510836 34587864 34667420 
3143.669 34749860 34835944 34925992 35019580 35116028 35213860 35311356 
3147.044 35407400 35501272 35593116 35683756 35774232 35865124 35956972 
3150.420 36049376 36142416 36235368 36328408 36421436 36514700 36608016 
3153.795 36701248 36794028 36886216 36977812 37069248 37161092 37253576 
3157.170 37347056 37441092 37535368 37629668 37723912 37818940 37915536 
3160.545 38014872 38117736 38224824 38335992 38451352 38570144 38692044 
3163.921 38816340 38942120 39068116 39193244 39316228 39436424 39553416 
3167.296 39667392 39778384 39887044 39993040 40096016 40195592 40291380 
3170.671 40383296 40471336 40555724 40636124 40712136 40782852 40847168 
3174.046 40904504 40954712 40998300 41036168 41069348 41098924 41126132 
3177.422 41152140 41178588 41207328 41240012 41277980 41321304 41369224 
3180.797 41419928 41470992 41520724 41567644 41611732 41653888 41695352 
3184.172 41737336 41780856 41826532 41874656 41925668 41979864 42037716 
3187.547 42099116 42163884 42230996 42299436 42368068 42436460 42504160 
3190.923 42571476 42638872 42706792 42775600 42845808 42917928 42992256 
3194.298 43069012 43148196 43228860 43309980 43389720 43466804 43540528 
3197.673 43610936 43678344 43744008 43808288 43871408 43932920 43993012 
3201.048 44051828 44110356 44169964 44232580 44298988 44369480 44443248 
3204.424 44519348 44596520 44674256 44752740 44832120 44912328 44992692 
3207.799 45071752 45147960 45219984 45287760 45352008 45414580 45477120 
3211.174 45541032 45606428 45673268 45740852 45809072 45878192 45949344 
3214.549 46023380 46101336 46182844 46267132 46352432 46437120 46519576 
3217.925 46599064 46675280 46748408 46818928 46887652 46955648 47024208 
3221.300 47094628 47168380 47246284 47328268 47414036 47502368 47592088 
3224.675 47681900 47770660 47857516 47941648 48022464 48099784 48173556 
3228.050 48244904 48315672 48387852 48463568 48544112 48629600 48719368 
3231.426 48812196 48906748 49002248 49098552 49196024 49295148 49395448 
3234.801 49496184 49595864 49693372 49787968 49879984 49970604 50061580 
3238.176 50154804 50251920 50353412 50459424 50569376 50682040 50795884 
3241.551 50909308 51020232 51127752 51231012 51330680 51428208 51526352 
3244.927 51627504 51733608 51845528 51963448 52085660 52210932 52337364 
3248.302 52463716 52589396 52713692 52836680 52957936 53077772 53196476 
3251.677 53314800 53433800 53554060 53676196 53799792 53924020 54047460 
3255.052 54168908 54287428 54402632 54514488 54623556 54729904 54834096 
3258.427 54936288 55036812 55136076 55234652 55332608 55429756 55525236 
3261.803 55617872 55706232 55789188 55866168 55937280 56002936 56063820 
3265.178 56120372 56173276 56222788 56269672 56314556 56358276 56401588 
3268.553 56444752 56487620 56529584 56570004 56607976 56643008 56674720 
3271.928 56702696 56726636 56745928 56760316 56769564 56773908 56774284 
3275.304 56771908 56767712 56762880 56757936 56753252 56749400 56746872 
3278.679 56746604 56748988 56753896 56760316 56766544 56770508 56770696 
3282.054 56766884 56759896 56751856 56745248 56742000 56742944 56747516 
3285.429 56753780 56760164 56764544 56766240 56764996 56761368 56756044 
3288.805 56749436 56742152 56734524 56727084 56720440 56715116 56711416 
3292.180 56709716 56709644 56711076 56713532 56717232 56722328 56728864 
3295.555 56736752 56745812 56755028 56763600 56770772 56776324 56780328 
3298.930 56783196 56784972 56786068 56786256 56785500 56783688 56781196 
3302.306 56778856 56777344 56777460 56780064 56785048 56792560 56802420 
3305.681 56814996 56830404 56849360 56872284 56899520 56930796 56965628 
3309.056 57003256 57043044 57084228 57126140 57168656 57211708 57255744 
3312.431 57301604 57350492 57403584 57461788 57525520 57594520 57667696 
3315.807 57743948 57821840 57900736 57980284 58060720 58142384 58225464 
3319.182 58309660 58394360 58478892 58562760 58645992 58728944 58812176 
3322.557 58896408 58981868 59068412 59155204 59241360 59325448 59406136 
3325.932 59482240 59552808 59617268 59675500 59727848 59774768 59816596 
3329.308 59853520 59885200 59910644 59928940 59938944 59940084 59932476 
3332.683 59916352 59892312 59860596 59821160 59773776 59718156 59654592 
3336.058 59584008 59507472 59426612 59341708 59253212 59159948 59060936 
3339.433 58954888 58841348 58720448 58593168 58460736 58324400 58184924 
3342.809 58042352 57896452 57746448 57591796 57432552 57268712 57101156 
3346.184 56931100 56759896 56588876 56419284 56251228 56084516 55918056 
3349.559 55750380 55580252 55406908 55230512 55052380 54874064 54697660 
3352.934 54524632 54355880 54191544 54031328 53874880 53721676 53571228 
3356.310 53423568 53278316 53135584 52995408 52858384 52725064 52596392 
3359.685 52472612 52353360 52237800 52124400 52011436 51898212 51784564 
3363.060 51671652 51561124 51454092 51351376 51252116 51155000 51058428 
3366.435 50961356 50864120 50767984 50674592 50585236 50500516 50419456 
3369.811 50339604 50258468 50173664 50083780 49988560 49888496 49785144 
3373.186 49679812 49573020 49465212 49356324 49245456 49132312 49016344 
3376.561 48897216 48774972 48649912 48522180 48391704 48258976 48123288 
3379.936 47984352 47841644 47694880 47543808 47388828 47229920 47067596 
3383.312 46901716 46732428 46559632 46384068 46206428 46028316 45851456 
3386.687 45677316 45506812 45340348 45177664 45017980 44860888 44705912 
3390.062 44552864 44401888 44252468 44104384 43956788 43809572 43662628 
3393.437 43516936 43373132 43232192 43094040 42958236 42823244 42687780 
3396.813 42550464 42411356 42270620 42129488 41988440 41847912 41707536 
3400.188 41566624 41424592 41282020 41139100 40997096 40856304 40716324 
3403.563 40575548 40432172 40284180 40130608 39971752 39809032 39644304 
3406.938 39479564 39316084 39154480 38994672 38836812 38680708 38526584 
3410.313 38374504 38224208 38074584 37924540 37772632 37618212 37461644 
3413.689 37303760 37146440 36991304 36839436 36691476 36546776 36404680 
3417.064 36264040 36123764 35983104 35841268 35698000 35553160 35407224 
3420.439 35261044 35115992 34973288 34834364 34699288 34567736 34438592 
3423.814 34309912 34180128 34047836 33912252 33773272 33631152 33487074 
3427.190 33342078 33197772 33055410 32916348 32780726 32648574 32518890 
3430.565 32390244 32260996 32130572 31998652 31866062 31734224 31604954 
3433.940 31479430 31358320 31241698 31128702 31018260 30909448 30800806 
3437.315 30691552 30581258 30469180 30354782 30238038 30118662 29996654 
3440.691 29871912 29744972 29616580 29487940 29360544 29235912 29114862 
3444.066 28997034 28880616 28762994 28640908 28512060 28375824 28234186 
3447.441 28090366 27948786 27812654 27683702 27560682 27441648 27323746 
3450.816 27204918 27084644 26964050 26844264 26726556 26610536 26494652 
3454.192 26376548 26254072 26126566 25995016 25861748 25729328 25600220 
3457.567 25475468 25355040 25237768 25122040 25006554 24890256 24772338 
3460.942 24652876 24531834 24410194 24288868 24169538 24053464 23941692 
3464.317 23833974 23729080 23625054 23519722 23411446 23299662 23185182 
3467.693 23069230 22952470 22835638 22718454 22600392 22481072 22361016 
3471.068 22241030 22122542 22006278 21892210 21779564 21666842 21553210 
3474.443 21438738 21324192 21211936 21103744 21000690 20902392 20807904 
3477.818 20715034 20621698 20526402 20428244 20326706 20221408 20112388 
3481.194 20000062 19885270 19769676 19655672 19545788 19441754 19344638 
3484.569 19253640 19167646 19084650 19003224 18921884 18840108 18757104 
3487.944 18672698 18585852 18496636 18404710 18311178 18217286 18124898 
3491.319 18035296 17948922 17865224 17783580 17702916 17622854 17543706 
3494.695 17466328 17391242 17318960 17248760 17179606 17110844 17042090 
3498.070 16973622 16906200 16840372 16775794 16711846 16646668 16578916 
3501.445 16507633 16432883 16355807 16278367 16203005 16131748 16066622 
3504.820 16008897 15959395 15918285 15884053 15854634 15826592 15796181 
3508.196 15760619 15718566 15671056 15621214 15573164 15530650 15495727 
3511.571 15468498 15446798 15428533 15410990 15392967 15373846 15353936 
3514.946 15333168 15311030 15286420 15258931 15227942 15194587 15160344 
3518.321 15126994 15095431 15065380 15034783 15000826 14960493 14911419 
3521.697 14852338 14783085 14704074 14616921 14522386 14421842 14316287 
3525.072 14206651 14093550 13977399 13858235 13735752 13609919 13480841 
3528.447 13348897 13215114 13079803 12943645 12806234 12667364 12526766 
3531.822 12384884 12242503 12101021 11961355 11824084 11688728 11554707 
3535.198 11421000 11287980 11156565 11028825 10906560 10790817 10681421 
3538.573 10577247 10476459 10377831 10280957 10186817 10096598 10011349 
3541.948 9930454 9852151 9773490 9691183 9601949 9504738 9399086 9285978 
3545.805 9166706 9043476 8918758 8795124 8675717 8563000 8458116 8361094 
3549.663 8269768 8180824 8090413 7996039 7897197 7795882 7695804 7601110 
3553.520 7515068 7438750 7370971 7308999 7249495 7189696 7127784 7062950 
3557.378 6995062 6924559 6851811 6777730 6703291 6629941 6559430 6493706 
3561.235 6434112 6381924 6337978 6301971 6273397 6250371 6229328 6205061 
3565.093 6170980 6119798 6045203 5944588 5820655 5680846 5535746 5396263 
3568.950 5270912 5163500 5074219 5000104 4937297 4881367 4829231 4778441 
3572.807 4727590 4675741 4622892 4569147 4515005 4461239 4408484 4356472 
3576.665 4304599 4251562 4196089 4137177 4075430 4012054 3949657 3890812 
3580.522 3837558 3791195 3752191 3720341 3695445 3677099 3664635 3656281 
3584.380 3649465 3639708 3621398 3588957 3538245 3467866 3380401 3282170 
3588.237 3181825 3087978 3006928 2941940 2893038 2856982 2829033 2803821 
3592.094 2775909 2740630 2695651 2640577 2577443 2509619 2441139 2375469 
3595.952 2314405 2258580 2206691 2157272 2108492 2059117 2008085 1955393 
3599.809 1901344 1846836 1793366 1742863 1697489 1659603 1630501 1610979 
3603.667 1600536 1597909 1600669 1605757 1609416 1607187 1594916 1568811 
3607.524 1527145 1470756 1403670 1332838 1265142 1206361 1158551 1120314 
3611.382 1086564 1051920 1011832 965305 914733 865793 824262 794983 778352 
3615.721 771681 768561 761856 743600 707955 651837 575853 484623 385387 
3620.061 287400 198684 124668 67996 28065 2319 -12126 -17660 -14446 -927 
3624.883 24553 62992 111311 162420 203192 217480 190164 112968 -8912 -156993 
3629.704 -304991 -430826 -524294 -586010 -625219 -652713 -678551 -707729 
3633.562 -741271 -776365 -808645 -835002 -854679 -868832 -881100 -894459 
3637.419 -911322 -932483 -957775 -985711 -1015000 -1044387 -1072747 -1098593 
3641.277 -1120240 -1135674 -1142911 -1140036 -1126189 -1101567 -1067326 
3644.652 -1025843 -980752 -936219 -897832 -871444 -862946 -877066 -916844 
3648.509 -982703 -1071689 -1177245 -1290308 -1399511 -1492968 -1562207 
3651.885 -1602219 -1613377 -1600998 -1574422 -1544873 -1524238 -1522686 
3655.260 -1545270 -1590764 -1650612 -1712432 -1764509 -1799289 -1815985 
3658.635 -1818658 -1814170 -1809188 -1809320 -1816843 -1832318 -1853731 
3662.010 -1878970 -1904702 -1927991 -1945837 -1955535 -1954380 -1940922 
3665.385 -1914302 -1875901 -1827996 -1775003 -1722696 -1677579 -1645826 
3668.761 -1632028 -1636682 -1654078 -1671407 -1674014 -1647773 -1585944 
3672.136 -1489039 -1366185 -1232195 -1105368 -1006835 -955957 -963958 
3675.511 -1029181 -1136467 -1265002 -1397034 -1524436 -1646783 -1767479 
3678.886 -1887646 -2005109 -2113835 -2206348 -2277351 -2325867 -2354604 
3682.262 -2369170 -2374640 -2373454 -2365380 -2348343 -2320528 -2282724 
3685.637 -2238884 -2195106 -2159402 -2138861 -2137212 -2154819 -2188315 
3689.012 -2232555 -2282559 -2335259 -2388909 -2442025 -2492169 -2535917 
3692.387 -2569680 -2591321 -2600411 -2599588 -2592539 -2583745 -2576268 
3695.763 -2571492 -2568363 -2564871 -2558152 -2546491 -2529856 -2509728 
3699.138 -2490061 -2474939 -2468646 -2474280 -2492696 -2521522 -2556307 
3702.513 -2590333 -2618163 -2634828 -2638813 -2630151 -2610753 -2582724 
3705.888 -2548501 -2509102 -2465615 -2418367 -2368874 -2319802 -2275308 
3709.264 -2240961 -2222303 -2223820 -2247554 -2291623 -2351012 -2417642 
3712.639 -2482549 -2537893 -2578804 -2603244 -2612037 -2607986 -2595273 
3716.014 -2577981 -2560062 -2544053 -2531569 -2522148 -2514768 -2507784 
3719.389 -2500273 -2491905 -2483175 -2475071 -2467625 -2460475 -2452535 
3722.765 -2442552 -2430361 -2416753 -2404726 -2397773 -2399454 -2411151 
3726.140 -2431745 -2456719 -2479551 -2493553 -2494047 -2479452 -2451975 
3729.515 -2415995 -2377277 -2340466 -2308366 -2281076 -2256256 -2231171 
3732.890 -2205095 -2180633 -2164677 -2165798 -2191051 -2242345 -2314694 
3736.266 -2396488 -2472468 -2530745 -2564509 -2572876 -2558745 -2525573 
3739.641 -2475565 -2409800 -2329162 -2236412 -2138235 -2046433 -1977799 
3743.016 -1949499 -1974138 -2049928 -2157357 -2262189 -2333051 -2354670 
3746.391 -2329525 -2272077 -2200612 -2133487 -2084026 -2059887 -2063383 
3749.767 -2091611 -2139487 -2201502 -2273264 -2350386 -2426012 -2492136 
3753.142 -2540397 -2565365 -2566749 -2548435 -2517766 -2482286 -2448483 
3756.517 -2420147 -2398827 -2384592 -2377837 -2379649 -2392006 -2415303 
3759.892 -2447132 -2481100 -2508740 -2522378 -2517602 -2496188 -2464594 
3763.268 -2432404 -2408581 -2398794 -2403210 -2417082 -2431909 -2440015 
3766.643 -2438071 -2427989 -2415665 -2408581 -2412898 -2431448 -2462254 
3770.018 -2499318 -2535258 -2563883 -2581736 -2589213 -2588784 -2584667 
3773.393 -2579825 -2576499 -2575082 -2574160 -2571130 -2563554 -2550147 
3776.769 -2531668 -2511112 -2492861 -2481726 -2480704 -2489665 -2505149 
3780.144 -2521456 -2533150 -2536741 -2532524 -2523564 -2514768 -2510255 
3783.519 -2512462 -2520698 -2532623 -2544317 -2552618 -2556044 -2555319 
3786.894 -2552190 -2548599 -2545602 -2543559 -2542110 -2540628 -2538618 
3790.270 -2536082 -2532491 -2526825 -2517700 -2503699 -2484361 -2460508 
3793.645 -2435040 -2412238 -2395862 -2387920 -2387657 -2390392 -2388942 
3797.020 -2376848 -2350287 -2310014 -2261497 -2213864 -2178425 -2164875 
3800.395 -2179974 -2222732 -2283647 -2346530 -2394115 -2415105 -2407131 
3803.771 -2375563 -2331535 -2288656 -2259750 -2254080 -2275308 -2319440 
3807.146 -2375728 -2429471 -2469634 -2490752 -2493718 -2482714 -2463144 
3810.521 -2438071 -2408317 -2372795 -2329492 -2279065 -2224512 -2172853 
3813.896 -2132431 -2112055 -2116770 -2144631 -2185051 -2222270 -2241093 
3817.271 -2232621 -2196854 -2142554 -2083894 -2036275 -2014673 -2029317 
3820.647 -2081718 -2162699 -2254410 -2337039 -2396257 -2426967 -2431909 
3824.022 -2419389 -2398959 -2378397 -2363008 -2354209 -2349925 -2346102 
3827.397 -2338291 -2323625 -2301774 -2274549 -2244982 -2216732 -2192502 
3830.772 -2173479 -2159402 -2148456 -2137476 -2123562 -2104405 -2079080 
3834.148 -2048345 -2014772 -1982978 -1957943 -1944914 -1947618 -1967476 
3837.523 -2001712 -2044916 -2090160 -2130816 -2162699 -2184919 -2198766 
3840.898 -2207337 -2214326 -2222468 -2234401 -2251146 -2272407 -2296369 
3844.273 -2320363 -2340466 -2352957 -2354670 -2344157 -2320692 -2285130 
3847.649 -2238324 -2181161 -2113373 -2035286 -1947618 -1853665 -1760879 
3851.024 -1680880 -1629189 -1623016 -1675268 -1786321 -1938349 -2100942 
3854.399 -2241785 -2340664 -2393885 -2409767 -2400936 -2378760 -2351572 
3857.774 -2323461 -2295545 -2267693 -2238983 -2209578 -2179776 -2150434 
3861.150 -2122276 -2096161 -2073441 -2056062 -2047455 -2049566 -2063581 
3864.525 -2086104 -2110076 -2125771 -2124947 -2103778 -2064471 -2016289 
3867.900 -1971664 -1944089 -1943660 -1972225 -2021632 -2075947 -2119474 
3871.275 -2142191 -2144070 -2132431 -2119078 -2114791 -2125211 -2149511 
3874.651 -2180469 -2207535 -2220556 -2214062 -2188051 -2147466 -2099656 
3878.026 -2053688 -2017872 -1998150 -1996863 -2011837 -2037265 -2063416 
3881.401 -2081355 -2084653 -2071100 -2044355 -2011738 -1983769 -1971203 
3884.776 -1980471 -2012200 -2058272 -2105262 -2138300 -2147203 -2130552 
3888.152 -2093325 -2045872 -2000524 -1968729 -1957877 -1970015 -2000656 
3891.527 -2041123 -2080960 -2111296 -2127618 -2129002 -2117264 -2094611 
3894.902 -2064043 -2027305 -1986177 -1942440 -1898104 -1855314 -1817008 
3898.277 -1785100 -1760978 -1744709 -1735501 -1732036 -1733224 -1738438 
3901.653 -1748372 -1764311 -1787575 -1818856 -1857063 -1899951 -1943726 
3905.028 -1984033 -2017939 -2043267 -2059887 -2068330 -2070275 -2066945 
3908.403 -2059624 -2048906 -2035978 -2021632 -2007319 -1994159 -1983143 
3911.778 -1974072 -1966090 -1957118 -1945046 -1928321 -1907176 -1883192 
3915.154 -1859999 -1841259 -1830668 -1829843 -1838191 -1853566 -1872371 
3918.529 -1890846 -1906186 -1916611 -1920899 -1918887 -1910871 -1897906 
3921.904 -1882236 -1866235 -1853500 -1846901 -1848089 -1856403 -1869138 
3925.279 -1881873 -1889956 -1890384 -1882071 -1866301 -1845944 -1824234 
3928.655 -1804008 -1787278 -1774904 -1767809 -1766786 -1773023 -1787674 
3932.030 -1810574 -1840203 -1873163 -1904801 -1930465 -1946959 -1953820 
3935.405 -1952236 -1945046 -1935677 -1926606 -1918656 -1911102 -1902623 
3938.780 -1891770 -1877881 -1862276 -1846967 -1835122 -1829744 -1832582 
3942.156 -1843602 -1861055 -1881708 -1901403 -1916149 -1923307 -1921856 
3945.531 -1912586 -1898203 -1882269 -1868511 -1860065 -1858416 -1863727 
3948.906 -1874252 -1887382 -1900512 -1911761 -1920008 -1924792 -1926507 
3952.281 -1925616 -1922878 -1918887 -1914071 -1909452 -1905625 -1903052 
3955.656 -1902063 -1902623 -1903679 -1904438 -1904042 -1902063 -1898566 
3959.032 -1893914 -1888240 -1882269 -1876132 -1869864 -1863661 -1857987 
3962.407 -1852906 -1848881 -1845680 -1842777 -1839346 -1834429 -1827633 
3965.782 -1819021 -1809320 -1799850 -1791634 -1785463 -1781074 -1777510 
3969.157 -1773386 -1767215 -1758140 -1746128 -1732003 -1717350 -1704148 
3972.533 -1693686 -1686721 -1683190 -1682431 -1682959 -1683454 -1682629 
3975.908 -1679889 -1675103 -1668931 -1662066 -1655728 -1650645 -1647707 
3979.283 -1646585 -1646783 -1647476 -1647872 -1646948 -1644670 -1640907 
3982.658 -1636484 -1632259 -1629090 -1627703 -1628034 -1629816 -1631929 
3986.034 -1633381 -1633447 -1631830 -1629057 -1626053 -1624469 -1625030 
3989.409 -1628232 -1633810 -1640874 -1647674 -1652823 -1655464 -1655200 
3992.784 -1651965 -1646189 -1638597 -1630146 -1621927 -1615291 -1611891 
3996.159 -1612684 -1618626 -1629189 -1642822 -1657379 -1670350 -1680021 
3999.535 -1685368 -1686854 -1685467 
##END=
