##TITLE=814d_3_b
##JCAMP-DX=5.01  $$ Nicolet v. 1
##DATATYPE=INFRARED SPECTRUM
##ORIGIN=UniL
##OWNER=Nicolet
##LONGDATE=2011/09/28
##TIME=11:38:28
##SPECTROMETER/DATA SYSTEM=Nicolet iS5
##DATA PROCESSING=
Ratio against background
%Transmittance->Absorbance
Truncated
ElementMultiply or ElementDivide
##COMMENTS=
Number of sample scans: 32
Collection length: 51.15 sec
Sample gain: 2.0
Background collected on: Mer Sep 28 11:32:03 2011 (GMT+02:00);
Number of background scans: 32
Background gain: 2.0
Sample spacing:  1.000
Number of scan points: 12415
Resolution points: 8192
Number of FFT points: 65536
Apodization: N-B fort;
Phase correction: Mertz;
Laser frequency: 15798.0 cm-1
Number of rejected sample scans: 0
Number of rejected background scans: 0
Bench serial number: ASB1000141;
##RESOLUTION=4.000
##XUNITS=1/CM
##YUNITS=ABSORBANCE
##FIRSTX=649.893372
##LASTX=4000.122314
##FIRSTY=0.096686
##MAXX=4000.122314
##MINX=649.893372
##MAXY=0.257887
##MINY=-0.002577
##XFACTOR=1.000000
##YFACTOR=1.000000E-009
##NPOINTS=6950
##DELTAX=0.482117
##ZPD=6100
##XYDATA=(X++(Y..Y))
649.893 96686208 96507704 96424576 96443488 96541552 96685464 96847184 
653.268 97022312 97229752 97501112 97860760 98312680 98837256 99401536 
656.643 99973512 100534840 101084696 101629120 102171592 102703200 103205664 
660.018 103661552 104067680 104439512 104809208 105207848 105655912 
662.911 106151864 106676424 107200432 107698440 108153080 108546632 
665.803 108852616 109022512 108987424 108686960 108111816 107337568 
668.696 106492832 105702024 105024456 104448528 103914576 103348440 
671.589 102691736 101916112 101033384 100081728 99111336 98160176 97241104 
674.963 96348384 95468592 94596056 93739504 92918528 92152728 91451544 
678.338 90809392 90211216 89640616 89091104 88568256 88085480 87653840 
681.713 87274632 86935664 86618072 86303584 85984152 85664720 85358832 
685.088 85079504 84831104 84605584 84387224 84161496 83921408 83672824 
688.463 83429680 83207328 83013104 82843616 82686376 82527440 82359424 
691.838 82184592 82012904 81857376 81726456 81621000 81535360 81463008 
695.212 81400376 81351064 81322016 81319136 81342792 81385552 81435792 
698.587 81481872 81519816 81553344 81593608 81650592 81728768 81823456 
701.962 81923152 82013632 82084632 82134304 82166336 82188400 82204896 
705.337 82215976 82216624 82201368 82166736 82114296 82048168 81972768 
708.712 81889304 81794968 81686896 81565664 81441704 81335200 81273072 
712.086 81280864 81375960 81559392 81812248 82095720 82359272 82545312 
715.461 82597320 82473432 82149400 81626760 80933480 80125864 79281320 
718.836 78481248 77807880 77326416 77073936 77058864 77256184 77611808 
722.211 78040360 78439688 78702736 78725056 78434488 77802928 76858064 
725.586 75677952 74377744 73085104 71901504 70891792 70074224 69429312 
728.961 68916344 68492856 68130824 67816688 67549080 67329728 67154728 
732.335 67013508 66891736 66776344 66660896 66545984 66435932 66333472 
735.710 66237128 66140928 66038228 65926604 65810040 65697008 65596528 
739.085 65513380 65444992 65384016 65322316 65256312 65189852 65131372 
742.460 65089300 65067248 65060936 65060548 65054588 65036304 65005668 
745.835 64968108 64929820 64892352 64852260 64802060 64736016 64655028 
749.209 64567672 64487868 64428716 64395436 64384096 64382948 64379676 
752.584 64366572 64344248 64318964 64298832 64286964 64279736 64268292 
755.959 64244084 64204708 64155736 64108232 64073084 64056612 64057232 
759.334 64068676 64084456 64103656 64131616 64177400 64247392 64341560 
762.709 64452276 64569516 64686984 64808248 64946368 65120444 65347464 
766.083 65635144 65982224 66381188 66825612 67314600 67854264 68454992 
769.458 69131600 69905896 70816968 71937168 73368192 75229896 77625200 
772.833 80578848 83985648 87564928 90905496 93490576 94823528 94586832 
776.208 92705216 89397976 85089424 80336232 75669200 71473760 67984088 
779.583 65253192 63206732 61696984 60567856 59694052 58986236 58397320 
782.958 57904556 57496508 57167296 56915196 56744040 56662336 56681628 
786.332 56811444 57056340 57417424 57896152 58498908 59241248 60146336 
789.707 61239416 62545440 64085224 65875204 67935232 70289672 72966632 
793.082 75992816 79378848 83103888 87099672 91250232 95388192 99295160 
796.457 102736824 105462192 107228296 107847456 107198392 105262184 
799.350 102127784 97990120 93121840 87816576 82383904 77097840 72168160 
802.724 67753904 63944004 60766292 58203600 56205404 54704724 53627232 
806.099 52906848 52489628 52332576 52404832 52677408 53114840 53672188 
809.474 54287840 54887300 55397648 55749140 55889492 55790396 55444440 
812.849 54865268 54080636 53131840 52067168 50936952 49794436 48686268 
816.224 47649068 46709588 45880472 45163876 44554736 44045924 43630384 
819.598 43303608 43063048 42906884 42833044 42839772 42927256 43099820 
822.973 43367384 43745656 44253016 44905236 45711328 46667568 47754052 
826.348 48930188 50135280 51292792 52307088 53081140 53528276 53582776 
829.723 53219996 52460352 51369952 50042208 48586944 47113684 45707940 
833.098 44434076 43329636 42406828 41661728 41077324 40630668 40292796 
836.473 40033440 39824904 39642668 39471036 39303280 39140992 38991088 
839.847 38860292 38753736 38672236 38612948 38572352 38547544 38537592 
843.222 38542912 38563480 38598172 38644564 38700236 38764460 38839204 
846.597 38928168 39035564 39163184 39309408 39469548 39638240 39812336 
849.972 39992788 40184908 40396276 40634668 40904904 41208608 41545076 
853.347 41913188 42313536 42749092 43224248 43743092 44308564 44922616 
856.721 45586516 46304176 47081964 47930176 48861324 49888236 51023732 
860.096 52280664 53670984 55207032 56897140 58741236 60721664 62797428 
863.471 64901852 66937820 68795048 70359288 71522208 72206240 72367632 
866.846 72005672 71162440 69921272 68398632 66719696 65015980 63404804 
870.221 61971748 60776924 59848196 59186716 58773932 58577356 58558056 
873.596 58668600 58858880 59078168 59274136 59403400 59434820 59353144 
876.970 59162072 58880428 58539176 58171932 57813932 57498020 57252040 
880.345 57101272 57068360 57169976 57417196 57811924 58345772 58998988 
883.720 59742868 60544696 61368044 62179004 62950684 63663960 64312704 
887.095 64904736 65463288 66020904 66614816 67280016 68038384 68896576 
890.470 69843432 70855512 71901424 72948376 73969480 74941736 75846400 
893.844 76667880 77389768 77996304 78472320 78802552 78972304 78966224 
897.219 78767000 78357976 77727312 76872352 75804824 74552616 73159992 
900.594 71678256 70162384 68666296 67233360 65899768 64693212 63632040 
903.969 62728092 61986076 61403880 60972860 60679676 60509884 60449900 
907.344 60490612 60627856 60860928 61189976 61614076 62129604 62731496 
910.719 63414776 64175636 65012016 65920824 66894172 67918920 68974432 
914.093 70036616 71085392 72108624 73107488 74096632 75103480 76163432 
917.468 77313832 78593768 80038808 81675104 83517176 85557784 87763928 
920.843 90068496 92378920 94589960 96593704 98311808 99709736 100809072 
924.218 101685192 102462416 103301440 104363576 105806208 107756616 
927.110 110286688 113402616 117022184 120975968 124983448 128675280 
930.003 131648840 133473888 133792056 132383792 129200024 124397968 
932.896 118307848 111406488 104202904 97172264 90720040 85107032 80473152 
936.271 76853280 74205112 72447136 71485248 71236608 71622968 72563104 
939.646 73964064 75693216 77577416 79423168 81014576 82159368 82724304 
943.020 82645024 81946392 80728176 79153640 77405528 75656184 74052000 
946.395 72683808 71593072 70779376 70215232 69859856 69671928 69619064 
949.770 69675864 69823440 70047280 70332832 70666296 71036304 71434080 
953.145 71854776 72296784 72759616 73242272 73742512 74257120 74783792 
956.520 75322384 75874896 76444592 77033576 77641640 78265032 78898384 
959.894 79536208 80176232 80819648 81470448 82132704 82808968 83498024 
963.269 84196288 84899424 85604880 86312880 87026624 87749328 88482984 
966.644 89226632 89977544 90733272 91494040 92263840 93049712 93859584 
970.019 94699520 95572424 96478816 97418464 98393304 99408952 100472752 
973.394 101592776 102774400 104018720 105324080 106687944 108109776 
976.286 109593024 111143072 112764528 114457768 116217136 118031312 
979.179 119885576 121766304 123662920 125566888 127470344 129362848 
982.072 131229448 133053408 134819168 136515904 138139632 139690736 
984.964 141169312 142569920 143878208 145072880 146130992 147033072 
987.857 147768784 148339056 148754256 149031872 149193392 149267120 
990.750 149286336 149288976 149319168 149416976 149613808 149928912 
993.643 150365920 150916992 151568208 152306432 153122704 154010672 
996.535 154964976 155976464 157030864 158112128 159204688 160299008 
999.428 161392960 162488704 163587552 164684848 165767408 166816112 
1002.321 167811936 168740528 169597328 170386112 171115984 171797232 
1005.213 172439344 173054256 173658432 174277200 174945152 175698032 
1008.106 176568608 177579136 178736448 180035616 181464320 183011072 
1010.999 184666512 186424464 188279216 190219872 192230992 194295984 
1013.891 196401104 198541488 200721312 202948672 205226512 207544128 
1016.784 209871696 212165520 214374528 216449488 218355360 220071760 
1019.677 221593600 222929376 224101152 225147312 226120144 227091536 
1022.570 228142304 229345888 230762336 232421728 234322160 236434016 
1025.462 238710000 241098560 243543200 245989168 248377088 250635808 
1028.355 252690528 254466688 255900208 256952912 257611872 257887216 
1031.249 257800784 257379776 256652656 255648912 254406752 252972576 
1034.142 251392336 249704208 247921552 246026816 243969680 241681136 
1037.035 239092176 236143104 232800528 229057328 224929664 220453344 
1039.928 215682144 210692096 205573904 200434224 195388784 190537648 
1042.821 185964704 181727520 177853168 174350608 171216928 168444640 
1045.714 166026544 163953472 162212160 160781392 159632192 158733056 
1048.607 158050720 157557664 157231072 157049760 156990832 157027344 
1051.500 157125920 157254480 157385104 157498288 157584384 157638448 
1054.393 157653456 157616384 157504224 157287008 156934704 156419312 
1057.286 155719344 154821072 153714880 152396880 150870560 149151440 
1060.179 147270672 145273856 143221664 141176592 139195856 137327776 
1063.072 135604608 134046240 132663920 131461160 130435856 129577848 
1065.965 128868136 128277320 127767056 127300008 126840904 126364112 
1068.858 125855920 125310216 124725272 124099528 123430232 122713816 
1071.751 121949712 121141744 120298256 119430704 118551920 117673080 
1074.645 116805336 115961384 115156576 114408784 113736200 113150800 
1077.538 112655168 112240160 111887280 111573488 111277528 110986168 
1080.431 110693768 110400616 110108224 109815992 109521264 109222856 
1083.324 108926272 108648920 108420296 108283800 108287712 108480312 
1086.217 108908136 109607824 110605448 111913208 113524160 115405016 
1089.110 117487816 119676456 121840168 123828224 125500128 126730960 
1092.003 127438920 127596600 127230496 126416952 125263440 123906272 
1094.896 122484312 121121552 119925880 118967472 118278176 117851888 
1097.789 117649352 117606352 117639544 117664696 117598752 117365896 
1100.682 116909880 116192800 115201848 113951520 112483544 110861648 
1103.575 109156944 107445296 105792600 104247176 102844168 101604288 
1106.468 100537808 99649624 98939072 98400208 98019512 97776088 97642560 
1109.844 97584976 97569176 97560672 97524336 97428080 97238544 96923096 
1113.219 96455488 95816848 95001224 94016680 92883776 91631656 90290584 
1116.594 88892072 87464016 86030328 84613600 83233864 81907024 80645824 
1119.969 79456544 78340032 77292768 76308688 75380232 74498368 73651936 
1123.344 72825248 71997424 71145344 70246664 69285752 68259288 67179136 
1126.720 66071212 64968728 63909680 62927664 62046392 61280048 60630864 
1130.095 60092264 59649344 59281580 58965284 58672772 58377836 58057768 
1133.470 57696116 57286748 56833652 56351488 55860288 55384396 54948172 
1136.845 54571740 54271096 54055716 53928036 53883584 53910892 53994252 
1140.221 54113776 54249844 54385620 54508288 54610252 54687960 54740052 
1143.596 54766624 54767416 54743548 54697284 54633060 54557316 54476660 
1146.971 54396812 54321292 54251460 54187228 54128784 54078268 54040032 
1150.346 54019996 54024012 54056956 54122032 54220752 54354148 54523316 
1153.722 54729604 54974084 55256252 55573884 55922204 56295624 56688124 
1157.097 57094132 57508648 57926216 58338648 58735768 59104020 59428552 
1160.472 59695800 59893528 60011944 60043408 59980524 59815456 59540644 
1163.847 59149316 58637464 58004444 57253556 56390496 55422604 54358732 
1167.223 53208724 51984512 50701440 49376480 48028680 46677420 45339244 
1170.598 44027696 42753700 41524512 40346496 39225228 38166356 37175064 
1173.973 36256220 35412828 34646388 33957072 33344082 32806310 32342802 
1177.348 31952858 31635460 31389378 31213250 31106312 31069404 31105424 
1180.724 31219694 31418268 31706634 32088544 32564852 33134970 33798376 
1184.099 34556076 35413008 36377300 37458392 38665680 40004376 41473620 
1187.474 43063232 44752556 46510288 48290008 50035144 51682400 53163520 
1190.849 54419796 55409016 56110492 56529548 56693784 56648444 56442980 
1194.225 56126896 55741456 55313188 54855640 54369848 53848624 53280452 
1197.600 52655224 51968004 51220612 50422176 49586540 48729784 47866724 
1200.975 47008256 46161728 45331632 44520556 43732100 42970420 42240488 
1204.350 41546208 40888888 40265784 39670512 39093824 38525896 37958240 
1207.726 37385728 36806796 36223516 35640448 35064444 34503592 33966640 
1211.101 33463846 33005786 32602352 32263170 31996012 31806164 31697654 
1214.476 31672772 31733726 31882428 32120652 32449402 32868098 33374638 
1217.851 33965560 34636988 35386192 36211344 37111828 38087244 39136532 
1221.227 40257968 41450036 42712348 44047024 45458616 46953768 48539072 
1224.602 50219152 51995376 53864940 55820008 57846560 59923920 62022040 
1227.977 64097592 66099340 67965608 69628712 71026504 72101936 72810824 
1231.352 73128312 73049352 72594904 71810096 70769040 69567264 68308968 
1234.728 67109216 66075220 65298668 64860880 64823180 65231012 66118740 
1238.103 67506464 69402128 71796728 74662736 77948328 81572016 85433248 
1241.478 89404040 93334824 97073888 100456912 103325656 105549680 107026920 
1244.853 107704688 107584280 106719880 105208776 103174440 100767744 
1247.746 98143400 95450352 92831944 90398128 88217808 86309696 84636504 
1251.122 83111224 81608208 79999128 78168200 76038872 73591168 70859960 
1254.497 67928376 64901852 61900096 59031288 56374276 53980560 51866920 
1257.872 50022280 48414228 46998880 45730324 44562336 43458524 42392036 
1261.247 41345504 40311120 39287936 38278992 37289536 36325672 35393564 
1264.623 34499640 33650092 32851658 32109450 31427704 30808134 30250258 
1267.998 29751786 29309780 28921450 28584918 28299110 28062406 27872148 
1271.373 27723856 27612018 27530356 27473416 27437274 27419026 27417014 
1274.748 27429332 27453720 27488030 27530674 27580630 27638288 27703972 
1278.124 27776942 27854872 27933590 28007802 28072976 28125856 28164638 
1281.499 28188186 28194090 28178002 28133422 28052968 27931258 27767124 
1284.874 27565164 27335460 27092402 26852406 26631006 26441512 26295258 
1288.249 26199692 26159996 26178824 26255904 26387884 26568794 26791328 
1291.625 27047406 27329424 27631226 27946596 28269156 28591678 28905654 
1295.000 29203202 29479250 29732234 29965058 30184510 30399698 30619406 
1298.375 30851532 31102752 31377520 31680260 32014168 32380786 32779008 
1301.750 33204318 33649200 34103960 34558192 35003420 35432496 35840080 
1305.125 36222620 36577088 36901548 37196216 37464248 37711732 37946960 
1308.501 38178948 38414752 38658508 38910808 39169964 39433048 39697340 
1311.876 39961072 40222416 40478648 40725820 40958460 41170500 41356800 
1315.251 41513572 41638208 41729640 41787168 41810768 41801760 41764224 
1318.626 41705640 41635872 41566696 41508400 41467388 41446096 41441724 
1322.002 41449084 41462100 41476316 41489808 41503804 41522436 41553824 
1325.377 41610344 41707244 41864512 42101740 42433900 42866724 43391328 
1328.752 43984432 44607424 45215644 45766584 46223828 46566308 46788628 
1332.127 46899980 46920540 46877540 46802100 46722800 46666056 46652920 
1335.503 46696896 46804756 46976400 47207016 47489356 47816380 48183740 
1338.878 48589060 49031516 49509292 50018304 50551624 51099388 51647920 
1342.253 52180816 52676808 53107760 53442904 53649016 53694944 53559496 
1345.628 53231868 52713692 52016332 51159396 50167600 49067460 47890144 
1349.004 46670112 45442684 44247108 43122104 42101124 41213304 40477340 
1352.379 39901352 39483884 39216016 39084500 39073228 39165360 39342640 
1355.754 39583648 39866484 40167936 40465736 40742524 40984496 41182520 
1359.129 41331544 41428964 41475624 41476356 41443144 41396636 41364820 
1362.505 41382640 41484336 41696044 42034976 42506172 43106188 43826504 
1365.880 44654608 45572972 46553032 47555712 48528068 49404956 50122564 
1369.255 50621052 50854620 50798008 50446068 49815020 48938232 47868652 
1372.630 46675056 45432236 44223080 43121664 42180644 41427616 40861292 
1376.006 40461624 40199592 40051104 40003396 40058152 40230272 40545356 
1379.381 41036536 41736828 42675280 43867560 45304456 46938224 48671556 
1382.756 50370712 51864380 52973656 53547728 53467264 52672880 51176172 
1386.131 49078144 46565164 43875512 41269268 38949876 37031104 35538560 
1389.507 34429516 33628824 33053052 32632892 32314282 32057188 31835720 
1392.882 31631790 31435754 31246186 31069224 30915570 30795614 30714810 
1396.257 30671496 30658056 30663852 30679034 30697704 30718864 30745822 
1399.632 30783342 30835630 30902796 30981358 31065096 31148280 31227456 
1403.008 31303726 31383074 31476330 31596366 31753472 31953428 32195724 
1406.383 32474968 32783404 33113800 33461344 33823344 34198336 34585176 
1409.758 34981476 35384648 35792580 36204720 36622292 37046872 37478732 
1413.133 37915320 38351624 38780620 39197160 39598604 39985484 40360168 
1416.509 40724804 41079692 41425140 41764440 42109300 42478696 42897008 
1419.884 43381992 43935632 44545704 45189096 45842948 46488120 47118004 
1423.259 47739148 48370036 49033816 49750516 50531596 51377816 52283464 
1426.634 53240932 54244628 55287936 56358204 57434440 58481320 59453776 
1430.010 60308560 61010796 61546380 61923636 62173000 62337244 62460844 
1433.385 62586048 62747076 62973664 63301176 63775160 64452200 65392716 
1436.760 66633508 68173768 69974016 71968528 74079232 76215800 78282336 
1440.135 80159616 81712136 82817592 83370376 83309720 82626264 81354624 
1443.510 79561432 77325984 74738336 71882776 68830104 65648252 62401964 
1446.886 59167240 56047724 53162208 50625592 48521624 46878500 45673448 
1450.261 44851556 44354140 44133352 44158408 44411980 44877240 45530396 
1453.636 46344652 47289324 48340628 49488532 50730112 52062984 53469884 
1457.011 54912416 56334172 57679728 58912572 60015444 60985020 61825672 
1460.387 62548428 63167148 63695692 64143792 64511084 64785248 64947100 
1463.762 64979808 64883768 64682564 64421608 64148748 63893788 63663080 
1467.137 63441268 63204088 62925676 62584936 62161416 61626144 60935340 
1470.512 60030016 58846776 57349960 55563792 53591544 51583360 49683192 
1473.888 47975688 46474512 45148288 43958656 42889180 41955592 41197712 
1477.263 40656500 40360568 40315880 40511528 40932868 41573516 42440076 
1480.638 43549500 44918756 46554212 48445968 50571016 52902880 55418464 
1484.013 58107876 60969616 63999824 67182728 70470576 73768696 76944376 
1487.389 79817832 82180544 83830096 84583000 84322800 83037288 80839040 
1490.764 77948176 74627600 71131760 67639368 64239592 60959664 57781116 
1494.139 54674808 51632992 48679784 45878300 43317520 41080348 39216488 
1497.514 37728900 36587684 35745092 35156372 34789524 34622492 34639500 
1500.890 34826644 35167476 35642748 36231516 36906672 37634256 38371712 
1504.265 39051584 39580888 39839176 39690880 39039692 37884588 36336732 
1507.640 34560632 32694976 30812580 28932110 27051248 25173406 23314732 
1511.015 21512646 19814378 18259270 16875094 15668891 14629772 13737052 
1514.391 12966552 12294924 11700267 11165233 10679588 10241399 9857338 
1517.766 9537185 9285775 9097812 8955422 8830627 8695525 8532620 8347786 
1521.623 8169648 8035832 7970963 7974035 8023107 8087173 8141255 8171438 
1525.481 8181364 8186700 8207870 8257644 8336572 8435379 8542487 8651515 
1529.338 8763849 8886121 9024835 9180107 9343900 9501386 9636841 9743297 
1533.196 9827918 9912149 10018605 10160530 10334362 10524423 10709235 
1536.571 10869051 10991238 11067707 11097517 11082765 11028553 10941626 
1539.946 10831513 10713955 10608008 10530432 10488848 10477952 10481685 
1543.321 10478903 10453242 10398770 10323776 10245876 10184443 10150185 
1546.697 10140823 10143232 10140688 10120474 10079133 10024131 9969951 
1550.072 9930896 9912387 9909640 9909878 9900182 9873709 9832900 9788096 
1553.929 9753632 9740382 9749939 9774439 9798602 9804940 9774541 9690302 
1557.787 9541350 9333641 9100012 8893020 8761617 8724970 8771254 8873371 
1561.644 9002271 9133612 9248372 9335943 9395666 9436163 9473311 9523366 
1565.501 9596935 9694166 9805651 9917573 10018367 10102059 10171757 10237022 
1569.359 10311526 10406847 10527750 10673441 10839428 11021246 11213886 
1572.734 11411577 11607147 11789355 11947016 12072572 12168349 12251365 
1576.109 12349259 12491710 12693600 12952897 13255696 13586876 13936477 
1579.485 14302316 14689096 15104831 15557058 16050015 16582703 17150100 
1582.860 17744264 18353654 18962898 19552582 20096944 20569098 20945750 
1586.235 21211030 21362404 21411828 21386698 21324608 21269764 21269244 
1589.610 21362926 21582528 21947516 22461672 23111128 23859946 24654560 
1592.986 25420766 26073928 26535930 26738820 26642912 26243442 25572278 
1596.361 24691242 23675822 22607130 21553106 20562740 19669714 18891152 
1599.736 18232836 17692390 17261518 16928422 16680099 16506806 16403118 
1603.111 16368262 16405148 16517064 16704030 16961840 17279722 17640142 
1606.487 18020754 18391470 18717390 18962968 19092992 19080702 18911812 
1609.862 18587442 18125728 17559782 16935656 16300006 15692251 15138660 
1613.237 14646838 14209971 13811646 13433438 13061090 12690837 12332624 
1616.612 12007542 11739652 11544397 11424299 11369297 11362937 11384977 
1619.988 11415795 11438076 11437498 11406067 11344196 11261830 11175637 
1623.363 11102412 11053466 11030185 11025835 11029336 11031137 11025256 
1626.738 11009963 10987161 10960790 10935578 10915598 10904794 10906458 
1630.113 10922631 10953892 10997899 11049286 11098741 11134434 11143442 
1633.489 11113222 11035453 10909346 10746866 10571782 10413329 10295750 
1636.864 10228168 10205033 10211580 10231324 10249371 10254833 10242790 
1640.239 10214429 10176506 10138077 10108028 10090494 10083780 10079947 
1643.614 10066959 10031829 9962899 9853982 9707075 9534746 9357780 9200582 
1647.472 9085022 9022297 9013299 9049904 9118317 9200582 9272777 9307304 
1651.329 9269764 9129280 8877532 8553335 8241199 8021048 7924630 7929017 
1655.187 7990099 8066311 8131025 8171775 8185686 8176941 8151856 8115968 
1659.044 8071510 8016897 7948151 7861061 7752636 7623635 7478390 7325679 
1662.901 7177300 7044462 6936140 6856221 6803174 6770360 6747408 6722169 
1666.759 6681386 6613658 6512373 6377855 6218673 6049403 5887958 5748664 
1670.616 5639120 5559876 5505712 5467694 5434208 5392808 5330648 5237877 
1674.474 5112571 4964711 4815494 4687430 4596303 4543699 4519291 4506702 
1678.331 4490766 4462679 4421840 4375448 4333111 4301387 4278030 4250123 
1682.188 4196323 4094428 3931200 3716632 3486404 3289749 3161399 3105164 
1686.046 3101426 3122417 3146046 3157460 3150785 3126422 3088211 3041996 
1689.903 2993116 2947377 2910216 2885566 2875293 2876360 2880997 2875860 
1693.761 2845575 2777443 2669080 2534014 2401956 2305645 2262043 2266673 
1697.618 2296085 2320368 2308876 2240394 2112620 1950002 1797259 1693664 
1701.476 1655213 1670746 1716816 1769145 1809969 1829633 1824942 1799954 
1705.333 1764022 1728692 1703177 1692067 1695094 1708799 1728592 1749983 
1709.190 1771009 1791470 1812963 1837785 1867867 1903408 1942846 1983419 
1713.048 2021933 2056221 2085418 2108825 2125939 2134030 2128769 2105928 
1716.905 2064944 2011746 1959387 1923343 1914324 1934758 1978626 2035215 
1720.763 2093176 2143287 2180615 2204559 2218047 2225274 2230236 2234632 
1724.620 2238263 2240328 2239961 2237597 2234200 2230270 2225307 2217647 
1728.478 2205758 2189673 2171258 2154042 2140923 2130900 2118280 2091645 
1732.335 2036879 1942946 1809603 1654248 1507561 1401143 1350188 1349656 
1736.192 1380867 1422318 1456626 1471454 1461879 1429998 1384290 1335796 
1740.050 1294818 1267468 1254575 1253877 1261387 1274181 1290165 1308145 
1743.907 1327687 1348227 1369698 1391902 1414573 1437112 1458854 1478768 
1747.765 1495625 1508293 1515907 1518002 1514111 1504336 1490006 1473848 
1751.622 1460416 1454100 1457890 1472119 1493364 1515076 1528675 1525948 
1755.479 1501310 1454698 1392135 1324263 1262085 1212009 1174199 1142837 
1759.337 1109816 1067398 1011300 942924 868881 798335 740348 700454 679746 
1763.677 675564 683065 697136 712568 724151 727735 720865 703640 679713 
1768.016 654824 634814 622238 614972 606477 588992 556577 509535 455865 
1772.356 410393 387144 393247 426412 476994 534117 588361 636109 677390 
1776.695 715522 752761 789472 822568 847566 860415 860381 851019 839068 
1781.035 831797 833291 843715 859485 875421 887374 893682 895641 896604 
1785.375 899393 905967 916360 929642 944817 961486 979020 996123 1009706 
1789.714 1014588 1004791 975666 925923 860149 788510 722259 671051 638896 
1794.054 623665 619750 620679 621143 617560 607838 590983 566696 535046 
1798.393 496996 454737 411952 372520 339988 315749 298971 287234 277884 
1802.733 269164 261108 255472 254113 258588 268767 283487 300132 316910 
1807.073 331897 343901 352125 355939 354844 349240 340419 331168 324636 
1811.412 324171 331400 345659 364461 384558 403229 419414 433874 449032 
1815.752 467076 489665 516303 545795 575555 603524 628576 650477 669757 
1820.091 687545 704337 720367 735270 748114 757375 761391 758536 747982 
1824.431 730822 709946 689304 672744 661759 654824 647424 633885 609431 
1828.771 573365 530634 490561 464290 460641 481472 522738 575389 629970 
1833.110 679713 720932 754155 782103 808194 834719 862373 890959 920510 
1837.450 952454 989614 1035512 1092875 1162372 1242114 1328086 1415038 
1841.307 1498052 1572369 1634758 1684417 1723602 1758400 1797159 1849598 
1845.165 1922178 2016207 2127770 2248454 2368006 2476561 2567643 2638910 
1849.022 2692117 2731894 2763171 2788881 2808757 2820129 2819295 2803888 
1852.879 2773208 2729093 2673881 2610209 2539313 2461432 2377035 2286925 
1856.737 2193470 2100101 2009716 1923842 1842444 1764355 1688375 1614737 
1860.594 1545101 1481927 1426939 1380202 1339652 1302296 1265740 1229454 
1864.452 1194998 1164830 1140711 1122572 1107757 1091945 1071948 1046871 
1868.309 1019969 997020 983869 983636 995226 1014024 1034449 1052086 1065305 
1872.649 1074971 1082943 1091314 1100449 1109683 1116659 1119516 1116693 
1876.506 1108022 1093838 1074639 1050658 1021928 989282 953948 918385 884751 
1880.846 854571 827548 801788 774568 744098 710344 675531 642679 615038 
1885.185 593571 577247 562715 546160 525326 499816 471786 444820 423162 
1889.525 410028 407408 415766 434372 462101 496399 534217 571275 602994 
1893.865 625988 638664 642712 641783 641418 646395 659702 682500 713696 
1898.204 751799 795381 842952 892918 943189 990976 1033519 1068660 1096263 
1902.544 1117822 1135661 1152272 1168053 1182339 1192672 1197556 1197058 
1906.401 1193137 1189349 1189183 1193702 1202042 1211013 1217292 1218489 
1910.259 1215100 1208653 1202307 1197855 1195629 1194333 1192971 1190778 
1914.116 1188353 1186525 1185130 1181675 1172272 1152637 1119716 1075768 
1917.973 1027109 982507 949333 930604 923233 920112 913006 895973 867851 
1922.313 832428 796111 765241 743003 728665 718874 709581 699027 687445 
1926.653 676759 668795 663585 659934 655654 649880 643442 639095 639792 
1930.992 646097 656085 664746 666737 658474 639659 614209 587200 564307 
1935.332 548316 539591 536838 538397 543970 554288 569881 589622 610426 
1939.671 627614 637502 638697 633487 626917 624130 627448 635445 643044 
1944.011 645765 641816 634151 629472 635744 657611 694680 739916 784460 
1948.351 819846 841790 851185 852945 853443 856431 862772 870043 875222 
1952.690 875753 871470 863602 853077 840329 823266 800593 771548 737692 
1957.030 703541 674668 654758 644769 642513 643276 643276 641551 640190 
1961.369 643475 655554 677954 709747 748280 789838 832063 873761 914201 
1965.709 951757 984699 1009972 1024618 1028072 1021629 1007548 989149 968892 
1970.049 948635 930040 915928 910084 917555 941230 980780 1031527 1087427 
1974.388 1141475 1192871 1246367 1311036 1396889 1508625 1641510 1782320 
1978.246 1912526 2016107 2083221 2112920 2111355 2088249 2052393 2008551 
1982.103 1959787 1906736 1851129 1796993 1749284 1713756 1693165 1687610 
1985.960 1694130 1708600 1728160 1750581 1774968 1800153 1824143 1843043 
1989.818 1854423 1856619 1852060 1845405 1843176 1851029 1871061 1901145 
1993.675 1937321 1974632 2010714 2044270 2076363 2107459 2136327 2160868 
1997.533 2177985 2186110 2186776 2183113 2179350 2178351 2179916 2180982 
2001.390 2176419 2161501 2133930 2095207 2049596 2002692 1959854 1926271 
2005.248 1904772 1898116 1907934 1934359 1974166 2021100 2065210 2095606 
2009.105 2105428 2092144 2060682 2020335 1981489 1952032 1935490 1929367 
2012.962 1928568 1928368 1927070 1925572 1927603 1935956 1951533 1973533 
2016.820 1998864 2025827 2055322 2089048 2128636 2173689 2221078 2264908 
2020.677 2301614 2330095 2353614 2378534 2411351 2454168 2503920 2552345 
2024.535 2589509 2606475 2599275 2568843 2520683 2461799 2398824 2337657 
2028.392 2283161 2239528 2212052 2204426 2218580 2252318 2300848 2356712 
2032.250 2414816 2473561 2535581 2605209 2685816 2776309 2869389 2956151 
2036.107 3027047 3077833 3109903 3129559 3145011 3162600 3183828 3206225 
2039.964 3224685 3234599 3233698 3223216 3206693 3186565 3165738 3144878 
2043.822 3123719 3103061 3084507 3070892 3064585 3068623 3083339 3109268 
2047.679 3145812 3191205 3242711 3294657 3338829 3364306 3362436 3328245 
2051.537 3264977 3182727 3096420 3022977 2974533 2954850 2958853 2974933 
2055.394 2989079 2991047 2976601 2948078 2912218 2876427 2845742 2822063 
2059.251 2804721 2791882 2782278 2776176 2773041 2772474 2772508 2770607 
2063.109 2765838 2759069 2754168 2756202 2768740 2793016 2825798 2861351 
2066.966 2893071 2916821 2932132 2941372 2948445 2956384 2966092 2975901 
2070.824 2983340 2986443 2985275 2981939 2979137 2978470 2980204 2981973 
2074.681 2981038 2974566 2961722 2942740 2918989 2892137 2862919 2832168 
2078.539 2800719 2769907 2742164 2719090 2701719 2688850 2678215 2667113 
2082.396 2653911 2639843 2627642 2621175 2622675 2631043 2642343 2650578 
2086.253 2650244 2638443 2615909 2586042 2553111 2520183 2488191 2455834 
2090.111 2421114 2383531 2344819 2308643 2279996 2261844 2255915 2260811 
2093.968 2273834 2292387 2315005 2340788 2369206 2398857 2426445 2448503 
2097.826 2462232 2466464 2462998 2455701 2448803 2445271 2446470 2451335 
2101.683 2458500 2467030 2477660 2492389 2513351 2541413 2575276 2611942 
2105.541 2647577 2678982 2705354 2727192 2746365 2765438 2785380 2806922 
2109.398 2829834 2854047 2879596 2906247 2933500 2959954 2983507 3002191 
2113.255 3015136 3023044 3027915 3031719 3035956 3040627 3043898 3043464 
2117.113 3038258 3028816 3018172 3010498 3008797 3014536 3026313 3040861 
2120.970 3054141 3063484 3068123 3068924 3067522 3064752 3060481 3053007 
2124.828 3040060 3020041 2992315 2957352 2915920 2868455 2815626 2757469 
2128.685 2694551 2628776 2562744 2499621 2441572 2390395 2345985 2309309 
2132.542 2281029 2263676 2259745 2270603 2294153 2324599 2352948 2371004 
2136.400 2373203 2358911 2333093 2303579 2277132 2257647 2243958 2231302 
2140.257 2214783 2190905 2160302 2126305 2093975 2066109 2043904 2026227 
2144.115 2011314 1998598 1989577 1986615 1991108 2002892 2018271 2032285 
2147.972 2040708 2042272 2037778 2030388 2022731 2013976 2001194 1979858 
2151.830 1945841 1899115 1842111 1778960 1712857 1643306 1567846 1484985 
2155.687 1398085 1320275 1271290 1277571 1359328 1523222 1756603 2029689 
2159.544 2306178 2551612 2745365 2882798 2972031 3027481 3064485 3094518 
2163.402 3123819 3153622 3182293 3206025 3220712 3221113 3203855 3166439 
2167.259 3110470 3040928 2965859 2894238 2832635 2784579 2749099 2721191 
2171.117 2695451 2667946 2638376 2609342 2586009 2572176 2569977 2578309 
2174.974 2592842 2607675 2616275 2612275 2591709 2551412 2493589 2423046 
2178.832 2348817 2283127 2237530 2221078 2236697 2280862 2345019 2417015 
2182.689 2486558 2547146 2596375 2635610 2667213 2693084 2713356 2728093 
2186.546 2737729 2743231 2747265 2752600 2759736 2767706 2773608 2775242 
2190.404 2771107 2762971 2754401 2749566 2751767 2760703 2773508 2786246 
2194.261 2795517 2799652 2799652 2798018 2797251 2798252 2801053 2803688 
2198.119 2805388 2806022 2806489 2808823 2813392 2819762 2826966 2833169 
2201.976 2837705 2841340 2845442 2851079 2858816 2867321 2874893 2880696 
2205.833 2885900 2893671 2907881 2931198 2962790 2998087 3028749 3047701 
2209.691 3049570 3034221 3005861 2972998 2943574 2923592 2915420 2918055 
2213.548 2928163 2941673 2955584 2967660 2976801 2983040 2986343 2988011 
2217.406 2989179 2992215 2998521 3008363 3020207 3030684 3036290 3034622 
2221.263 3026347 3014302 3003258 2998020 3000289 3009731 3022343 3034088 
2225.121 3041161 3042229 3038058 3030751 3022476 3014369 3006595 2999154 
2228.978 2992448 2988345 2988512 2994884 3007295 3023144 3039126 3051405 
2232.835 3058379 3060681 3061849 3065219 3073762 3087711 3105464 3123519 
2236.693 3138937 3149851 3156626 3160431 3162500 3163802 3163802 3161633 
2240.550 3157027 3150518 3143943 3139471 3138971 3143042 3150719 3161399 
2244.408 3173581 3186966 3201619 3217408 3234065 3250122 3264043 3274292 
2248.265 3280368 3283673 3286110 3289949 3296693 3306342 3317861 3329413 
2252.123 3340365 3350249 3360533 3372588 3387113 3403677 3420875 3436372 
2255.980 3448462 3455910 3458414 3456410 3450332 3440413 3427188 3411324 
2259.837 3394059 3377630 3363805 3354289 3349347 3348145 3349581 3352686 
2263.695 3358463 3368213 3384609 3409521 3442918 3482663 3524750 3564469 
2267.552 3597677 3621966 3636902 3643517 3644119 3640778 3635799 3631155 
2271.410 3628549 3629116 3634095 3643150 3655279 3668077 3678736 3685486 
2275.267 3687859 3686556 3684183 3683314 3685687 3692270 3702228 3714459 
2279.125 3727560 3740995 3754697 3769604 3786817 3806772 3829568 3854874 
2282.982 3881551 3907930 3932671 3953870 3970187 3980653 3985402 3985736 
2286.839 3984198 3983730 3987108 3995936 4009981 4027672 4046166 4062721 
2290.697 4075430 4083792 4088341 4090816 4092990 4096335 4101787 4109447 
2294.554 4119214 4130721 4143800 4158084 4173741 4190736 4209371 4229679 
2298.412 4251896 4275687 4300416 4324778 4347201 4366278 4380870 4391113 
2302.269 4397439 4401288 4404066 4406643 4409789 4414074 4419764 4427731 
2306.126 4439213 4455247 4476505 4502819 4532784 4564592 4595767 4625169 
2309.984 4652229 4677114 4700861 4724308 4747655 4770837 4793316 4814958 
2313.841 4836066 4857275 4879658 4904154 4930829 4960187 4991457 5024540 
2317.699 5059167 5095607 5134095 5175102 5218762 5265311 5314413 5365400 
2321.556 5416561 5464942 5506148 5534807 5546250 5536954 5506551 5458198 
2325.414 5398209 5334069 5273695 5223524 5186369 5162729 5150458 5146434 
2329.271 5147373 5151262 5156995 5163803 5171246 5178321 5184156 5188246 
2333.128 5191466 5195456 5202565 5215040 5234054 5259341 5288989 5320283 
2336.986 5350707 5377980 5401229 5420520 5436322 5449441 5460412 5470109 
2340.843 5479001 5487759 5496685 5505913 5514336 5519907 5520074 5512289 
2344.701 5495511 5470680 5441455 5413810 5394988 5392070 5410723 5453702 
2348.558 5521484 5611428 5719017 5838420 5963063 6087237 6206540 6318579 
2352.416 6422779 6519806 6610328 6694408 6771336 6839828 6899276 6950415 
2356.273 6995567 7037828 7080598 7126538 7176626 7230898 7288647 7348459 
2360.130 7409325 7469997 7529497 7585869 7637393 7682414 7720121 7750781 
2363.988 7775810 7796860 7815380 7831473 7843922 7850872 7850399 7841088 
2367.845 7822870 7796016 7761440 7720054 7672499 7619589 7562436 7502864 
2371.703 7443334 7386777 7336058 7293196 7259468 7235412 7221229 7216782 
2375.560 7222509 7238276 7264489 7301047 7347583 7403427 7468210 7541398 
2379.417 7622860 7711925 7808363 7911234 8019799 8133152 8250451 8370586 
2383.275 8491734 8611327 8725849 8831067 8923087 8998854 9057245 9098895 
2387.132 9125829 9140413 9144677 9139703 9125321 9101195 9067328 9024699 
2390.990 8975142 8920517 8862516 8801649 8737445 8668923 8595274 8517076 
2394.847 8436088 8355048 8277535 8206587 8144698 8093215 8052945 8024086 
2398.705 8006737 8000730 8005556 8020137 8043156 8073873 8112119 8159047 
2402.562 8216447 8286722 8371228 8470313 8582533 8705599 8836715 8973552 
2406.419 9114832 9260523 9410903 9566754 9728455 9896453 10070588 10251407 
2410.277 10439157 10633949 10834841 11040007 11246222 11449473 11645332 
2413.652 11830246 12000525 12153458 12287050 12399442 12489527 12556745 
2417.027 12601869 12626940 12634445 12628066 12610328 12583450 12548082 
2420.403 12504225 12451677 12390100 12320113 12242947 12160613 12075366 
2423.778 11989864 11907102 11829906 11761133 11703398 11658708 11627838 
2427.153 11611026 11607453 11616642 11638184 11672594 11721099 11784794 
2430.528 11864637 11960776 12072334 12198268 12337396 12489015 12652935 
2433.904 12828996 13016874 13215696 13424416 13641647 13867061 14100943 
2437.279 14344335 14598520 14865162 15144938 15438386 15745742 16067790 
2440.654 16405286 16759884 17132488 17523936 17933902 18361534 18805508 
2444.029 19264896 19739126 20228386 20732654 21251460 21783430 22326830 
2447.405 22879050 23437602 24000760 24566684 25133976 25700924 26265478 
2450.780 26825056 27376712 27917478 28444168 28953396 29441380 29903930 
2454.155 30336308 30733232 31089868 31401560 31663436 31871554 32021552 
2457.530 32109912 32133318 32089934 31978716 31799816 31554140 31242732 
2460.906 30867042 30428804 29930232 29375008 28767878 28115004 27423190 
2464.281 26700026 25952734 25188364 24413910 23636390 22862776 22100750 
2467.656 21357566 20640078 19954060 19303484 18691170 18118784 17587004 
2471.031 17096986 16649421 16244933 15883192 15562278 15278390 15025899 
2474.406 14798409 14589782 14394714 14209971 14033589 13865008 13703812 
2477.782 13549819 13402510 13261401 13126109 12996423 12872408 12753888 
2481.157 12640757 12532565 12428900 12329897 12236198 12149062 12070256 
2484.532 12001002 11941873 11892288 11850506 11814584 11782411 11752417 
2487.907 11724196 11697714 11673241 11651901 11634135 11620827 11612694 
2491.283 11610209 11613850 11623618 11639239 11659558 11682907 11708164 
2494.658 11733456 11757865 11780572 11801374 11821019 11840121 11860142 
2498.033 11882208 11907749 11937037 11970143 12005771 12042628 12079012 
2501.408 12113695 12146166 12176697 12205731 12234017 12261556 12288447 
2504.784 12314080 12338385 12361327 12383317 12405170 12426991 12448710 
2508.159 12469613 12488266 12503611 12514796 12521583 12524004 12521890 
2511.534 12514490 12500814 12479262 12448676 12408613 12360100 12304536 
2514.909 12244276 12181229 12117102 12052746 11988604 11925288 11863343 
2518.285 11803723 11747379 11695059 11647169 11603369 11563282 11526601 
2521.660 11493394 11464000 11438928 11418041 11400828 11386066 11372495 
2525.035 11358890 11345387 11332293 11321138 11313315 11309982 11311819 
2528.410 11318621 11329674 11344128 11361202 11380658 11402223 11426205 
2531.786 11452807 11482541 11515985 11553618 11595610 11641792 11691178 
2535.161 11742340 11793986 11844581 11893719 11941805 11990034 12039937 
2538.536 12093559 12151822 12215205 12283164 12354543 12427878 12501701 
2541.911 12574617 12645771 12714480 12780777 12844388 12905960 12965835 
2545.287 13024420 13082261 13139223 13195201 13250094 13303285 13355082 
2548.662 13405005 13453158 13499401 13543871 13586466 13627492 13666881 
2552.037 13705179 13742592 13779802 13816982 13854541 13892342 13930318 
2555.412 13967852 14004261 14038414 14068702 14093379 14111348 14121548 
2558.788 14123739 14118639 14107754 14092181 14072945 14049981 14022809 
2562.163 13990505 13952421 13908113 13858132 13803676 13746491 13687945 
2565.538 13630057 13573885 13520969 13472536 13429781 13393489 13364103 
2568.913 13341312 13324467 13312339 13304412 13300278 13300483 13305232 
2572.289 13314867 13329114 13346984 13367383 13389115 13411669 13435352 
2575.664 13461223 13490309 13523567 13560997 13601988 13645409 13690099 
2579.039 13735307 13780794 13826970 13873732 13921525 13970214 14019524 
2582.414 14069729 14121103 14174298 14230239 14289817 14353444 14420848 
2585.790 14491380 14563808 14636797 14708906 14778662 14845275 14908093 
2589.165 14967249 15023190 15077387 15131077 15185392 15240844 15296786 
2592.540 15351876 15404947 15454936 15501770 15546343 15590543 15636293 
2595.915 15685244 15738046 15795117 15855940 15920175 15987411 16057717 
2599.291 16131163 16207648 16286865 16368298 16451329 16536063 16622741 
2602.666 16712431 16806206 16904650 17008596 17117564 17231076 17348650 
2606.041 17469606 17593664 17720484 17849448 17979932 18110770 18240610 
2609.416 18367964 18491450 18609852 18722026 18826752 18922922 19009558 
2612.792 19085756 19150644 19204078 19245708 19275392 19293056 19299016 
2616.167 19293750 19278370 19254574 19224338 19189912 19153242 19115394 
2619.542 19077030 19038464 18999380 18959990 18920674 18882188 18845680 
2622.917 18811838 18781254 18753784 18729290 18707496 18688434 18672628 
2626.292 18661146 18655472 18656888 18666540 18685358 18713274 18750012 
2629.668 18794470 18845924 18902988 18964664 19030640 19099918 19172044 
2633.043 19246712 19323160 19400624 19478936 19557710 19637056 19717906 
2636.418 19800990 19887282 19976992 20069980 20165420 20262408 20360144 
2639.793 20458218 20556520 20655436 20754722 20854032 20952146 21047988 
2643.169 21140024 21227558 21310688 21390492 21468432 21546178 21625154 
2646.544 21706374 21790258 21876982 21966406 22058532 22153188 22250342 
2649.919 22349610 22450610 22553484 22658198 22765032 22874930 22988418 
2653.294 23106376 23228874 23356512 23489154 23626978 23769816 23917848 
2656.670 24070906 24228498 24389796 24554132 24720564 24888536 25057834 
2660.045 25228534 25400566 25573826 25747610 25921430 26094616 26266990 
2663.420 26438730 26610466 26783186 26957562 27133808 27311784 27491066 
2666.795 27670848 27850914 28030950 28211804 28393970 28578338 28765896 
2670.171 28957398 29153202 29353452 29558054 29765944 29976276 30187456 
2673.546 30397924 30606180 30811016 31011606 31207234 31397608 31582114 
2676.921 31760674 31933278 32100532 32263458 32423730 32583102 32743924 
2680.296 32907840 33076826 33252462 33436612 33631116 33837812 34058656 
2683.672 34294960 34547572 34816524 35101120 35400500 35713468 36039080 
2687.047 36376616 36725336 37084436 37453300 37830936 38216176 38608528 
2690.422 39007360 39412584 39824576 40243756 40671056 41107080 41552620 
2693.797 42007820 42472960 42947008 43428972 43917596 44411352 44909608 
2697.173 45412188 45919252 46431924 46950628 47475608 48006368 48541740 
2700.548 49080296 49620524 50161312 50701104 51238732 51772432 52299796 
2703.923 52818344 53324728 53815884 54288740 54740240 55166928 55565752 
2707.298 55933396 56266692 56563212 56820920 57038920 57216432 57353476 
2710.674 57449568 57505132 57520300 57495712 57432208 57331320 57194092 
2714.049 57021428 56813484 56570120 56291172 55976588 55627288 55244508 
2717.424 54830788 54388172 53919596 53427616 52914856 52384572 51839964 
2720.799 51284588 50722736 50158640 49596380 49041160 48496648 47967436 
2724.175 47457424 46969752 46506820 46070464 45661156 45279776 44926288 
2727.550 44601952 44307536 44044564 43813752 43615804 43450028 43315652 
2730.925 43210960 43134656 43085552 43062792 43065576 43093236 43144320 
2734.300 43217552 43310672 43422200 43550636 43694392 43852380 44023224 
2737.676 44204808 44393924 44587592 44781796 44973256 45159096 45337076 
2741.051 45505560 45663620 45810472 45946064 46070536 46184396 46288956 
2744.426 46385468 46475580 46560700 46642484 46722172 46801692 46882340 
2747.801 46965692 47053120 47145408 47242812 47344892 47450992 47560592 
2751.177 47673508 47790560 47912712 48041748 48179960 48329740 48493688 
2754.552 48674816 48875932 49099624 49347820 49621568 49921092 50245076 
2757.927 50591232 50956028 51334856 51723048 52114648 52503688 52884168 
2761.302 53250632 53597616 53921620 54218684 54486124 54720620 54919032 
2764.677 55078072 55195368 55269456 55301144 55292640 55248272 55172680 
2768.053 55070476 54946328 54803800 54646628 54478424 54303380 54125560 
2771.428 53949160 53777404 53612388 53454784 53305324 53163672 53030520 
2774.803 52906472 52792672 52689488 52596280 52511204 52430480 52349736 
2778.178 52263324 52165980 52052712 51918824 51761008 51576872 51365288 
2781.554 51126820 50863188 50577864 50274800 49958748 49634864 49307584 
2784.929 48981588 48660880 48348444 48046596 47756424 47478048 47210600 
2788.304 46952956 46704164 46463784 46231864 46009456 45797548 45596968 
2791.679 45408068 45230720 45064144 44907588 44760272 44621376 44489904 
2795.055 44364416 44242780 44122460 44000344 43873460 43739244 43595324 
2798.430 43440472 43273552 43093892 42901616 42696776 42480012 42252104 
2801.805 42014392 41767612 41512080 41247664 40973572 40689248 40394528 
2805.180 40090200 39778312 39462000 39145160 38831596 38525280 38228948 
2808.556 37945404 37676428 37423616 37188020 36971028 36773188 36595076 
2811.931 36436752 36297684 36177348 36074724 35989044 35919216 35864836 
2815.306 35825288 35800496 35790892 35796936 35820036 35860840 35920188 
2818.681 35998260 36095100 36209976 36342280 36491344 36656540 36837196 
2822.057 37032980 37243000 37466448 37701832 37948008 38203224 38466048 
2825.432 38734644 39006888 39279924 39550476 39814624 40068616 40308356 
2828.807 40530044 40730336 40905852 41054304 41173156 41261068 41317332 
2832.182 41342768 41339416 41310188 41259248 41191084 41110540 41022116 
2835.558 40929696 40836432 40744600 40655408 40569076 40484940 40402532 
2838.933 40320716 40239648 40159540 40081624 40007608 39939568 39879452 
2842.308 39829516 39791528 39768436 39762660 39777660 39816948 39883992 
2845.683 39980400 40106952 40261096 40437988 40628960 40822996 41007148 
2849.059 41167292 41289968 41364124 41381728 41339524 41238952 41086028 
2852.434 40889724 40661740 40414860 40160844 39911124 39675232 39460476 
2855.809 39272124 39113616 38985652 38887324 38816160 38767792 38737328 
2859.184 38719176 38708204 38699364 38688824 38673720 38652240 38624136 
2862.560 38589736 38550952 38509528 38468040 38428868 38394012 38365164 
2865.935 38344132 38331900 38329804 38338668 38359264 38392164 38437740 
2869.310 38495844 38565872 38646556 38736200 38832284 38932188 39033496 
2872.685 39133992 39232520 39329108 39425140 39522640 39624520 39733684 
2876.061 39852756 39983632 40128068 40287088 40461480 40651660 40857396 
2879.436 41077908 41311392 41555432 41807156 42063592 42322664 42582440 
2882.811 42842116 43100996 43358488 43613496 43864516 44109296 44345772 
2886.186 44571880 44785984 44986776 45174096 45348404 45510528 45662368 
2889.562 45806128 45944220 46079600 46215240 46353980 46498960 46653808 
2892.937 46821696 47007040 47214260 47447444 47710488 48006000 48334296 
2896.312 48692828 49075696 49473012 49870208 50250432 50594432 50882672 
2899.687 51099012 51231608 51275456 51232576 51111612 50926112 50691720 
2903.063 50424780 50140528 49851032 49566852 49295816 49043424 48814420 
2906.438 48612000 48437892 48293300 48178444 48093116 48037192 48010512 
2909.813 48013288 48045524 48107000 48196400 48311444 48448636 48603028 
2913.188 48768188 48936976 49101184 49251984 49381564 49482184 49548248 
2916.563 49576328 49565332 49516680 49433508 49320388 49181848 49022244 
2919.939 48844896 48652316 48445784 48225872 47992972 47747840 47491540 
2923.314 47226228 46954172 46678192 46400360 46122412 45845160 45568780 
2926.689 45293240 45018640 44745944 44476724 44213432 43959316 43717584 
2930.064 43491852 43284756 43099092 42936732 42798748 42685920 42598120 
2933.440 42534932 42495648 42479352 42485232 42512200 42558940 42623924 
2936.815 42704928 42799732 42905676 43020352 43141976 43269088 43401216 
2940.190 43538000 43679224 43824268 43971560 44118796 44262336 44397300 
2943.565 44516884 44613480 44677672 44700036 44672160 44588076 44445672 
2946.941 44247440 44000856 43717552 43410884 43095396 42784228 42486952 
2950.316 42209780 41955116 41721324 41504460 41299036 41099144 40899588 
2953.691 40696528 40487848 40273056 40052412 39826864 39597112 39363788 
2957.066 39127068 38887252 38645360 38402660 38161400 37923708 37691496 
2960.442 37465944 37247512 37035940 36830924 36632352 36440568 36257052 
2963.817 36082860 35919756 35768980 35631960 35509724 35403520 35314160 
2967.192 35242536 35188172 35149548 35123324 35105000 35089088 35069832 
2970.567 35042892 35005180 34955260 34893604 34821872 34742716 34659236 
2973.943 34574660 34492288 34414592 34343120 34277716 34215580 34151020 
2977.318 34075536 33978712 33848740 33675408 33450500 33169948 32834542 
2980.693 32449902 32026332 31576340 31114676 30655886 30212356 29794828 
2984.068 29411100 29065828 28761790 28499888 28280616 28104542 27972356 
2987.444 27884972 27842152 27840846 27873984 27928184 27985112 28021656 
2990.819 28012748 27936560 27777544 27530144 27199768 26802712 26363378 
2994.194 25907608 25461308 25044742 24670304 24343148 24062428 23823228 
2997.569 23618930 23442848 23289560 23154322 23033346 22923304 22821530 
3000.945 22725506 22633762 22545108 22459506 22376854 22297356 22221080 
3004.320 22147852 22077462 22009870 21945216 21883952 21826668 21774094 
3007.695 21726752 21684954 21649080 21619164 21595136 21576680 21563064 
3011.070 21553488 21546560 21541164 21536462 21532076 21528280 21526052 
3014.446 21526608 21531274 21540920 21556484 21578072 21605478 21638214 
3017.821 21675446 21715814 21757686 21799284 21838550 21873706 21903432 
3021.196 21926606 21942532 21950862 21951490 21944520 21930196 21909808 
3024.571 21884544 21856388 21827782 21800884 21777578 21758976 21745562 
3027.947 21737132 21732884 21731874 21733056 21735358 21737900 21739850 
3031.322 21740302 21738632 21734172 21726544 21715606 21701986 21686348 
3034.697 21670324 21655662 21644482 21638318 21638248 21644726 21657126 
3038.072 21674644 21696030 21720690 21748524 21779530 21814334 21853042 
3041.448 21895276 21940302 21987318 22035036 22083318 22132200 22182340 
3044.823 22234230 22287974 22342878 22397926 22451552 22502740 22550622 
3048.198 22595366 22637182 22676350 22712902 22746244 22775784 22800892 
3051.573 22821252 22837070 22848978 22857676 22863858 22868048 22870562 
3054.948 22871820 22872484 22873600 22876186 22880972 22888200 22897842 
3058.324 22909156 22921592 22934412 22947372 22959808 22971476 22981606 
3061.699 22989606 22995300 22998828 23001450 23005188 23012314 23024752 
3065.074 23043654 23068916 23099526 23133914 23170294 23207726 23245408 
3068.449 23283336 23321582 23360042 23398646 23437112 23475268 23513428 
3071.825 23552148 23592204 23634222 23678378 23724636 23772686 23822038 
3075.200 23872828 23925060 23979330 24036128 24095422 24156998 24220126 
3078.575 24284104 24347740 24410230 24471114 24529940 24586564 24640918 
3081.950 24692892 24742278 24789036 24832818 24873658 24911658 24947418 
3085.326 24981952 25016802 25053798 25094552 25140296 25191066 25246198 
3088.701 25303934 25362592 25420344 25476522 25531304 25585386 25639866 
3092.076 25695824 25753516 25813010 25873564 25934830 25996528 26058868 
3095.451 26122062 26186426 26252032 26318562 26385454 26452218 26518426 
3098.827 26583906 26648584 26712850 26776810 26840740 26904752 26969162 
3102.202 27033970 27099492 27166082 27233670 27302326 27371772 27441684 
3105.577 27511646 27581018 27649270 27715874 27780582 27843142 27903698 
3108.952 27962778 28021690 28081316 28143108 28207844 28275806 28346858 
3112.328 28420430 28495714 28572108 28649048 28726352 28803778 28881256 
3115.703 28958566 29035326 29111250 29186406 29260936 29334876 29408724 
3119.078 29482302 29555748 29628852 29701188 29772968 29844266 29915608 
3122.453 29987530 30060566 30135210 30211646 30289516 30368394 30447570 
3125.829 30526158 30603584 30679534 30754320 30828232 30902262 30976804 
3129.204 31052034 31127918 31203246 31277128 31348706 31417590 31484668 
3132.579 31551398 31619422 31690382 31765308 31844028 31925828 32009282 
3135.954 32093216 32176706 32258962 32339874 32419306 32496822 32572600 
3139.330 32646428 32718912 32791086 32864024 32939080 33016798 33097136 
3142.705 33179138 33261440 33342864 33422586 33500708 33578384 33656896 
3146.080 33737572 33821304 33908024 33997416 34088296 34179948 34271584 
3149.455 34363164 34454728 34546532 34638748 34731448 34824096 34916372 
3152.831 35007656 35097560 35185944 35273228 35359880 35446768 35534356 
3156.206 35623004 35712856 35803736 35895208 35987028 36079224 36171980 
3159.581 36265768 36360976 36458012 36556976 36658196 36761500 36866776 
3162.956 36974240 37083644 37194844 37306792 37418740 37529408 37637688 
3166.332 37742816 37844568 37943340 38040008 38135352 38230068 38324228 
3169.707 38417464 38508768 38596760 38680276 38758592 38831452 38899608 
3173.082 38964192 39026644 39088128 39148968 39208692 39265812 39318404 
3176.457 39364912 39404964 39439432 39470784 39502280 39537048 39577368 
3179.833 39624120 39676540 39732668 39790440 39848000 39904548 39959800 
3183.208 40014260 40068396 40122796 40177236 40231976 40286868 40342280 
3186.583 40398568 40456356 40516184 40578532 40643692 40711992 40783252 
3189.958 40857216 40933228 41009768 41085556 41159204 41229844 41297656 
3193.333 41363868 41429984 41497500 41567280 41638864 41711112 41782168 
3196.709 41851084 41917712 41982856 42048408 42115832 42185716 42257836 
3200.084 42330700 42402776 42473432 42542788 42612080 42683104 42757428 
3203.459 42835496 42916832 42999648 43082368 43163092 43241052 43315908 
3206.834 43388292 43458744 43528108 43597052 43666544 43737008 43808872 
3210.210 43882108 43955908 44029276 44100712 44169084 44234488 44297448 
3213.585 44359680 44423100 44489352 44559068 44632244 44707856 44784660 
3216.960 44861624 44938160 45013900 45089176 45164280 45239324 45314604 
3220.335 45390444 45466968 45544384 45622584 45701388 45780280 45858744 
3223.711 45936452 46013396 46089804 46166300 46243252 46320804 46398848 
3227.086 46477352 46556424 46636284 46717932 46801472 46887468 46975252 
3230.461 47063976 47152536 47240152 47326864 47413224 47499892 47587800 
3233.836 47676504 47765408 47853520 47940056 48025276 48110072 48196364 
3237.212 48285376 48377780 48473048 48570012 48667332 48763928 48860212 
3240.587 48957148 49055960 49156988 49259852 49362596 49463544 49561172 
3243.962 49655776 49748508 49842336 49939864 50042768 50151272 50264348 
3247.337 50379904 50496124 50611704 50726464 50840692 50955208 51070316 
3250.713 51185940 51301484 51416232 51529820 51642172 51754064 51866100 
3254.088 51979096 52093280 52208540 52324428 52439900 52553944 52665736 
3257.463 52774228 52879188 52980696 53079080 53175092 53269400 53362120 
3260.838 53453060 53541992 53628096 53710768 53789964 53866068 53939440 
3264.214 54010952 54080936 54149356 54215908 54279768 54340592 54397676 
3267.589 54450556 54498860 54542208 54580532 54614160 54643732 54670640 
3270.964 54695740 54719944 54743396 54765384 54784932 54800904 54812936 
3274.339 54821844 54829212 54837220 54847372 54860752 54876772 54893952 
3277.715 54910608 54925120 54936668 54945464 54952308 54958176 54963516 
3281.090 54968816 54974156 54979348 54984572 54989912 54995780 55001608 
3284.465 55007248 55011648 55013684 55012892 55008980 55002924 54995668 
3287.840 54988824 54983596 54980736 54980024 54981036 54982616 54983748 
3291.216 54983372 54981340 54977692 54973668 54970396 54969420 54971636 
3294.591 54977240 54985924 54996568 55007624 55018008 55027256 55035308 
3297.966 55042828 55050276 55057836 55065060 55071300 55075740 55077808 
3301.341 55077848 55076680 55075588 55075552 55077620 55081760 55088304 
3304.717 55096956 55107488 55119864 55133932 55149396 55166100 55183632 
3308.092 55202368 55222760 55246240 55273824 55306228 55343708 55385260 
3311.467 55429532 55475084 55520944 55567332 55615420 55666304 55721376 
3314.842 55781388 55845592 55912856 55981940 56051192 56120108 56188280 
3318.218 56256280 56324816 56395024 56467884 56544304 56624588 56708472 
3321.593 56794488 56880824 56964720 57044136 57117936 57186648 57252192 
3324.968 57317028 57383996 57454184 57527296 57601520 57673976 57741980 
3328.343 57803296 57856968 57902744 57940828 57971500 57995012 58011640 
3331.719 58021904 58026444 58026032 58020540 58009288 57990432 57961956 
3335.094 57921824 57869348 57805716 57733236 57654832 57573296 57489888 
3338.469 57404904 57317104 57225276 57128292 57026040 56918784 56806912 
3341.844 56690500 56569024 56441848 56308480 56169280 56025292 55878528 
3345.219 55730492 55582360 55434200 55284924 55133332 54978180 54819136 
3348.595 54656696 54491948 54326060 54160464 53995680 53832048 53669672 
3351.970 53508636 53348704 53190032 53032356 52875484 52718856 52562620 
3355.345 52406776 52252036 52099444 51950004 51804684 51664004 51528292 
3358.720 51397660 51271988 51150600 51032640 50916496 50800648 50683192 
3362.096 50562976 50439256 50312820 50185008 50057676 49932540 49810892 
3365.471 49693000 49578852 49468148 49360996 49257512 49158324 49063824 
3368.846 48973764 48887540 48803892 48721076 48637568 48552040 48463012 
3372.221 48369888 48271824 48168116 48059032 47944756 47826184 47704792 
3375.597 47582292 47459788 47338320 47217880 47098468 46979128 46859524 
3378.972 46738888 46616732 46492176 46364488 46231752 46092972 45946652 
3382.347 45792468 45630752 45462516 45290036 45115936 44942128 44770520 
3385.722 44601844 44436496 44273600 44112376 43951692 43790844 43629432 
3389.098 43467388 43304960 43142052 42979088 42815892 42652620 42489692 
3392.473 42327744 42167936 42011212 41858200 41708668 41561408 41414712 
3395.848 41267192 41117824 40966544 40814552 40663672 40514728 40368640 
3399.223 40224892 40081876 39938008 39792184 39644016 39493864 39342532 
3402.599 39190308 39037196 38882396 38725480 38565980 38404724 38242736 
3405.974 38081964 37923708 37768260 37615212 37463232 37311124 37157844 
3409.349 37003068 36847044 36689924 36532072 36373408 36213468 36052580 
3412.724 35891216 35730232 35570856 35413692 35258708 35104748 34950628 
3416.100 34794876 34637200 34477760 34317836 34158724 34001680 33847236 
3419.475 33695816 33547382 33402294 33260942 33123602 32990626 32860878 
3422.850 32732562 32603316 32470934 32333844 32191836 32046236 31898900 
3426.225 31752296 31608198 31467992 31332146 31200326 31071930 30945776 
3429.601 30820370 30694112 30565436 30432964 30296514 30156804 30015826 
3432.976 29876102 29740112 29609732 29485316 29366322 29251366 29138850 
3436.351 29027674 28917092 28807036 28697256 28587148 28476326 28363054 
3439.726 28246702 28126140 28001510 27873242 27742964 27611946 27481958 
3443.102 27353386 27226402 27099702 26971736 26840600 26704780 26564040 
3446.477 26420384 26276636 26137122 26005816 25885310 25775562 25674524 
3449.852 25578252 25482180 25382438 25276750 25164486 25046392 24923450 
3453.227 24796894 24667428 24534990 24399994 24263570 24127260 23993372 
3456.603 23863832 23739788 23621066 23506502 23394136 23281834 23168720 
3459.978 23053648 22936822 22818038 22697890 22576030 22452774 22328296 
3463.353 22203368 22078646 21954870 21832730 21712540 21594544 21479398 
3466.728 21367556 21259778 21156096 21056544 20959624 20863452 20765636 
3470.104 20664192 20558154 20447554 20333408 20217208 20100346 19984172 
3473.479 19869176 19756118 19645446 19537782 19433646 19332756 19234970 
3476.854 19139044 19043864 18948084 18851112 18753438 18654640 18555316 
3480.229 18455494 18354864 18253326 18151292 18050286 17952272 17859148 
3483.604 17772016 17690354 17612192 17534046 17452566 17365306 17271412 
3486.980 17171816 17069038 16965768 16864346 16766358 16672524 16582772 
3490.355 16497618 16416950 16341254 16270250 16203074 16138006 16072879 
3493.730 16006043 15935607 15861714 15784774 15706234 15628289 15552765 
3497.105 15480825 15413702 15351224 15292564 15236555 15181033 15123872 
3500.481 15062774 14997019 14926301 14852476 14778697 14708667 14646324 
3503.856 14594031 14553050 14522386 14500254 14483090 14467195 14449176 
3507.231 14426226 14396838 14361082 14320534 14278278 14237669 14202234 
3510.606 14174161 14153965 14140409 14130996 14123123 14114052 14102346 
3513.982 14087355 14069283 14048646 14025752 14000736 13973567 13944619 
3517.357 13913964 13882523 13850607 13818487 13785343 13749979 13710411 
3520.732 13664556 13611184 13549785 13480602 13405039 13324912 13241930 
3524.107 13157017 13070686 12981777 12888655 12789103 12681557 12565237 
3527.483 12440834 12310604 12177617 12044808 11914560 11787449 11663200 
3530.858 11540313 11417020 11292401 11165812 11037084 10906424 10773595 
3534.233 10637854 10498963 10356826 10212597 10068621 9928285 9794502 
3537.608 9668924 9552088 9442495 9337873 9236085 9135135 9034612 8934350 
3541.466 8834821 8736025 8637724 8539209 8438926 8335728 8228400 8116609 
3545.323 8000797 7881980 7762486 7645285 7533779 7430963 7338788 7256638 
3549.181 7181982 7110539 7037659 6958698 6871907 6777797 6680006 6583247 
3553.038 6492260 6410068 6337272 6272086 6211077 6151119 6089623 6024910 
3556.896 5957285 5887151 5815753 5743728 5671950 5600855 5531249 5463936 
3560.753 5400021 5340812 5287178 5239420 5197233 5158572 5120014 5076967 
3564.610 5023701 4955260 4868467 4763668 4645230 4521601 4403329 4298877 
3568.468 4214122 4149320 4101218 4063758 4031216 3998042 3961092 3918662 
3572.325 3870252 3816432 3758106 3696815 3634229 3572453 3513526 3458915 
3576.183 3409321 3364139 3321701 3280101 3237303 3192073 3144711 3096187 
3580.040 3047801 3001023 2956751 2915386 2877394 2842340 2810324 2780478 
3583.897 2751333 2720324 2684082 2638477 2579843 2506720 2420581 2325665 
3587.755 2230137 2142254 2069238 2014542 1978526 1957690 1946540 1939151 
3591.612 1929500 1913026 1886868 1850031 1803580 1750149 1692500 1633661 
3595.470 1575628 1519531 1465669 1414473 1365710 1319378 1275277 1232610 
3599.327 1190712 1149315 1108355 1069125 1033752 1004725 984168 973176 
3603.185 970685 974238 980282 983935 980681 966766 939138 896405 839034 
3607.524 769689 692888 614839 541383 476861 422465 376300 334583 293036 
3611.864 248941 202363 156288 116249 86919 70945 67167 70879 74955 71840 
3616.686 55337 21935 -28693 -93162 -165108 -236645 -299825 -348794 -380344 
3621.025 -395010 -395837 -387429 -374915 -362302 -351741 -343331 -335816 
3624.883 -327836 -319824 -315917 -323301 -352668 -414607 -513638 -644244 
3628.740 -788238 -920547 -1017513 -1069012 -1078663 -1060385 -1030735 
3632.115 -1003364 -987199 -984984 -993546 -1007662 -1021182 -1031297 
3635.490 -1037710 -1043594 -1052386 -1066896 -1087488 -1112176 -1137656 
3638.866 -1160359 -1178072 -1190000 -1197237 -1201731 -1204870 -1207348 
3642.241 -1209363 -1209661 -1207810 -1203779 -1198426 -1194329 -1194957 
3645.616 -1204044 -1225719 -1262789 -1317033 -1387753 -1471901 -1564253 
3648.991 -1658303 -1745699 -1818295 -1868610 -1891704 -1886591 -1856601 
3652.367 -1809551 -1755038 -1704709 -1669063 -1655662 -1668238 -1703818 
3655.742 -1753124 -1801764 -1836541 -1848782 -1837432 -1808264 -1770779 
3659.117 -1734478 -1706656 -1691045 -1687481 -1693785 -1705633 -1719000 
3662.492 -1730848 -1739065 -1742662 -1741903 -1736722 -1727812 -1715865 
3665.868 -1701970 -1688141 -1677183 -1672991 -1679394 -1698933 -1731013 
3669.243 -1769360 -1801434 -1811201 -1784803 -1715633 -1608227 -1474444 
3672.618 -1332493 -1202953 -1103352 -1049081 -1047725 -1095519 -1176419 
3675.993 -1269000 -1356276 -1431678 -1499572 -1567918 -1643746 -1728472 
3679.369 -1816645 -1899094 -1966486 -2012563 -2036638 -2042871 -2036935 
3682.744 -2024205 -2007484 -1987002 -1962825 -1936601 -1912751 -1898995 
3686.119 -1903448 -1933731 -1991817 -2073804 -2168237 -2259750 -2335094 
3689.494 -2386108 -2412535 -2419224 -2412700 -2397905 -2378133 -2354703 
3692.870 -2328866 -2302236 -2277120 -2255794 -2239774 -2229061 -2221743 
3696.245 -2215150 -2206908 -2195568 -2182645 -2170842 -2164413 -2167512 
3699.620 -2182842 -2210469 -2248048 -2290140 -2330250 -2361393 -2378661 
3702.995 -2379847 -2366040 -2340499 -2308102 -2273725 -2241324 -2213798 
3706.371 -2192799 -2178161 -2169754 -2167083 -2170446 -2180798 -2199656 
3709.746 -2228336 -2266771 -2312684 -2361063 -2404956 -2437050 -2452436 
3713.121 -2449141 -2428944 -2397048 -2359877 -2323560 -2293073 -2271451 
3716.496 -2259123 -2254410 -2254080 -2254608 -2253058 -2248740 -2241884 
3719.872 -2234566 -2228698 -2225039 -2222963 -2220655 -2215809 -2206809 
3723.247 -2194711 -2181095 -2169886 -2164314 -2165435 -2172194 -2180798 
3726.622 -2185414 -2181095 -2165435 -2139487 -2108065 -2078321 -2057546 
3729.997 -2051874 -2063845 -2091775 -2128772 -2166820 -2197678 -2218347 
3733.373 -2231566 -2245576 -2269473 -2309388 -2364227 -2425451 -2479518 
3736.748 -2512858 -2518491 -2496650 -2453820 -2397905 -2336446 -2273363 
3740.123 -2210633 -2149741 -2093919 -2049829 -2028657 -2043135 -2103053 
3743.498 -2207732 -2339675 -2466604 -2552354 -2576532 -2541912 -2469173 
3746.874 -2383703 -2308465 -2260079 -2245741 -2264496 -2307443 -2362579 
3750.249 -2418466 -2466834 -2504161 -2528143 -2535818 -2523531 -2488973 
3753.624 -2433854 -2364655 -2291030 -2224380 -2173512 -2143741 -2135762 
3756.999 -2145719 -2166523 -2191711 -2216435 -2238390 -2256157 -2268715 
3760.375 -2273758 -2268649 -2251872 -2225501 -2193656 -2163292 -2141070 
3763.750 -2130981 -2132893 -2142554 -2152610 -2155907 -2149115 -2133717 
3767.125 -2115780 -2103152 -2101767 -2114593 -2139388 -2170183 -2198502 
3770.500 -2217523 -2223292 -2216073 -2198963 -2176315 -2152577 -2130882 
3773.875 -2112483 -2098041 -2087192 -2079080 -2073573 -2071100 -2073012 
3777.251 -2081091 -2096656 -2119638 -2147368 -2175326 -2197579 -2208919 
3780.626 -2207633 -2195073 -2176150 -2157094 -2143609 -2138663 -2142916 
3784.001 -2153731 -2166589 -2177502 -2183106 -2182084 -2175128 -2163325 
3787.376 -2147994 -2130321 -2111362 -2092897 -2076772 -2065230 -2058997 
3790.752 -2057348 -2057876 -2056788 -2051379 -2040332 -2025755 -2012365 
3794.127 -2005933 -2011013 -2028855 -2055996 -2085015 -2105921 -2111758 
3797.502 -2100118 -2075321 -2046334 -2025623 -2024798 -2051874 -2107801 
3800.877 -2183370 -2262024 -2322439 -2348705 -2336281 -2292150 -2230907 
3804.253 -2169259 -2123397 -2103778 -2114395 -2149939 -2197183 -2239049 
3807.628 -2260574 -2255267 -2226490 -2183469 -2136223 -2092501 -2055238 
3811.003 -2023017 -1992213 -1959757 -1925682 -1894277 -1873658 -1872107 
3814.378 -1895729 -1943858 -2007484 -2069715 -2112747 -2125112 -2106350 
3817.754 -2066879 -2022622 -1991388 -1987068 -2017246 -2079607 -2161512 
3821.129 -2241423 -2296369 -2312815 -2289250 -2236511 -2170347 -2106911 
3824.504 -2058338 -2030405 -2022424 -2027931 -2037561 -2041486 -2034230 
3827.879 -2015465 -1990168 -1965661 -1949070 -1944749 -1952896 -1970114 
3831.255 -1989706 -2005043 -2011375 -2006527 -1991586 -1970378 -1948113 
3834.630 -1929542 -1919942 -1923307 -1942011 -1976249 -2022886 -2075485 
3838.005 -2125771 -2165402 -2188974 -2195106 -2186700 -2169259 -2149280 
3841.380 -2132003 -2120990 -2117264 -2119440 -2124024 -2126793 -2124024 
3844.756 -2112780 -2091611 -2061405 -2023710 -1981098 -1936304 -1890879 
3848.131 -1845845 -1801434 -1758239 -1718736 -1687580 -1673519 -1687481 
3851.506 -1740814 -1840929 -1984759 -2154093 -2315979 -2435863 -2492136 
3854.881 -2483933 -2426539 -2340961 -2246729 -2155973 -2076112 -2010089 
3858.257 -1957646 -1917798 -1889230 -1870260 -1859603 -1855215 -1855248 
3861.632 -1858152 -1863661 -1872371 -1886096 -1905164 -1927530 -1947058 
3865.007 -1956096 -1947322 -1918425 -1873460 -1822254 -1778863 -1756391 
3868.382 -1763387 -1800213 -1857624 -1917369 -1960582 -1975787 -1963154 
3871.758 -1933038 -1899457 -1875637 -1868445 -1877485 -1894640 -1908529 
3875.133 -1909221 -1891671 -1857228 -1813148 -1769360 -1735666 -1719561 
3878.508 -1725270 -1752200 -1794834 -1843239 -1885898 -1911959 -1915258 
3881.883 -1895927 -1860362 -1819384 -1784902 -1768304 -1776487 -1809056 
3885.259 -1857426 -1905922 -1938349 -1943297 -1918788 -1871613 -1814863 
3888.634 -1762298 -1726062 -1713719 -1726821 -1760153 -1803150 -1843833 
3892.009 -1871514 -1880223 -1869633 -1842777 -1804470 -1759427 -1711772 
3895.384 -1664904 -1621729 -1585482 -1559070 -1545137 -1545005 -1557981 
3898.760 -1580860 -1608821 -1635956 -1657841 -1672694 -1681672 -1688471 
3902.135 -1698108 -1713719 -1736590 -1764575 -1793284 -1816843 -1830998 
3905.510 -1832945 -1823310 -1804272 -1778665 -1749263 -1718472 -1687646 
3908.885 -1657973 -1630806 -1607270 -1588519 -1574884 -1565706 -1559169 
3912.260 -1553391 -1546524 -1537940 -1529025 -1521959 -1519780 -1525195 
3915.636 -1538765 -1558938 -1582774 -1606048 -1624832 -1637870 -1644637 
3919.011 -1646123 -1643482 -1637210 -1627142 -1613047 -1595484 -1575577 
3922.386 -1556264 -1540944 -1532525 -1532492 -1540053 -1552335 -1565508 
3925.761 -1575313 -1579539 -1577327 -1570196 -1560193 -1550189 -1542595 
3929.137 -1538996 -1540482 -1547383 -1559400 -1575445 -1593570 -1611198 
3932.512 -1625294 -1633018 -1632853 -1624568 -1609911 -1591556 -1572408 
3935.887 -1554811 -1540548 -1529487 -1520969 -1513540 -1506110 -1498549 
3939.262 -1491218 -1485572 -1483260 -1485176 -1491846 -1502214 -1514893 
3942.638 -1527077 -1536553 -1541473 -1540680 -1534869 -1525459 -1514497 
3946.013 -1504228 -1496733 -1493332 -1494091 -1498846 -1505879 -1513540 
3949.388 -1520044 -1524039 -1524634 -1522025 -1516544 -1509412 -1502313 
3952.763 -1496370 -1493431 -1494091 -1498186 -1504823 -1511988 -1517568 
3956.139 -1519846 -1517733 -1511228 -1501587 -1491119 -1481213 -1473717 
3959.514 -1469325 -1467773 -1467773 -1468268 -1467938 -1465891 -1461961 
3962.889 -1456215 -1448950 -1440760 -1431711 -1422068 -1411962 -1401228 
3966.264 -1389768 -1378109 -1366383 -1354988 -1344979 -1336820 -1330874 
3969.640 -1327637 -1326944 -1328133 -1331073 -1335202 -1340322 -1346168 
3973.015 -1352874 -1359876 -1366812 -1372527 -1375664 -1375466 -1371172 
3976.390 -1363080 -1351718 -1338835 -1325358 -1312607 -1301342 -1291894 
3979.765 -1284263 -1278349 -1273955 -1271147 -1270090 -1270850 -1273229 
3983.141 -1276929 -1281422 -1285650 -1289482 -1291960 -1293149 -1293414 
3986.516 -1292984 -1293083 -1294438 -1297741 -1302895 -1309403 -1316274 
3989.891 -1321757 -1324895 -1325061 -1322319 -1317760 -1312904 -1309304 
3993.266 -1307718 -1308775 -1311880 -1316208 -1320964 -1325061 -1328232 
3996.642 -1330214 -1331073 -1330610 -1329025 -1326085 -1322253 -1317925 
4000.017 -1313796 -1310691 
##END=
