##TITLE=814d_2_a
##JCAMP-DX=5.01  $$ Nicolet v. 1
##DATATYPE=INFRARED SPECTRUM
##ORIGIN=UniL
##OWNER=Nicolet
##LONGDATE=2011/09/28
##TIME=10:21:46
##SPECTROMETER/DATA SYSTEM=Nicolet iS5
##DATA PROCESSING=
Ratio against background
%Transmittance->Absorbance
Truncated
ElementMultiply or ElementDivide
##COMMENTS=
Number of sample scans: 32
Collection length: 51.12 sec
Sample gain: 2.0
Background collected on: Mer Sep 28 10:18:58 2011 (GMT+02:00);
Number of background scans: 32
Background gain: 2.0
Sample spacing:  1.000
Number of scan points: 12415
Resolution points: 8192
Number of FFT points: 65536
Apodization: N-B fort;
Phase correction: Mertz;
Laser frequency: 15798.0 cm-1
Number of rejected sample scans: 0
Number of rejected background scans: 0
Bench serial number: ASB1000141;
##RESOLUTION=4.000
##XUNITS=1/CM
##YUNITS=ABSORBANCE
##FIRSTX=649.893372
##LASTX=4000.122314
##FIRSTY=0.100275
##MAXX=4000.122314
##MINX=649.893372
##MAXY=0.264731
##MINY=-0.001918
##XFACTOR=1.000000
##YFACTOR=1.000000E-009
##NPOINTS=6950
##DELTAX=0.482117
##ZPD=6100
##XYDATA=(X++(Y..Y))
649.893 100275016 100040968 99929048 99951904 100093328 100319808 100597744 
653.268 100910136 101259608 101658888 102117472 102630088 103174280 
656.161 103723768 104260192 104782896 105308208 105857408 106440624 
659.054 107048328 107650512 108210128 108701896 109119840 109478928 
661.946 109804432 110119200 110433048 110741824 111032080 111290064 
664.839 111505248 111664704 111746984 111716896 111527312 111142008 
667.732 110566168 109860072 109117672 108422168 107809920 107265320 
670.624 106739672 106175136 105529992 104788840 103967904 103101288 
673.517 102228152 101371488 100532512 99696480 98846576 97976952 97097960 
676.892 96231624 95399328 94613608 93872288 93164376 92478280 91810264 
680.267 91167208 90561032 90000944 89486400 89006424 88546072 88093600 
683.642 87648688 87222656 86833232 86495048 86211648 85974144 85764576 
687.016 85565896 85366968 85167744 84975696 84799888 84644720 84507600 
690.391 84381584 84260648 84143560 84035912 83944280 83873744 83821416 
693.766 83777736 83730560 83671376 83600560 83526656 83462760 83418112 
697.141 83393944 83383184 83373952 83357288 83332720 83308960 83299528 
700.516 83315984 83360504 83424976 83495576 83558424 83606896 83643896 
703.890 83678688 83721000 83773392 83829728 83876432 83900552 83893600 
707.265 83856504 83796944 83724728 83645784 83560232 83464048 83355360 
710.640 83240880 83138472 83074080 83075320 83161344 83333320 83571432 
714.015 83831744 84058544 84188688 84163744 83943640 83510664 82876136 
717.390 82078392 81183144 80273920 79434104 78745120 78268288 78036992 
720.765 78055112 78292656 78689512 79153288 79573416 79835312 79830416 
724.139 79486544 78781184 77752872 76490976 75121248 73777656 72563032 
727.514 71539200 70719008 70077376 69569048 69148224 68784408 68461000 
730.889 68172448 67915856 67683816 67464432 67246552 67024408 66801460 
734.264 66588552 66398600 66238368 66106088 65991940 65883720 65773524 
737.639 65661124 65552332 65454968 65372536 65301524 65232284 65154628 
741.013 65063864 64963304 64863376 64775556 64707444 64658872 64622924 
744.388 64590128 64554564 64516240 64480372 64453080 64436592 64426600 
747.763 64414652 64392284 64355388 64307360 64256644 64211892 64177132 
751.138 64149476 64120940 64084612 64038104 63986464 63939356 63906304 
754.513 63890680 63888648 63890256 63885616 63870648 63848844 63828812 
757.888 63819752 63826816 63848032 63878512 63913024 63952444 64003432 
761.262 64076312 64178088 64309552 64462996 64627536 64795016 64966456 
764.637 65152048 65370344 65640272 65975316 66382572 66863060 67415128 
768.012 68035976 68721016 69461576 70246584 71070448 71947448 72930464 
771.387 74111096 75610008 77541648 79953520 82775416 85774552 88593080 
774.762 90771944 91863800 91576872 89832864 86817040 82900312 78577608 
778.136 74325208 70494232 67301952 64803712 62938160 61575664 60575320 
781.511 59820624 59225452 58742260 58346568 58026484 57777860 57601636 
784.886 57503352 57492080 57577536 57766276 58060376 58458728 58961944 
788.261 59576368 60316972 61205884 62265956 63519308 64983232 66671788 
791.636 68601488 70793808 73274200 76067264 79183104 82605336 86274776 
795.010 90091368 93909392 97538520 100774936 103399304 105199360 106011040 
798.385 105728224 104335560 101912888 98635248 94747072 90510056 86197056 
801.760 82041728 78212232 74819376 71902208 69443072 67383624 65648868 
805.135 64168640 62888980 61785904 60860928 60132028 59616128 59315728 
808.510 59205476 59233196 59321992 59383340 59340340 59132800 58728068 
811.885 58122116 57331700 56387328 55324216 54182348 53001920 51820440 
815.259 50676192 49600244 48614888 47732788 46956204 46280108 45696492 
818.634 45198988 44784328 44453272 44207672 44048784 43975704 43986704 
822.009 44080356 44259180 44530468 44906856 45403176 46032368 46802248 
825.384 47710784 48743352 49868124 51035172 52178424 53211420 54042772 
828.759 54587860 54779932 54591164 54038456 53185128 52123688 50965380 
832.133 49822716 48784428 47915856 47250792 46791508 46513420 46370204 
835.508 46304104 46247524 46136712 45924112 45581032 45107372 44527568 
838.883 43885776 43232520 42612812 42061112 41594188 41214580 40914556 
842.258 40683064 40509164 40383948 40300940 40254260 40238156 40247864 
845.633 40279964 40333664 40410492 40512440 40640528 40793440 40967236 
849.008 41157784 41362336 41581064 41816532 42072792 42352580 42656456 
852.382 42982708 43328796 43693624 44079552 44491956 44937608 45423480 
855.757 45955124 46535844 47169416 47860772 48617592 49450808 50373504 
859.132 51398480 52539324 53809468 55221144 56787200 58515856 60405460 
862.507 62435364 64560564 66708840 68776416 70646528 72198448 73319080 
865.882 73928672 73984656 73491080 72497672 71096904 69414376 67581600 
869.256 65733784 63988304 62429664 61116012 60074608 59307864 58800300 
872.631 58523440 58441436 58509336 58677816 58896064 59111540 59281164 
876.006 59375100 59380224 59301484 59158884 58982556 58803828 58653276 
879.381 58557144 58534396 58599920 58763844 59030528 59400324 59868088 
882.756 60423968 61053356 61739036 62462716 63203892 63942580 64660452 
886.131 65341724 65979056 66575648 67147880 67722184 68330296 69002400 
889.505 69757400 70599552 71516616 72485776 73477584 74462656 75418352 
892.880 76325592 77169272 77936080 78611160 79178568 79623400 79930176 
896.255 80083504 80068888 79870040 79472224 78866400 78053688 77049176 
899.630 75883768 74603328 73258320 71901344 70581312 69335656 68193808 
903.005 67176656 66296956 65562120 64973956 64528884 64218804 64031772 
906.379 63955784 63979856 64096860 64303600 64599776 64985508 65459900 
909.754 66020564 66664764 67390248 68196912 69085328 70054640 71099408 
913.129 72208232 73364192 74547816 75744224 76946152 78158080 79395480 
916.504 80683168 82051728 83531152 85150856 86934008 88891872 91019272 
919.879 93286104 95635480 97977128 100202104 102198880 103867600 105151448 
923.254 106049360 106625928 106999832 107335272 107823808 108641688 
926.146 109942128 111828632 114333800 117412488 120929656 124677984 
929.039 128360168 131622496 134108024 135457536 135389040 133743312 
931.932 130502792 125815960 119970168 113375512 106473144 99683056 93374832 
935.306 87799248 83104928 79348576 76513376 74543136 73364072 72906952 
938.681 73102752 73877448 75143848 76776888 78610880 80457840 82103848 
942.056 83351792 84057136 84137080 83595576 82512616 81035736 79339784 
945.431 77597312 75961944 74535744 73372312 72482800 71847272 71430336 
948.806 71192968 71103544 71136640 71272800 71496192 71790712 72140432 
952.181 72531664 72953856 73401456 73872896 74368904 74889448 75432656 
955.555 75995024 76572616 77163328 77767176 78385832 79020712 79671048 
958.930 80333600 81002992 81674624 82346848 83022128 83705488 84402032 
962.305 85113808 85839104 86572488 87307768 88040720 88771168 89502480 
965.680 90240048 90987000 91744448 92510800 93284296 94065432 94858480 
969.055 95670336 96508864 97379368 98283312 99219496 100186376 101184896 
972.429 102220896 103303168 104441528 105643744 106912768 108247448 
975.322 109645784 111106824 112633184 114229872 115900680 117645744 
978.215 119458192 121326248 123234400 125169280 127120224 129078824 
981.108 131036120 132979600 134890272 136747040 138529920 140225040 
984.000 141828368 143342720 144772688 146118752 147372576 148517472 
986.893 149534704 150407696 151129328 151702848 152141040 152462720 
989.786 152689600 152847920 152967792 153083360 153233744 153455056 
992.678 153775216 154209904 154759312 155412240 156150928 156960096 
995.571 157828448 158749664 159718896 160728160 161764048 162810336 
998.464 163851552 164877856 165887536 166884816 167874288 168855584 
1001.356 169820800 170755392 171644512 172477488 173252112 173974160 
1004.249 174654560 175304720 175935040 176557872 177189168 177853216 
1007.142 178582608 179411248 180368976 181474528 182730944 184128896 
1010.035 185651664 187283456 189011104 190825584 192719152 194679280 
1012.927 196689360 198731936 200792768 202867216 204960704 207083776 
1015.820 209242400 211430144 213621968 215779536 217857440 219812688 
1018.713 221616304 223253856 224726208 226045696 227237232 228339472 
1021.605 229403296 230496608 231695184 233066656 234664864 236514368 
1024.498 238608928 240915424 243385840 245968688 248609936 251257536 
1027.391 253855056 256331808 258610928 260612304 262262736 263512768 
1030.284 264336704 264731408 264706576 264278944 263468000 262297952 
1033.177 260804944 259038000 257050064 254891392 252592384 250155392 
1036.070 247555328 244749616 241695728 238360208 234731152 230817072 
1038.963 226643856 222249776 217685104 213016512 208321808 203690688 
1041.856 199217776 194980176 191035248 187410064 184102480 181091440 
1044.750 178348400 175849984 173581184 171536976 169717408 168122112 
1047.643 166747488 165586848 164631696 163874112 163305872 162914480 
1050.536 162680544 162575168 162559904 162595840 162648016 162690720 
1053.429 162710624 162700656 162654048 162558640 162392704 162126912 
1056.322 161731056 161176416 160440704 159508560 158369328 157017840 
1059.215 155456736 153700672 151780144 149740688 147642992 145550128 
1062.108 143519424 141599456 139822432 138207408 136764976 135497680 
1065.001 134403120 133470744 132681552 132005584 131404832 130841360 
1067.894 130279424 129693480 129069864 128403368 127693880 126942128 
1070.787 126147912 125311152 124434160 123523752 122590592 121647640 
1073.680 120707128 119779216 118871488 117992392 117152088 116363688 
1076.573 115641536 114995528 114428576 113932520 113492232 113087472 
1079.466 112699960 112318600 111939152 111562440 111190928 110825168 
1082.359 110464248 110108784 109766496 109455944 109206704 109060504 
1085.252 109062168 109255752 109682416 110373576 111350912 112623864 
1088.146 114184744 116003152 118017392 120140320 122253784 124220544 
1091.039 125912992 127216728 128054944 128399624 128269256 127727136 
1093.932 126864416 125799568 124655200 123543872 122565680 121789632 
1096.825 121250672 120951064 120862344 120932504 121090816 121262632 
1099.718 121370368 121337760 121101680 120610672 119834264 118769120 
1102.611 117440616 115902192 114221768 112479080 110749904 109094960 
1105.504 107563696 106189472 104992128 103983184 103165160 102532232 
1108.397 102068856 101750848 101546856 101418648 101328600 101239568 
1111.290 101114760 100921088 100625904 100197848 99612568 98853776 97918784 
1114.665 96818328 95576016 94223880 92794240 91320152 89830504 88349120 
1118.041 86898344 85496824 84159000 82895064 81709096 80599232 79559328 
1121.416 78580984 77655192 76772016 75920312 75085160 74246504 73382672 
1124.791 72471760 71497984 70457720 69360928 68231456 67100316 66002936 
1128.166 64971500 64029240 63190824 62460692 61834648 61300808 60841144 
1131.542 60433980 60052804 59671964 59269200 58828564 58344560 57822676 
1134.917 57278844 56734452 56214684 55744280 55342884 55026056 54802184 
1138.292 54673492 54634940 54675260 54778804 54925984 55096844 55274764 
1141.667 55446508 55604276 55744508 55866240 55969464 56054696 56122784 
1145.042 56176028 56218000 56254168 56289964 56329720 56375632 56427660 
1148.418 56484716 56546492 56614736 56693596 56789316 56907380 57052448 
1151.793 57226676 57430508 57663608 57926136 58219024 58543344 58899520 
1155.168 59286140 59699448 60134200 60584044 61042484 61503088 61958296 
1158.543 62398408 62812016 63184960 63502392 63751324 63920164 63999520 
1161.919 63981740 63858748 63621796 63262692 62774264 62153004 61400028 
1165.294 60521120 59525936 58425900 57234464 55965660 54634488 53258276 
1168.669 51854672 50442160 49038600 47659272 46317044 45022060 43782232 
1172.044 42604444 41494436 40457008 39496292 38614756 37813584 37092340 
1175.420 36450264 35886144 35399424 34989592 34656656 34400068 34219308 
1178.795 34113600 34083100 34129332 34255808 34467576 34769996 35167908 
1182.170 35664116 36260004 36956020 37753296 38654304 39663324 40784416 
1185.545 42019976 43367640 44818788 46358664 47963740 49604032 51243464 
1188.921 52836376 54331768 55676628 56816848 57709320 58327392 58664996 
1192.296 58737780 58580620 58242472 57774264 57225732 56638664 56040368 
1195.671 55445868 54857368 54267940 53664800 53034416 52367640 51660532 
1199.046 50916644 50144916 49357880 48568012 47784976 47015940 46264920 
1202.422 45534812 44828304 44148612 43499068 42881612 42295420 41736172 
1205.797 41196000 40665924 40136860 39601760 39057460 38503988 37944428 
1209.172 37383380 36827644 36284500 35762428 35271320 34821872 34424636 
1212.547 34090160 33827104 33642108 33540190 33524584 33597392 33759952 
1215.923 34012576 34354128 34781664 35291448 35878836 36539964 37272676 
1219.298 38076212 38950568 39895832 40910512 41992488 43139632 44351204 
1222.673 45629132 46977912 48403484 49911540 51505276 53184156 54943736 
1226.048 56775188 58664084 60590256 62525048 64428328 66253260 67944960 
1229.424 69445048 70702320 71671848 72321760 72636344 72617152 72286376 
1232.799 71685448 70880120 69954936 69001512 68122256 67412760 66954672 
1236.174 66820084 67062268 67719592 68819112 70374560 72387200 74841544 
1239.549 77704880 80921712 84410480 88075296 91798880 95449608 98897376 
1242.925 102005064 104641792 106700440 108096896 108787104 108770632 
1245.818 108089672 106821568 105065216 102942600 100580160 98101536 95627920 
1249.193 93254720 91043992 89016144 87143888 85357256 83554008 81629752 
1252.568 79492080 77083712 74396312 71469112 68382960 65236516 62140616 
1255.943 59195108 56472296 54019692 51852508 49959824 48310372 46861520 
1259.319 45568556 44386292 43278532 42218764 41189224 40182000 39195272 
1262.694 38230904 37293004 36385368 35512600 34679080 33889648 33149634 
1266.069 32463900 31836290 31268544 30760652 30310334 29914328 29569758 
1269.444 29273908 29024806 28820564 28658460 28534740 28445016 28384560 
1272.820 28349616 28337520 28346610 28375472 28423046 28487470 28567084 
1276.195 28660374 28766038 28882706 29007448 29135166 29258454 29367846 
1279.570 29454428 29512054 29538404 29534752 29504854 29452230 29378162 
1282.945 29280856 29156178 29000434 28812170 28594650 28355592 28106662 
1286.321 27861972 27635394 27439602 27285814 27181920 27133878 27144496 
1289.696 27213456 27336766 27507692 27718524 27960870 28227750 28513654 
1293.071 28813694 29121878 29432196 29736564 30028112 30302626 30560068 
1296.446 30805288 31046660 31294860 31559416 31848162 32167106 32519962 
1299.822 32909698 33338178 33805688 34309088 34841544 35392372 35947936 
1303.197 36493544 37016596 37506436 37955672 38360024 38717836 39030268 
1306.572 39301648 39539876 39756052 39962344 40171060 40391404 40628448 
1309.947 40883024 41152540 41432756 41718952 42006908 42292204 42569684 
1313.323 42833704 43077904 43295920 43483536 43637492 43756176 43838488 
1316.698 43883064 43888636 43854984 43784464 43683144 43560672 43429520 
1320.073 43301372 43185380 43086684 43005976 42940864 42887648 42843320 
1323.448 42806500 42778124 42761704 42764044 42795856 42871408 43008720 
1326.823 43226444 43538144 43949380 44451364 45021840 45624200 46216196 
1330.199 46757524 47213668 47564660 47804728 47941904 47994380 47986828 
1333.574 47947640 47902984 47876680 47888000 47948864 48065024 48235944 
1336.949 48456640 48719516 49017272 49344668 49698648 50077644 50480416 
1340.324 50904652 51346940 51801212 52258616 52706508 53127272 53495968 
1343.700 53784304 53962136 54001608 53884184 53602340 53160076 52569800 
1347.075 51850044 51022204 50106836 49126340 48104184 47064384 46034872 
1350.450 45044444 44120152 43287756 42566760 41969244 41500560 41159824 
1353.825 40941420 40835740 40831296 40913388 41063956 41264132 41493996 
1357.201 41735184 41973584 42198348 42402080 42579880 42728396 42845700 
1360.576 42933180 42997928 43054632 43124592 43236256 43418536 43695052 
1363.951 44082120 44586124 45205092 45930192 46746968 47634608 48560824 
1367.326 49485340 50357800 51120484 51720024 52109268 52253420 52134488 
1370.702 51750144 51114964 50256680 49220400 48064732 46854912 45664800 
1374.077 44562888 43600308 42807920 42191556 41739012 41428676 41240956 
1377.452 41164416 41199316 41357564 41661324 42141208 42828804 43753132 
1380.827 44930036 46350480 47966216 49679292 51355700 52824480 53907556 
1384.203 54455700 54350808 53533824 52015248 49892692 47346852 44610432 
1387.578 41940044 39540244 37530748 35947112 34756104 33890184 33271172 
1390.953 32831468 32516070 32282374 32099958 31945512 31802990 31665038 
1394.328 31532798 31415168 31323704 31268440 31252914 31273532 31320892 
1397.704 31382542 31447512 31508074 31562872 31616214 31676304 31750620 
1401.079 31843490 31955142 32081910 32219134 32362078 32509606 32664254 
1404.454 32831610 33018406 33229750 33467926 33731912 34019092 34327088 
1407.829 34654824 35001840 35367932 35751420 36148612 36554596 36965184 
1411.205 37377928 37793380 38213680 38641012 39075696 39515892 39958348 
1414.580 40400748 40843564 41289092 41741128 42201892 42669980 43141352 
1417.955 43611408 44080100 44553852 45047384 45574628 46141096 46741620 
1421.330 47361856 47984644 48595396 49189344 49773628 50367104 50994332 
1424.706 51677624 52431788 53260712 54160352 55122832 56140204 57201048 
1428.081 58287072 59372172 60418788 61383580 62228864 62928968 63478776 
1431.456 63893908 64208588 64466304 64709292 64976848 65299944 65704560 
1434.831 66218720 66875084 67710920 68762520 70047792 71558776 73264400 
1438.207 75115960 77055376 79010416 80898720 82614232 84034304 85047064 
1441.582 85554760 85498760 84864936 83676680 81985336 79855976 77367200 
1444.957 74598408 71621992 68512480 65342492 62193304 59168264 56378424 
1448.332 53926948 51885068 50272788 49064308 48206212 47644704 47338688 
1451.708 47265976 47418360 47788748 48362000 49116544 50022544 51051236 
1455.083 52181300 53390632 54653916 55936072 57194320 58388148 59490220 
1458.458 60493200 61400068 62218808 62958612 63630128 64244240 64807832 
1461.833 65321544 65772064 66130476 66359600 66423424 66307180 66028432 
1465.208 65637732 65198944 64762444 64356008 63981584 63626172 63271204 
1468.584 62898172 62487128 62008244 61416744 60652352 59649308 58365368 
1471.959 56812840 55077132 53291688 51590416 50059424 48720852 47554640 
1475.334 46531084 45636384 44883524 44306032 43937720 43801764 43900364 
1478.709 44219888 44741096 45450336 46345096 47431996 48720628 50215356 
1482.085 51911392 53795740 55854108 58076324 60462124 63016952 65742068 
1485.460 68625080 71621600 74642040 77559360 80201176 82366672 83859592 
1488.835 84499352 84166768 82841328 80621568 77714112 74373424 70853088 
1492.210 67338440 63927956 60659172 57521776 54491084 51560120 48749656 
1495.586 46114712 43733268 41677412 39989080 38668216 37685532 36996644 
1498.961 36559500 36343900 36328480 36497252 36835032 37324160 37943596 
1502.336 38671000 39477024 40324572 41165836 41923660 42489836 42724084 
1505.711 42470436 41623764 40195560 38330164 36231516 34070344 31937520 
1509.087 29856582 27823288 25835866 23903634 22056824 20335248 18772326 
1512.462 17391174 16196711 15178186 14315808 13585611 12962148 12418706 
1515.837 11931010 11481758 11065022 10688994 10369754 10122170 9949507 
1519.212 9838730 9760274 9677902 9560251 9397834 9210363 9037725 8916492 
1523.070 8860623 8860656 8891735 8928533 8952851 8961138 8962424 8972132 
1526.927 9002000 9054268 9123054 9200684 9284184 9378467 9493461 9638365 
1530.785 9815107 10015180 10219552 10404199 10550562 10654017 10729476 
1534.160 10802196 10897488 11027806 11191242 11376882 11570734 11761677 
1537.535 11939489 12095535 12219192 12296150 12312444 12261794 12155434 
1540.910 12020384 11887861 11781491 11706837 11652887 11597822 11521294 
1544.286 11411781 11273834 11125527 10991034 10889471 10826892 10796252 
1547.661 10782326 10769724 10747680 10714702 10677278 10645426 10626207 
1551.036 10620197 10621759 10623355 10620028 10612184 10606106 10611675 
1554.411 10638363 10691100 10769792 10869051 10980194 11088680 11171217 
1557.787 11196920 11132224 10964426 10720340 10461898 10250186 10116573 
1561.162 10063568 10074114 10124849 10192550 10259719 10317532 10366802 
1564.537 10416892 10480871 10569473 10685666 10824311 10974247 11123760 
1567.912 11262476 11384331 11488393 11578867 11663983 11753269 11856806 
1571.288 11983528 12139249 12326488 12542795 12780845 13027219 13264749 
1574.663 13477355 13654640 13799058 13927513 14066443 14237018 14449450 
1578.038 14703217 14991668 15309554 15655048 16030556 16440213 16887770 
1581.413 17374034 17896644 18449616 19025240 19611890 20193812 20750866 
1584.789 21257480 21687496 22019386 22239740 22348842 22360388 22303042 
1588.164 22214386 22137358 22116892 22190534 22387564 22725856 23208602 
1591.539 23822456 24533832 25292976 26030934 26668032 27130492 27352786 
1594.914 27295024 26949948 26344438 25534994 24592174 23593882 22606430 
1598.290 21678892 20846002 20125680 19524890 19042098 18669514 18396032 
1601.665 18209614 18100406 18062618 18094258 18195828 18367964 18608124 
1605.040 18909632 19259942 19640488 20028342 20393760 20703670 20925270 
1608.415 21027018 20985808 20790106 20442172 19960060 19375610 18734548 
1611.791 18083792 17464880 16907372 16422216 16004978 15639076 15303342 
1615.166 14975857 14642177 14301494 13967579 13664727 13415941 13236430 
1618.541 13127509 13081134 13082023 13111937 13152781 13187107 13201145 
1621.916 13188609 13150937 13097696 13042754 12999599 12976042 12973720 
1625.292 12989323 13017386 13051530 13085574 13113986 13132017 13137276 
1628.667 13130788 13117742 13107087 13107633 13127270 13169790 13233527 
1632.042 13312032 13394719 13468845 13519089 13531018 13492702 13399845 
1635.417 13260035 13093052 12925485 12778866 12663783 12579801 12518479 
1638.792 12468146 12417274 12358736 12290697 12217727 12148721 12093388 
1642.168 12058129 12043616 12044195 12049135 12045626 12019601 11959788 
1645.543 11859564 11719704 11549978 11368515 11198654 11061793 10973295 
1648.918 10940063 10960450 11025189 11116247 11207970 11262102 11232383 
1652.293 11082051 10810247 10472249 10149472 9902996 9744890 9654627 9602287 
1656.151 9563706 9524721 9479915 9430034 9378670 9328800 9280561 9231313 
1660.008 9175742 9108436 9023719 8917777 8789342 8640698 8479165 8315767 
1663.866 8164280 8036878 7940929 7878066 7843517 7827222 7815178 7791935 
1667.723 7744507 7663933 7549287 7406999 7250439 7094137 6950921 6829865 
1671.581 6734586 6664125 6612279 6568344 6517350 6442351 6331456 6183483 
1675.438 6012581 5842249 5696558 5588437 5516987 5472089 5439711 5409179 
1679.295 5376638 5346346 5327931 5330212 5355035 5393579 5424478 5418943 
1683.153 5347688 5196261 4978721 4736735 4519023 4353861 4245171 4179394 
1687.010 4138515 4105767 4069544 4023725 3965807 3896930 3821212 3745807 
1690.868 3680006 3633126 3612678 3620663 3652639 3695979 3733642 3746108 
1694.725 3718937 3651436 3561462 3479122 3429759 3423948 3453371 3497292 
1698.583 3526754 3512557 3435737 3298964 3131462 2973966 2858816 2795017 
1702.440 2774108 2779277 2793683 2803454 2798418 2774675 2734395 2684849 
1706.297 2635343 2593642 2563844 2546079 2537414 2534114 2533414 2534614 
1710.155 2539880 2552978 2578543 2619375 2676315 2747199 2827933 2914019 
1714.012 3000856 3084774 3162233 3227455 3272856 3288714 3267314 3207193 
1717.870 3117612 3016604 2923492 2852980 2811458 2797051 2803221 2821863 
1721.727 2845976 2870256 2891770 2909649 2923793 2934967 2943307 2949846 
1725.584 2955651 2962556 2971731 2983374 2996486 3008964 3019607 3028983 
1729.442 3040694 3060147 3091849 3137002 3190237 3238638 3261873 3238404 
1733.299 3151987 3004293 2819028 2634876 2486391 2389062 2340755 2327863 
1737.157 2333726 2342321 2341954 2326364 2295518 2254882 2213185 2178850 
1741.014 2156939 2148348 2151012 2161101 2174688 2188941 2203061 2218080 
1744.872 2236764 2261544 2294852 2336491 2384564 2435275 2483758 2525349 
1748.729 2555711 2571110 2568343 2545113 2501487 2441072 2372171 2305378 
1752.586 2251152 2216748 2203161 2205825 2215083 2219013 2206591 2171191 
1756.444 2114185 2044270 1974332 1915522 1874023 1848866 1834125 1820317 
1760.301 1798523 1762758 1710762 1645268 1572735 1501344 1438807 1390772 
1764.159 1360292 1347628 1350155 1362951 1379404 1392999 1399548 1399082 
1768.016 1396191 1397919 1409720 1433289 1463807 1492234 1506564 1498052 
1771.874 1464506 1413144 1357434 1310604 1281259 1270658 1275012 1289169 
1775.731 1309740 1335431 1367106 1405398 1448647 1492932 1532366 1560797 
1779.588 1574730 1574663 1565219 1553215 1544403 1542042 1545899 1552949 
1783.446 1559433 1562426 1560564 1554778 1547063 1540213 1536888 1539881 
1787.303 1551353 1573001 1605325 1646432 1691236 1732118 1759730 1764820 
1791.161 1741766 1691069 1619792 1539548 1462910 1398517 1349988 1316187 
1795.018 1293721 1278734 1268166 1259792 1252282 1244307 1234770 1222875 
1798.875 1208022 1190180 1169947 1147820 1123935 1098555 1071915 1044779 
1802.733 1018574 995293 976829 964508 958199 957136 959627 964608 971748 
1807.073 981710 994695 1010869 1028737 1045543 1058330 1064840 1064508 
1810.930 1058596 1050259 1042122 1036741 1035080 1036608 1040992 1047834 
1814.787 1057400 1070587 1088357 1111145 1138485 1169315 1201942 1234737 
1818.645 1266604 1296347 1323732 1348925 1372424 1395559 1419692 1445489 
1822.502 1472019 1496656 1515275 1523521 1519398 1504502 1484819 1468030 
1826.360 1461380 1467996 1485817 1507960 1524785 1527877 1512748 1481395 
1830.217 1441666 1404368 1378008 1366607 1369333 1382063 1400678 1421620 
1834.074 1444259 1469226 1497853 1530604 1566882 1605591 1645800 1688076 
1837.932 1734879 1788941 1853325 1929666 2017605 2115484 2220378 2329062 
1841.789 2437641 2542146 2638776 2724092 2797818 2862085 2922959 2987210 
1845.647 3059647 3141974 3230994 3320933 3404178 3474780 3529092 3567543 
1849.504 3592599 3608401 3617222 3619628 3613614 3596474 3566072 3522378 
1853.362 3466731 3402274 3331684 3256531 3177086 3093450 3005927 2916187 
1857.219 2826799 2739663 2656045 2575576 2496288 2416682 2336358 2256714 
1861.076 2180848 2112321 2053092 2004090 1964314 1932795 1908500 1892159 
1864.934 1884272 1885337 1893890 1906170 1917152 1921412 1915888 1900279 
1868.791 1878149 1854423 1834292 1820816 1814261 1813562 1816690 1821747 
1872.649 1827470 1832861 1836854 1837819 1835057 1827870 1816790 1803314 
1876.506 1788675 1773470 1756902 1736909 1710995 1677664 1636987 1590958 
1880.364 1542574 1495093 1449911 1407426 1366607 1326357 1286909 1250089 
1884.221 1218588 1195197 1181608 1177123 1179914 1186924 1195131 1202108 
1888.078 1206095 1205829 1200779 1191675 1180080 1169747 1164631 1168285 
1891.936 1182538 1205497 1233308 1259593 1279598 1290664 1294452 1295715 
1895.793 1300734 1313761 1336527 1366508 1399747 1432158 1461680 1488676 
1899.651 1515242 1543771 1574996 1608484 1641976 1673706 1703011 1730788 
1903.508 1758466 1787144 1816756 1845206 1870595 1890895 1905637 1915655 
1907.365 1922444 1926471 1927303 1923309 1912892 1896153 1875254 1853558 
1911.223 1835323 1823644 1818420 1818520 1821614 1825807 1830598 1836920 
1915.080 1845172 1854589 1862243 1863541 1853924 1831530 1797592 1757102 
1918.938 1715718 1677598 1643505 1611544 1578122 1540812 1499947 1458555 
1922.795 1421521 1392733 1373454 1361489 1353212 1344670 1333769 1321372 
1926.653 1309574 1300501 1295483 1293389 1292159 1290431 1287573 1284649 
1930.510 1282721 1282156 1281425 1278169 1269961 1256336 1239887 1224935 
1934.367 1216130 1215864 1223373 1234737 1244839 1250554 1251119 1250122 
1938.225 1251351 1258596 1272187 1289468 1305420 1316154 1319478 1317218 
1942.082 1312598 1309773 1310371 1314459 1319843 1324762 1328518 1332473 
1945.940 1338788 1348958 1362818 1379205 1396191 1413144 1431560 1453136 
1949.797 1480032 1511850 1544536 1572801 1590260 1593586 1582744 1561362 
1953.655 1533430 1502441 1468828 1430795 1385288 1331908 1272586 1214634 
1957.512 1166525 1134631 1122572 1128220 1145960 1168883 1191941 1212508 
1961.369 1230849 1248029 1264245 1278634 1290199 1298607 1305486 1314758 
1965.227 1329216 1350919 1379138 1410551 1440935 1467631 1488809 1505333 
1969.084 1518135 1527578 1532532 1532299 1526613 1517669 1510121 1508658 
1972.942 1516106 1533430 1557504 1585172 1616100 1654614 1708932 1789207 
1976.799 1901278 2043171 2203927 2365274 2508619 2618309 2685783 2710255 
1980.656 2695885 2650511 2581776 2499388 2412251 2329362 2260478 2212186 
1984.514 2187542 2184944 2197965 2218014 2237663 2252984 2264242 2274134 
1988.371 2286358 2301880 2319602 2336758 2351016 2362709 2375569 2395026 
1992.229 2425912 2469230 2521416 2575576 2624109 2660879 2682482 2689450 
1996.086 2683649 2666780 2640477 2605675 2563644 2516984 2470629 2428711 
1999.944 2395292 2370971 2353681 2338490 2321201 2300015 2275966 2254882 
2003.801 2240694 2238629 2250086 2272769 2301880 2332160 2357079 2371771 
2007.658 2372870 2357579 2325931 2280996 2228804 2178317 2139657 2120112 
2011.516 2123108 2146883 2184478 2227439 2269738 2307810 2342887 2377301 
2015.373 2413350 2449869 2484992 2513918 2535014 2550179 2563677 2580909 
2019.231 2605742 2637877 2673014 2706220 2732527 2750600 2763104 2774975 
2023.088 2790015 2809790 2832602 2853980 2869256 2875893 2873525 2864320 
2026.946 2851846 2837905 2824564 2813059 2803821 2799919 2803021 2815960 
2030.803 2838505 2870223 2907881 2950513 2997753 3052173 3114975 3187633 
2034.660 3266179 3344405 3414898 3471941 3513426 3543122 3567743 3593735 
2038.518 3626043 3665170 3708077 3750820 3790460 3825390 3856846 3886633 
2042.375 3914483 3938857 3956344 3963165 3958618 3945042 3927522 3912944 
2046.233 3908364 3918829 3945845 3988478 4041517 4097573 4146644 4177120 
2050.090 4178725 4145038 4075665 3977845 3866073 3756536 3666573 3607834 
2053.948 3583110 3587053 3608268 3633326 3651470 3658119 3652539 3638238 
2057.805 3618525 3595873 3570883 3544592 3518570 3496725 3483832 3483598 
2061.662 3497192 3522244 3553111 3583344 3609070 3629384 3645723 3661728 
2065.520 3679772 3699221 3718169 3732907 3740660 3740794 3734912 3725087 
2069.377 3714292 3703398 3691936 3678903 3662998 3644587 3625140 3606564 
2073.235 3589559 3575093 3562765 3552175 3544258 3539949 3540350 3545327 
2077.092 3552843 3558556 3558055 3547899 3527756 3499798 3469169 3440479 
2080.949 3417436 3401172 3390152 3382472 3376294 3371319 3368046 3366944 
2084.807 3367946 3368881 3367078 3360166 3347143 3328979 3308412 3287679 
2088.664 3268049 3248887 3227689 3201919 3170277 3133197 3092950 3053074 
2092.522 3017105 2987411 2966259 2954683 2954016 2965559 2988478 3021042 
2096.379 3058646 3095186 3124854 3144578 3154724 3159396 3165070 3176652 
2100.237 3196679 3224151 3254695 3283139 3306242 3322635 3334288 3344138 
2104.094 3354556 3366744 3380702 3395395 3411224 3429759 3453137 3483531 
2107.951 3521743 3566206 3613881 3661695 3707241 3749751 3790159 3829167 
2111.809 3866206 3899906 3927388 3946012 3954806 3954705 3948018 3938121 
2115.666 3928057 3919096 3912476 3908398 3907763 3911908 3921604 3936550 
2119.524 3954940 3972929 3986405 3992926 3992491 3987676 3983295 3982961 
2123.381 3987977 3996170 4002590 4001888 3989716 3965205 3929963 3888204 
2127.239 3843842 3798950 3753828 3707375 3657885 3604827 3548968 3492683 
2131.096 3438041 3387314 3342202 3303805 3274091 3255229 3248987 3256398 
2134.953 3276094 3304473 3336792 3368647 3396230 3418705 3435603 3447426 
2138.811 3452937 3451267 3440680 3421777 3398134 3373957 3354990 3344238 
2142.668 3340332 3338061 3329814 3308746 3272088 3221914 3164169 3107099 
2146.526 3056444 3014335 2979537 2948378 2916387 2881097 2841940 2799319 
2150.383 2753367 2703887 2649411 2589509 2525216 2457966 2389029 2318569 
2154.240 2242859 2158204 2063146 1963082 1872658 1815525 1818553 1903042 
2158.098 2076130 2324232 2616809 2916154 3185597 3400705 3553879 3648496 
2161.955 3694676 3706372 3695545 3671953 3645021 3623503 3613614 3620396 
2165.813 3643952 3679405 3719071 3754029 3777558 3786215 3779898 3759510 
2169.670 3726858 3682178 3626043 3559759 3488040 3417669 3358596 3318529 
2173.528 3302336 3308412 3330115 3357662 3380401 3391956 3389150 3373055 
2177.385 3347143 3315423 3281603 3249254 3222047 3203255 3196278 3202987 
2181.242 3222448 3251257 3284474 3316392 3343671 3364941 3382105 3397098 
2185.100 3412760 3429792 3448562 3469904 3493251 3520908 3554246 3594035 
2188.957 3638606 3684083 3725287 3756101 3773247 3775252 3763554 3742164 
2192.815 3714760 3685553 3658553 3635699 3619661 3611542 3611442 3617890 
2196.672 3628281 3638104 3643450 3642181 3633928 3620430 3605896 3592632 
2200.530 3582776 3576896 3574257 3573522 3574992 3578968 3585850 3596040 
2204.387 3607934 3618859 3626343 3628682 3625742 3620697 3617356 3619360 
2208.244 3629150 3646391 3668979 3694208 3719305 3742900 3765192 3787051 
2212.102 3809011 3831942 3854907 3876971 3896429 3911741 3921838 3926485 
2215.959 3925717 3921370 3915920 3912644 3913747 3920701 3932537 3946213 
2219.817 3956611 3959487 3952599 3936550 3915218 3894857 3881184 3878041 
2223.674 3885831 3902146 3923209 3945343 3966007 3985034 4003660 4022354 
2227.531 4041417 4059410 4073624 4081986 4082990 4077136 4065865 4051650 
2231.389 4036367 4021685 4008342 3995902 3984365 3973732 3964034 3955575 
2235.246 3949422 3946714 3948954 3958250 3975604 4001754 4035765 4074327 
2239.104 4113561 4148918 4176751 4194951 4204218 4206694 4205523 4204453 
2242.961 4206125 4212750 4225765 4245372 4270902 4301219 4333178 4363232 
2246.819 4388301 4405505 4414275 4416417 4415078 4413605 4414810 4419329 
2250.676 4426158 4433589 4440150 4445707 4452167 4462277 4478413 4501714 
2254.533 4530708 4562115 4591883 4615525 4630025 4634111 4627882 4612142 
2258.391 4588970 4560508 4529502 4499236 4473258 4454276 4444468 4444367 
2262.248 4453272 4469006 4489762 4513365 4538777 4565597 4593457 4622156 
2266.106 4651224 4679994 4708062 4735060 4760787 4784907 4806784 4825479 
2269.963 4840020 4849904 4855366 4857342 4857141 4855935 4853992 4851144 
2273.821 4846754 4840489 4833084 4826249 4822430 4823401 4830136 4842064 
2277.678 4857175 4873661 4889209 4903483 4916821 4929589 4942626 4955863 
2281.535 4968699 4980765 4992194 5003926 5017400 5034093 5054038 5076263 
2285.393 5098658 5118740 5134598 5145696 5152771 5157230 5160684 5163567 
2289.250 5165915 5166719 5165345 5161757 5156928 5152402 5149821 5150491 
2293.108 5155017 5163232 5174901 5189890 5207428 5227716 5249548 5271616 
2296.965 5292310 5309550 5322363 5330581 5335344 5338161 5340946 5344535 
2300.823 5349097 5353927 5357785 5359127 5357483 5352955 5346112 5338497 
2304.680 5331788 5327562 5327529 5332594 5342992 5357752 5375330 5393479 
2308.537 5409850 5423271 5433336 5441120 5448334 5456789 5467660 5481015 
2312.395 5496048 5511752 5526685 5540612 5553868 5567427 5582530 5599983 
2316.252 5620626 5644391 5670943 5700015 5730701 5762363 5794329 5826432 
2320.110 5858839 5892223 5927188 5963365 5998907 6029513 6049370 6052293 
2323.967 6033309 5990508 5926483 5847757 5763336 5682894 5615053 5564306 
2327.824 5531786 5514806 5508698 5508161 5509000 5508598 5506316 5503095 
2331.682 5500477 5500208 5504269 5514202 5530544 5553466 5581389 5611966 
2335.539 5642377 5669936 5693066 5711531 5726571 5740169 5754103 5769548 
2339.397 5786505 5804705 5823308 5841946 5860484 5879191 5897530 5914458 
2343.254 5928061 5936324 5938407 5934980 5928733 5924601 5927927 5943613 
2347.112 5975223 6023970 6088984 6167889 6256892 6351595 6447631 6540256 
2350.969 6625803 6701642 6766523 6820743 6866050 6904898 6939709 6972839 
2354.826 7006174 7040926 7078408 7119161 7163523 7211156 7260816 7311223 
2358.684 7360793 7408550 7454828 7500302 7546320 7593456 7641541 7689396 
2362.541 7735164 7777126 7814807 7848645 7880090 7910829 7941975 7973393 
2366.399 8003869 8031275 8053552 8068674 8075695 8074211 8064387 8047443 
2370.256 8024356 7997355 7968737 7940828 7915959 7895983 7881912 7874456 
2374.114 7874286 7881879 7898176 7924563 7961953 8010923 8071510 8142504 
2377.971 8222761 8311038 8406428 8508595 8617648 8733490 8855956 8984309 
2381.828 9117335 9253483 9391231 9528243 9662013 9789655 9907437 10011959 
2385.686 10100396 10171146 10223961 10260262 10282076 10291779 10291339 
2389.061 10282042 10264638 10239668 10207645 10168874 10123967 10073164 
2392.436 10016706 9954728 9887607 9816497 9742958 9669500 9598256 9531326 
2396.294 9470263 9416049 9369494 9331475 9303174 9286215 9281476 9289633 
2400.151 9310181 9342308 9384696 9436772 9498101 9568956 9649681 9739875 
2404.009 9838696 9944625 10056175 10172842 10295037 10424325 10562241 
2407.384 10709845 10867081 11032394 11203754 11379127 11557191 11737609 
2410.759 11920452 12105688 12292571 12479058 12662350 12839030 13006051 
2414.134 13160774 13300859 13424519 13530300 13616722 13683431 13731170 
2417.510 13761641 13777751 13782641 13778469 13766464 13746559 13717764 
2420.885 13679157 13630569 13572792 13507843 13438393 13366904 13295837 
2424.260 13227583 13163984 13107395 13060066 13023839 13000042 12989596 
2427.635 12992156 13007383 13035584 13077139 13133314 13205448 13294129 
2431.010 13398786 13517756 13648862 13789686 13939351 14097863 14266361 
2434.386 14446539 14639435 14845173 15063288 15292461 15530959 15778245 
2437.761 16033512 16296737 16568590 16849912 17141898 17446424 17765836 
2441.136 18102202 18457222 18831494 19224512 19634560 20059604 20497778 
2444.511 20948150 21410368 21884404 22369738 22865394 23368678 23876330 
2447.887 24384994 24891554 25393716 25890480 26381406 26866648 27346292 
2451.262 27820038 28287122 28745822 29193634 29626512 30040432 30430262 
2454.637 30790776 31116990 31404160 31647432 31842422 31984780 32070064 
2458.012 32095178 32057616 31956640 31792436 31566578 31281188 30938482 
2461.388 30541372 30092276 29594764 29052826 28471374 27855718 27212360 
2464.763 26547906 25868780 25182288 24494812 23812972 23143944 22493738 
2468.138 21868654 21274914 20716668 20198184 19721652 19288726 18899320 
2471.513 18552376 18245620 17975686 17738466 17528938 17341962 17172920 
2474.889 17018382 16875748 16743870 16622189 16510351 16407557 16312355 
2478.264 16222849 16137455 16054999 15974760 15897285 15822778 15751686 
2481.639 15683834 15618260 15553589 15488894 15423624 15358021 15293113 
2485.014 15230172 15170706 15115810 15065998 15021062 14980453 14943414 
2488.390 14909327 14877815 14848499 14821551 14797278 14776229 14758540 
2491.765 14744006 14732660 14723577 14716139 14709969 14704690 14700235 
2495.140 14696808 14694237 14692009 14689301 14685257 14678882 14669697 
2498.515 14657839 14643719 14628024 14611370 14593722 14574876 14554284 
2501.891 14531258 14505769 14478499 14450307 14423143 14398824 14379131 
2505.266 14365294 14358033 14357074 14361390 14369747 14379541 14388857 
2508.641 14395297 14396735 14391803 14380090 14361219 14335704 14304405 
2512.016 14268279 14227706 14183233 14134419 14080989 14021850 13956458 
2515.392 13884645 13807301 13726211 13644245 13564928 13491232 13425749 
2518.767 13369604 13322623 13283402 13249991 13220443 13193494 13168390 
2522.142 13145438 13125084 13108282 13095852 13088340 13085984 13088545 
2525.517 13095306 13105551 13117742 13130514 13143014 13155069 13166716 
2528.893 13179217 13193596 13210811 13231442 13255320 13281762 13310664 
2532.268 13341620 13374250 13408627 13444852 13481798 13519226 13556383 
2535.643 13593133 13630125 13668659 13709898 13754801 13803368 13854438 
2539.018 13906608 13958408 14008778 14058093 14106933 14156292 14206547 
2542.394 14257357 14307898 14357109 14404065 14449107 14493059 14537117 
2545.769 14582071 14628161 14674735 14721006 14766287 14810271 14853470 
2549.144 14896468 14939813 14983128 15025693 15066409 15104248 15138831 
2552.519 15170259 15199563 15227186 15253817 15279385 15303479 15325446 
2555.895 15345113 15362346 15377210 15389911 15400038 15407007 15410063 
2559.270 15408278 15401412 15389430 15372437 15351052 15325273 15295275 
2562.645 15260921 15222485 15180244 15134988 15087645 15038830 14989611 
2566.020 14940877 14893382 14848362 14807562 14772046 14743115 14720937 
2569.396 14705102 14694580 14688650 14686491 14688307 14694409 14705479 
2572.771 14721555 14742464 14767419 14795152 14825322 14857516 14892250 
2576.146 14930142 14970919 15014546 15059755 15105552 15150907 15195926 
2579.521 15241050 15287278 15335469 15385997 15438559 15492636 15547408 
2582.896 15602839 15659068 15717020 15776871 15839066 15903195 15968401 
2586.272 16034028 16099527 16164899 16230555 16296910 16363859 16431231 
2589.647 16498236 16564012 16628008 16690118 16750138 16808548 16865482 
2593.022 16921116 16975276 17028064 17079378 17129420 17178434 17226662 
2596.397 17274446 17322066 17370206 17419798 17471950 17528352 17589936 
2599.773 17657844 17732218 17813060 17899890 17992262 18089836 18192132 
2603.148 18298770 18408546 18520356 18632956 18745100 18856650 18968124 
2606.523 19080252 19194382 19311036 19430182 19550918 19671690 19790968 
2609.898 19907470 20020360 20128908 20232518 20330458 20421576 20503962 
2613.274 20576462 20637646 20686850 20724140 20749858 20765082 20770990 
2616.649 20768766 20759902 20745582 20727128 20705372 20681394 20655576 
2620.024 20628544 20600678 20572190 20543390 20514558 20485692 20457036 
2623.399 20428906 20402128 20377994 20358096 20344588 20339102 20342400 
2626.775 20354694 20374382 20400046 20429842 20462384 20497606 20536094 
2630.150 20578406 20625658 20677886 20734530 20794416 20856466 20919602 
2633.525 20983686 21049032 21116266 21186118 21258978 21334700 21413290 
2636.900 21493846 21575844 21658728 21742184 21825588 21909042 21992720 
2640.276 22076730 22161488 22247656 22335028 22423500 22512128 22599590 
2643.651 22684484 22765658 22842798 22916248 22987196 23057490 23129300 
2647.026 23204092 23282986 23366510 23454214 23545398 23639082 23734504 
2650.401 23831314 23929508 24029510 24131954 24237644 24347250 24461370 
2653.777 24579904 24703448 24831520 24964016 25100976 25242020 25386936 
2657.152 25535310 25686580 25840682 25997126 26155984 26317224 26480706 
2660.527 26646084 26812508 26978752 27143508 27305854 27465122 27621692 
2663.902 27776518 27931364 28087222 28245572 28406880 28571260 28738318 
2667.278 28907708 29079360 29253350 29430070 29609980 29793268 29979578 
2670.653 30168526 30359120 30550152 30741020 30930868 31119376 31306684 
2674.028 31492468 31677016 31859748 32040172 32217208 32390032 32557528 
2677.403 32719378 32875388 33026238 33173096 33317786 33462628 33609924 
2680.779 33762744 33923680 34095428 34279832 34478332 34691464 34918956 
2684.154 35160256 35414556 35681164 35959348 36248872 36549372 36860392 
2687.529 37180944 37510336 37847532 38191716 38542624 38900296 39264908 
2690.904 39636792 40015676 40401364 40793480 41191848 41596596 42008076 
2694.280 42426852 42853596 43288416 43731184 44181444 44638524 45101932 
2697.655 45570952 46044856 46523044 47004384 47487544 47971804 48456048 
2701.030 48939864 49422848 49904516 50383848 50859312 51328292 51788260 
2704.405 52236828 52671420 53089940 53489860 53868428 54222476 54547920 
2707.781 54841804 55101132 55324892 55513148 55666796 55786964 55874608 
2711.156 55929892 55952504 55942140 55898688 55822908 55715612 55577804 
2714.531 55410104 55212940 54985776 54728324 54440528 54123008 53777324 
2717.906 53405472 53009892 52593212 52158024 51707484 51244584 50772976 
2721.281 50296820 49820596 49348636 48885536 48434932 47999928 47583288 
2724.657 47186884 46812064 46460096 46131624 45827632 45549384 45297724 
2728.032 45073924 44878712 44712524 44575184 44466116 44383832 44327168 
2731.407 44294292 44283908 44294512 44324892 44374068 44441232 44525880 
2734.782 44627544 44746020 44880768 45031100 45195348 45371320 45555896 
2738.158 45745932 45938144 46129452 46317560 46500104 46675316 46841180 
2741.533 46996260 47139536 47270816 47391232 47502888 47608396 47710452 
2744.908 47811236 47911972 48013028 48114144 48215468 48317148 48419892 
2748.283 48524400 48631232 48740236 48851164 48963232 49076400 49190900 
2751.659 49307952 49429608 49557384 49693632 49839880 49997484 50167640 
2755.034 50351548 50550172 50764376 50994372 51239996 51499940 51772804 
2758.409 52056184 52347716 52644268 52941844 53235764 53520664 53790452 
2761.784 54039544 54263360 54458332 54622692 54755460 54856656 54925984 
2765.160 54963364 54968852 54942644 54886320 54801884 54692548 54562084 
2768.535 54414728 54254688 54086076 53912880 53738852 53567404 53401648 
2771.910 53243740 53095032 52956216 52827436 52708680 52599908 52501072 
2775.285 52411860 52331492 52258616 52190456 52123724 52054320 51977488 
2778.661 51888728 51783704 51658704 51510572 51337616 51139196 50916272 
2782.036 50670976 50406656 50126952 49836204 49538592 49238028 48938384 
2785.411 48643200 48355220 48076872 47809388 47553048 47307392 47071032 
2788.786 46843212 46622964 46410208 46205360 46008940 45821812 45643892 
2792.162 45474580 45313096 45158328 45009380 44865628 44726556 44592112 
2795.537 44462008 44335356 44211412 44088464 43964996 43839224 43709120 
2798.912 43573128 43429852 43278128 43117312 42947556 42768836 42581672 
2802.287 42386592 42183892 41973764 41756412 41531912 41301152 41065232 
2805.663 40826020 40585664 40346572 40111240 39882104 39661040 39449920 
2809.038 39250256 39063184 38889356 38728924 38581912 38448128 38327416 
2812.413 38219432 38124716 38043368 37975452 37920888 37879128 37849448 
2815.788 37830760 37822368 37823636 37834916 37856788 37890592 37938100 
2819.164 38001020 38081164 38180536 38300236 38441176 38603312 38785400 
2822.539 38985540 39201184 39429744 39668480 39915340 40168768 40426932 
2825.914 40687940 40949360 41207624 41458636 41698052 41921180 42124560 
2829.289 42304876 42459512 42587412 42687308 42758964 42802696 42819588 
2832.665 42811216 42780136 42729864 42663912 42586204 42501168 42412092 
2836.040 42322008 42232276 42144020 42056808 41970080 41882940 41795448 
2839.415 41708300 41623144 41541940 41467276 41401408 41346120 41303228 
2842.790 41274224 41260888 41265260 41289528 41336136 41407024 41502784 
2846.166 41623032 41765024 41924464 42094552 42266748 42431524 42577616 
2849.541 42694876 42774100 42808436 42794616 42732788 42627248 42484432 
2852.916 42313168 42123904 41926072 41729532 41542636 41372180 41223508 
2856.291 41100016 41002920 40931556 40883244 40854268 40839452 40833772 
2859.667 40832136 40829916 40823472 40810220 40788344 40757412 40717708 
2863.042 40670436 40617572 40560888 40502944 40445916 40392276 40344496 
2866.417 40304468 40274436 40256004 40250372 40258152 40279564 40314792 
2869.792 40363332 40424604 40497636 40580644 40671312 40766580 40863188 
2873.167 40958644 41051536 41141940 41231884 41324908 41424880 41535304 
2876.543 41658884 41796396 41947456 42110468 42283332 42464336 42652032 
2879.918 42845332 43044244 43248552 43458048 43672812 43891896 44114096 
2883.293 44337960 44561160 44780988 44995268 45201676 45398504 45584824 
2886.668 45760252 45924740 46079008 46223788 46359952 46489116 46613044 
2890.044 46733500 46852844 46973296 47097028 47226672 47365108 47515564 
2893.419 47681976 47868764 48079388 48317148 48583648 48878012 49196692 
2896.794 49533468 49878532 50218892 50540156 50825752 51059320 51227840 
2900.169 51321880 51337840 51278700 51153024 50973988 50755956 50514400 
2903.545 50262560 50010792 49767532 49538408 49327552 49137880 48971352 
2906.920 48829064 48711216 48617260 48546224 48497096 48469160 48462196 
2910.295 48476276 48511248 48566452 48640200 48729712 48830732 48937752 
2913.670 49044868 49145188 49231872 49298344 49338876 49349196 49326332 
2917.046 49269872 49181068 49062752 48919208 48755288 48575756 48384852 
2920.421 48186072 47981576 47772400 47558744 47340348 47116860 46888244 
2923.796 46655064 46418352 46179492 45939948 45700612 45462184 45225168 
2927.171 44989792 44756820 44527348 44302988 44086188 43879360 43685088 
2930.547 43505988 43344500 43202508 43081708 42983444 42908016 42855464 
2933.922 42825292 42816700 42829240 42862776 42917452 42993208 43089720 
2937.297 43205400 43337436 43482036 43634856 43792164 43951100 44110288 
2940.672 44269304 44428348 44587008 44743484 44894580 45035144 45158328 
2944.048 45256536 45321740 45345500 45321296 45244180 45112372 44927540 
2947.423 44695852 44427176 44133136 43827128 43520856 43223296 42940096 
2950.798 42673308 42422428 42185204 41958732 41741240 41530968 41326912 
2954.173 41128100 40933084 40740232 40547392 40352896 40155320 39954532 
2957.549 39751332 39547100 39343940 39144072 38949404 38761452 38581152 
2960.924 38408524 38243060 38084024 37930432 37782104 37639424 37503688 
2964.299 37376988 37261772 37160120 37073176 37001660 36944728 36901112 
2967.674 36869120 36846612 36831392 36820864 36812060 36801096 36784652 
2971.050 36759048 36721692 36672044 36610792 36540648 36465292 36389368 
2974.425 36316776 36250780 36192728 36141840 36095356 36047324 35989980 
2977.800 35914032 35809172 35666308 35478512 35242356 34958528 34632360 
2981.175 34272908 33891044 33499170 33109366 32731560 32374110 32042634 
2984.551 31740070 31467992 31226496 31015236 30834422 30685010 30568566 
2987.926 30486630 30438722 30420880 30423544 30432358 30427986 30388400 
2991.301 30293992 30130168 29890298 29578058 29206320 28795210 28366734 
2994.676 27943060 27541970 27174476 26845888 26555656 26299938 26073118 
2998.052 25869414 25684260 25513874 25355848 25208624 25070822 24941488 
3001.427 24819698 24704990 24596628 24494040 24396734 24303866 24214486 
3004.802 24127714 24042784 23959232 23877238 23797290 23720192 23647132 
3008.177 23579014 23516750 23460788 23411096 23367280 23328506 23293964 
3011.552 23262396 23232824 23204476 23177038 23150688 23126188 23104908 
3014.928 23088204 23077826 23074856 23080098 23093620 23114378 23141288 
3018.303 23172110 23204582 23236388 23265332 23289664 23308088 23319940 
3021.678 23324798 23323016 23314800 23300886 23282078 23259286 23233872 
3025.053 23207062 23180604 23156280 23135590 23120004 23110568 23107424 
3028.429 23110220 23117872 23128356 23139714 23149046 23154426 23154182 
3031.804 23147228 23133354 23113364 23088204 23059166 23027514 22994462 
3035.179 22960926 22927950 22896094 22866440 22839654 22816746 22798586 
3038.554 22786052 22779976 22781022 22789612 22805956 22829528 22859842 
3041.930 22895606 22935112 22976960 23019790 23062522 23104382 23145200 
3045.305 23184448 23221988 23257432 23290572 23321270 23349694 23376512 
3048.680 23402388 23428194 23454110 23480270 23506012 23530600 23553024 
3052.055 23572578 23588880 23601964 23611934 23619002 23623620 23625998 
3055.431 23626488 23625684 23624248 23623026 23622850 23624320 23627748 
3058.806 23633276 23640624 23649442 23659098 23669106 23679042 23688418 
3062.181 23697236 23705600 23714070 23723482 23734854 23749204 23767472 
3065.556 23790150 23817276 23848710 23883822 23921980 23962348 24004262 
3068.932 24046914 24089816 24132372 24174198 24215080 24255056 24294090 
3072.307 24332530 24370766 24409002 24447874 24487872 24529486 24573276 
3075.682 24619702 24668342 24718952 24770654 24822538 24873552 24923346 
3079.057 24971352 25017890 25063452 25108348 25153006 25197352 25241492 
3082.433 25285146 25327994 25369968 25410718 25450486 25488890 25526206 
3085.808 25562544 25598566 25634838 25672202 25711330 25752462 25795850 
3089.183 25841140 25888090 25936342 25985836 26036494 26088670 26142296 
3092.558 26197370 26253614 26310464 26367498 26424434 26481516 26539064 
3095.934 26597924 26658766 26722082 26788050 26856214 26925870 26995958 
3099.309 27065248 27132892 27198500 27261892 27323568 27384334 27445074 
3102.684 27506420 27568908 27632426 27696804 27761508 27826290 27891156 
3106.059 27956206 28021902 28088564 28156118 28224708 28293736 28362914 
3109.435 28432068 28501304 28570870 28641296 28712902 28785864 28860220 
3112.810 28935758 29011840 29088362 29164930 29241230 29317152 29392310 
3116.185 29466344 29539044 29610230 29680044 29749230 29818180 29887246 
3119.560 29956856 30026656 30096324 30164974 30232570 30298752 30364166 
3122.936 30429908 30496654 30565402 30636438 30709476 30783770 30858432 
3126.311 30932576 31006020 31078942 31151732 31225178 31299810 31375524 
3129.686 31451962 31528630 31604528 31679154 31752474 31824488 31895802 
3133.061 31966802 32037708 32108594 32179418 32250002 32320422 32390994 
3136.437 32462150 32534852 32609568 32686904 32767076 32849800 32934722 
3139.812 33021052 33107902 33194482 33279612 33362974 33444162 33523258 
3143.187 33600760 33677804 33755188 33833732 33914188 33996376 34080088 
3146.562 34165000 34250712 34337276 34425068 34514672 34606488 34700652 
3149.938 34796492 34893212 34989236 35083340 35174732 35263452 35350172 
3153.313 35436020 35522416 35610160 35699476 35789740 35879804 35968668 
3156.688 36055788 36141444 36226832 36313568 36403528 36497468 36595436 
3160.063 36696416 36798968 36901692 37004004 37105948 37208416 37312392 
3163.438 37418340 37526048 37634512 37742200 37848072 37951660 38053896 
3166.814 38155432 38257788 38361072 38464996 38568440 38669772 38767936 
3170.189 38862504 38953680 39042088 39128484 39212608 39293924 39371260 
3173.564 39443388 39509936 39570872 39626988 39678972 39727912 39774464 
3176.939 39819128 39862780 39906584 39951916 40000124 40052264 40108480 
3180.315 40168004 40229544 40291380 40352096 40411076 40468244 40524296 
3183.690 40580204 40636928 40695764 40757304 40822524 40892052 40965744 
3187.065 41043164 41123328 41204340 41284608 41363032 41439424 41514304 
3190.440 41589192 41665740 41744812 41827296 41913044 42001288 42090976 
3193.816 42181040 42270764 42359008 42444824 42527660 42607000 42682956 
3197.191 42756480 42829132 42902640 42978540 43057452 43139232 43223044 
3200.566 43307452 43391548 43474676 43556752 43638080 43719016 43799600 
3203.941 43880200 43961040 44042476 44125396 44210348 44297448 44386324 
3207.317 44475660 44563692 44649028 44730704 44808760 44884516 44959180 
3210.692 45034040 45109948 45186780 45264440 45342444 45421088 45500996 
3214.067 45583168 45668592 45757636 45849796 45944112 46039076 46133284 
3217.442 46225964 46316232 46404196 46490224 46574496 46657756 46740808 
3220.818 46824392 46909540 46996924 47087020 47179388 47273252 47367324 
3224.193 47460232 47551056 47639084 47724060 47806764 47888184 47969656 
3227.568 48053032 48139388 48229760 48324300 48422264 48522180 48622336 
3230.943 48721296 48818128 48912868 49006476 49099960 49194204 49289396 
3234.319 49385092 49480624 49575692 49670600 49766268 49864112 49965324 
3237.694 50070208 50178312 50288488 50399252 50509860 50620196 50730856 
3241.069 50842852 50956700 51072216 51188700 51305060 51420260 51534260 
3244.444 51647884 51762388 51879392 51999636 52123016 52249236 52377060 
3247.820 52505520 52634616 52764496 52895584 53028612 53163520 53299780 
3251.195 53436384 53572128 53705668 53836324 53964016 54088928 54212040 
3254.570 54334812 54458516 54584216 54712728 54843688 54976152 55108316 
3257.945 55238488 55365088 55487056 55604048 55716704 55825584 55932004 
3261.321 56036412 56139488 56241080 56341076 56439132 56534412 56626248 
3264.696 56713756 56796112 56873156 56945036 57012776 57077692 57141444 
3268.071 57204752 57268336 57332000 57394960 57456340 57515384 57571708 
3271.446 57624976 57674960 57721204 57763248 57800832 57833652 57862196 
3274.822 57887256 57910120 57931820 57953208 57974300 57995280 58015804 
3278.197 58035876 58056024 58077084 58099580 58124008 58150488 58178408 
3281.572 58206708 58234556 58261076 58285936 58309468 58332132 58354528 
3284.947 58377116 58400008 58423280 58446328 58468772 58490076 58510208 
3288.323 58529620 58548880 58569052 58591308 58616224 58643984 58674440 
3291.698 58706792 58740664 58775828 58812324 58850268 58889920 58930900 
3295.073 58971848 59011664 59048976 59083028 59114428 59144344 59174416 
3298.448 59206428 59241172 59278392 59317208 59356220 59394280 59431212 
3301.823 59467648 59504696 59544216 59587540 59636004 59689948 59749520 
3305.199 59813820 59882192 59953132 60025376 60097856 60170388 60243276 
3308.574 60317736 60395292 60477016 60563020 60652736 60744492 60837332 
3311.949 60930576 61024984 61122612 61225872 61336372 61454492 61579444 
3315.324 61708896 61840760 61974116 62109000 62246684 62389112 62537140 
3318.700 62690572 62847852 63006840 63165308 63322104 63477388 63631928 
3322.075 63787052 63943348 64100504 64257680 64413568 64567060 64717712 
3325.450 64865224 65009824 65151356 65289004 65421916 65548672 65668680 
3328.825 65781080 65885804 65982720 66071676 66152504 66224700 66288308 
3332.201 66342576 66387244 66421300 66443504 66452072 66445856 66424580 
3335.576 66388904 66341348 66284640 66221580 66153584 66080472 66000888 
3338.951 65912216 65812312 65699972 65575340 65439680 65294816 65142652 
3342.326 64984388 64820448 64651220 64476260 64295532 64108648 63914976 
3345.702 63713840 63504124 63285148 63057104 62820324 62576324 62326992 
3349.077 62073568 61817492 61559208 61299284 61037756 60775400 60513388 
3352.452 60253020 59995356 59741536 59491512 59245200 59002252 58762176 
3355.827 58524652 58289344 58056212 57824904 57595504 57368000 57142992 
3359.203 56921392 56704132 56491808 56284908 56083348 55886212 55693312 
3362.578 55503924 55317888 55135516 54956744 54781660 54609800 54440452 
3365.953 54273648 54109044 53947620 53790228 53637696 53490648 53348592 
3369.328 53210748 53075300 52940944 52806328 52670752 52533676 52394928 
3372.704 52254240 52111436 51966436 51819092 51669972 51519448 51367860 
3376.079 51215092 51060816 50903904 50744000 50580696 50414548 50246564 
3379.454 50077940 49909680 49741744 49573616 49404064 49231944 49056220 
3382.829 48876604 48693160 48506544 48317260 48125988 47933396 47740444 
3386.205 47548204 47357940 47171080 46988136 46809072 46633372 46459432 
3389.580 46285712 46111360 45936044 45760436 45585928 45414028 45245908 
3392.955 45082008 44921772 44763984 44606948 44449120 44289672 44128296 
3396.330 43965732 43803084 43641636 43482436 43326088 43172316 43020388 
3399.706 42869104 42717576 42565120 42411356 42256448 42100864 41944532 
3403.081 41787276 41629048 41469280 41307820 41145000 40980964 40816116 
3406.456 40650568 40484140 40316536 40147548 39976692 39804600 39632216 
3409.831 39460404 39290296 39122316 38955964 38790724 38625368 38459024 
3413.207 38290860 38121244 37950720 37780584 37611928 37446008 37283076 
3416.582 37123596 36966516 36810980 36655460 36499164 36341236 36181812 
3419.957 36021620 35861740 35704044 35549600 35399532 35253892 35112040 
3423.332 34973000 34835044 34696740 34556324 34412948 34266064 34115928 
3426.708 33963700 33811236 33660764 33513810 33371740 33234258 33100322 
3430.083 32968036 32835614 32701622 32565780 32428980 32292436 32157938 
3433.458 32026652 31899046 31774860 31653136 31532266 31411036 31288236 
3436.833 31163196 31035878 30906816 30777120 30648240 30521180 30396430 
3440.208 30273812 30151868 30029070 29903930 29776234 29646234 29515706 
3443.584 29385856 29257676 29130098 29000860 28866806 28725680 28577134 
3446.959 28422798 28266578 28113236 27966242 27827316 27695672 27569260 
3450.334 27444898 27320744 27196136 27071596 26948608 26827700 26708728 
3453.709 26590246 26470670 26348064 26222114 26093174 25962406 25831012 
3457.085 25700150 25569994 25441038 25313170 25186960 25062608 24940678 
3460.460 24820854 24702468 24584040 24464594 24343568 24221036 24097802 
3463.835 23974710 23852350 23730656 23609170 23487474 23365672 23244290 
3467.210 23124232 23005782 22888550 22770652 22650518 22526610 22399078 
3470.586 22269490 22141054 22017154 21899634 21788622 21681610 21575948 
3473.961 21468258 21357184 21243042 21128302 21015610 20906912 20803002 
3477.336 20702974 20604846 20506532 20406296 20303512 20198012 20089830 
3480.711 19979108 19865986 19751088 19635530 19521284 19410534 19305216 
3484.087 19205912 19112208 19022090 18932544 18841804 18747764 18650386 
3487.462 18550336 18449098 18347986 18248384 18151052 18056642 17965464 
3490.837 17877724 17793072 17710784 17629792 17548742 17466362 17382240 
3494.212 17296168 17208874 17121354 17034370 16948576 16864724 16783440 
3497.588 16705820 16633654 16567903 16508872 16455527 16405046 16353434 
3500.963 16296668 16231552 16156988 16074838 15988614 15903609 15824530 
3504.338 15755054 15696786 15649209 15610017 15575878 15543425 15509496 
3507.713 15471828 15429392 15382187 15331418 15279076 15227461 15178460 
3511.089 15133513 15092996 15056428 15023121 14991943 14961796 14932166 
3514.464 14902263 14871917 14840819 14808557 14775680 14742292 14708838 
3517.839 14676072 14644439 14613939 14583888 14553186 14519919 14482234 
3521.214 14437701 14384165 14320123 14244859 14158552 14062644 13959504 
3524.590 13851633 13741531 13630262 13517619 13402852 13284153 13160569 
3527.965 13032340 12900738 12767640 12635162 12504941 12377146 12251467 
3531.340 12126710 12002569 11878701 11755856 11634713 11516122 11399638 
3534.715 11284919 11170673 11056390 10941490 10826655 10712461 10599758 
3538.091 10489119 10380275 10273018 10167246 10063025 9961034 9862083 
3541.466 9767085 9676174 9588941 9504096 9419673 9333134 9242415 9145658 
3545.323 9041886 8931508 8816257 8699683 8585474 8477475 8378322 8287904 
3549.181 8204561 8124645 8044000 7959354 7869259 7775169 7679885 7587488 
3553.038 7501077 7422200 7350448 7283963 7220488 7158166 7096393 7035269 
3556.896 6975196 6916546 6858678 6800784 6741619 6680343 6616753 6551458 
3560.753 6486307 6423014 6363868 6310981 6266203 6230236 6202338 6179988 
3564.610 6157571 6128636 6084952 6019736 5929405 5815753 5685479 5548666 
3568.468 5415856 5295429 5191197 5103251 5029232 4964879 4906298 4850306 
3572.325 4794656 4737874 4679559 4619644 4558632 4497161 4436769 4378929 
3576.183 4324544 4274282 4227638 4183610 4140589 4097405 4053256 4008175 
3580.040 3962998 3918996 3877707 3840399 3807975 3780901 3758908 3741162 
3583.897 3726089 3711017 3692671 3666974 3630453 3580070 3514495 3435270 
3587.755 3346108 3253260 3162934 3080903 3010999 2954683 2911017 2877561 
3591.612 2850612 2825498 2798352 2765838 2726192 2679248 2626342 2570110 
3595.470 2513118 2457833 2405687 2357012 2311607 2268438 2226173 2183612 
3599.327 2139624 2093809 2046234 1997766 1949269 1902809 1859647 1821215 
3603.185 1788209 1761094 1740102 1724800 1713756 1705306 1695959 1682255 
3607.042 1660402 1627840 1584141 1531368 1474047 1417099 1364048 1315922 
3610.899 1271622 1227992 1181741 1131376 1078127 1025947 979917 944817 
3614.757 923333 915032 915828 920377 922038 914201 892188 853642 798999 
3619.096 732581 660034 588594 523435 468071 422697 386083 356436 332329 
3623.436 314589 306034 310278 330306 366484 414406 465451 505720 519819 
3627.776 494376 423626 313959 183402 55668 -50824 -127911 -177760 -208164 
3632.115 -228763 -248036 -270488 -297839 -328300 -359090 -387131 -410601 
3635.973 -429403 -444398 -457538 -470414 -484745 -501392 -520621 -542131 
3639.830 -565329 -589121 -612150 -632962 -650066 -661613 -666245 -662341 
3643.688 -648644 -624591 -590974 -549842 -504702 -460484 -423246 -398518 
3647.545 -391070 -404444 -440062 -497553 -574429 -665682 -763135 -856928 
3651.402 -937145 -995926 -1029347 -1038338 -1028421 -1008224 -987761 -977017 
3655.260 -982703 -1006306 -1043230 -1084711 -1121265 -1146678 -1159137 
3658.635 -1161384 -1158674 -1156394 -1158707 -1167861 -1183656 -1204870 
3662.010 -1228725 -1252712 -1274616 -1291894 -1302763 -1305108 -1297642 
3665.385 -1279307 -1250399 -1212568 -1168720 -1123842 -1083158 -1051493 
3668.761 -1032156 -1023033 -1017116 -1001777 -963892 -893434 -787808 -651158 
3672.618 -495005 -334723 -188558 -77096 -19714 -28063 -101245 -224491 
3676.476 -376272 -536804 -695423 -849322 -998736 -1143572 -1280596 -1402880 
3680.333 -1504525 -1581322 -1633942 -1666489 -1685203 -1695270 -1699131 
3683.708 -1696359 -1684444 -1661637 -1628595 -1588552 -1547746 -1513705 
3687.083 -1493530 -1491516 -1508653 -1542067 -1586505 -1636484 -1688273 
3690.459 -1739428 -1788400 -1833110 -1870788 -1898731 -1914499 -1917996 
3693.834 -1910673 -1895432 -1876033 -1855875 -1836640 -1819219 -1802820 
3697.209 -1786090 -1768238 -1749197 -1730551 -1714808 -1705105 -1704610 
3700.584 -1714775 -1735600 -1764476 -1796583 -1826808 -1850629 -1865014 
3703.960 -1869039 -1863365 -1849805 -1830107 -1805657 -1777015 -1744709 
3707.335 -1709297 -1671869 -1634504 -1601030 -1575511 -1562405 -1564716 
3710.710 -1583666 -1617503 -1661439 -1709099 -1753817 -1789951 -1814632 
3714.085 -1827831 -1831361 -1827468 -1819813 -1810112 -1799883 -1789225 
3717.461 -1777510 -1763816 -1747547 -1728637 -1708571 -1688768 -1671176 
3720.836 -1656652 -1645132 -1635461 -1625954 -1615225 -1602549 -1589476 
3724.211 -1578648 -1573597 -1577558 -1591952 -1615655 -1644637 -1672529 
3727.586 -1692597 -1700056 -1692629 -1671407 -1640082 -1603506 -1566267 
3730.962 -1531567 -1499638 -1468764 -1436203 -1401030 -1365755 -1336754 
3734.337 -1323178 -1332427 -1368299 -1426857 -1498219 -1568017 -1624601 
3737.712 -1661273 -1677216 -1675466 -1660052 -1633645 -1596805 -1549727 
3741.087 -1493167 -1430688 -1370875 -1326019 -1309370 -1331073 -1389966 
3744.463 -1471208 -1548736 -1599248 -1612684 -1593041 -1552797 -1507200 
3747.838 -1470151 -1449974 -1449941 -1467410 -1496535 -1530940 -1566994 
3751.213 -1604035 -1642261 -1679757 -1712564 -1735072 -1742728 -1734676 
3754.588 -1713488 -1684609 -1653814 -1626152 -1604596 -1589542 -1580100 
3757.964 -1575809 -1577327 -1585779 -1603209 -1628991 -1659755 -1689494 
3761.339 -1711970 -1722399 -1720287 -1708670 -1693356 -1680219 -1673750 
3764.714 -1674905 -1680978 -1686755 -1687019 -1679229 -1664211 -1646288 
3768.089 -1630707 -1623544 -1628067 -1645100 -1671506 -1702135 -1731310 
3771.465 -1754213 -1768139 -1772561 -1768535 -1758272 -1744016 -1727647 
3774.840 -1710584 -1693257 -1675764 -1658435 -1642294 -1628991 -1621630 
3778.215 -1622488 -1632985 -1651899 -1675730 -1699230 -1717614 -1727614 
3781.590 -1729066 -1723884 -1715997 -1708769 -1705270 -1706458 -1712300 
3784.966 -1721310 -1732135 -1743389 -1754147 -1763552 -1770515 -1773716 
3788.341 -1772198 -1765664 -1755137 -1743025 -1731277 -1722300 -1716195 
3791.716 -1712135 -1707350 -1699561 -1687316 -1671176 -1653451 -1637210 
3795.091 -1625096 -1617800 -1613311 -1607237 -1594659 -1572375 -1540482 
3798.467 -1502610 -1465759 -1438746 -1429862 -1444426 -1481774 -1533582 
3801.842 -1585878 -1623907 -1638531 -1628265 -1599380 -1561744 -1527836 
3805.217 -1508917 -1512417 -1541010 -1589905 -1648664 -1703950 -1745897 
3808.592 -1769987 -1777313 -1771373 -1756622 -1735336 -1708076 -1673552 
3811.968 -1631203 -1581652 -1528629 -1478208 -1438118 -1415727 -1414835 
3815.343 -1433792 -1463711 -1491516 -1505384 -1498483 -1471901 -1433065 
3818.718 -1393731 -1365888 -1360438 -1383525 -1433891 -1501983 -1572045 
3822.093 -1629684 -1665366 -1677645 -1671176 -1653154 -1630707 -1608887 
3825.469 -1590103 -1574620 -1560193 -1544675 -1526252 -1504723 -1481345 
3828.844 -1457635 -1435344 -1415364 -1397959 -1382534 -1368134 -1353369 
3832.219 -1337481 -1320106 -1300748 -1280100 -1259287 -1240223 -1225256 
3835.594 -1217525 -1219276 -1232096 -1255454 -1286939 -1322088 -1356375 
3838.969 -1386399 -1410608 -1428871 -1442246 -1451955 -1459418 -1465528 
3842.345 -1471901 -1479859 -1490888 -1505549 -1523148 -1541506 -1556330 
3845.720 -1563857 -1560358 -1543718 -1513903 -1472066 -1420681 -1361693 
3849.095 -1296849 -1228197 -1157881 -1090462 -1033545 -997083 -993546 
3852.470 -1032156 -1113895 -1226776 -1348480 -1455390 -1532129 -1575412 
3855.846 -1591127 -1587892 -1573927 -1554217 -1531468 -1505747 -1476524 
3859.221 -1443534 -1407173 -1369059 -1331667 -1297180 -1268174 -1246600 
3862.596 -1234541 -1233781 -1244981 -1266919 -1295165 -1322715 -1341676 
3865.971 -1345343 -1331502 -1303060 -1267480 -1234541 -1214617 -1214716 
3869.347 -1236093 -1272039 -1310658 -1340850 -1355648 -1355846 -1346829 
3872.722 -1337217 -1334244 -1341676 -1358852 -1380156 -1398949 -1408197 
3876.097 -1404366 -1387291 -1359975 -1327109 -1294074 -1266456 -1248120 
3879.472 -1240917 -1243957 -1253043 -1262128 -1264540 -1256148 -1236060 
3882.848 -1207876 -1177972 -1155469 -1149058 -1163565 -1198625 -1246170 
3886.223 -1293975 -1328926 -1342634 -1333517 -1306000 -1268207 -1229485 
3889.598 -1198889 -1182731 -1183392 -1198922 -1224529 -1253406 -1278746 
3892.973 -1296354 -1303820 -1300516 -1287104 -1264870 -1235598 -1201731 
3896.349 -1165878 -1131047 -1099650 -1074036 -1054799 -1042172 -1034272 
3899.724 -1029611 -1026471 -1023893 -1022240 -1023000 -1028355 -1040652 
3903.099 -1061046 -1089570 -1123644 -1160062 -1194659 -1224794 -1248615 
3906.474 -1266093 -1278547 -1287401 -1293975 -1298633 -1301111 -1300847 
3909.850 -1297576 -1291200 -1282446 -1272700 -1262161 -1251324 -1239199 
3913.225 -1224761 -1207050 -1186332 -1164127 -1143010 -1125858 -1115382 
3916.600 -1112275 -1116208 -1125363 -1136929 -1148859 -1159170 -1166803 
3919.975 -1170636 -1169546 -1162838 -1150247 -1133063 -1113895 -1097105 
3923.351 -1086992 -1086992 -1098130 -1118224 -1142647 -1165118 -1180550 
3926.726 -1185209 -1178336 -1161153 -1136929 -1109202 -1081307 -1056352 
3930.101 -1037214 -1025876 -1024190 -1032851 -1051130 -1076812 -1106029 
3933.476 -1134649 -1159038 -1176717 -1187621 -1192776 -1193866 -1192941 
3936.852 -1191256 -1188976 -1186035 -1182004 -1176386 -1169348 -1161450 
3940.227 -1153552 -1146513 -1141358 -1138615 -1138978 -1142614 -1149157 
3943.602 -1157848 -1167134 -1175395 -1180979 -1183127 -1181739 -1177807 
3946.977 -1172718 -1167596 -1163367 -1160062 -1157022 -1153849 -1150049 
3950.353 -1145753 -1142184 -1140267 -1140631 -1143275 -1148033 -1153915 
3953.728 -1160326 -1166869 -1173379 -1179724 -1185672 -1190562 -1193767 
3957.103 -1194428 -1192280 -1187687 -1181475 -1174866 -1168984 -1164556 
3960.478 -1161516 -1159996 -1159897 -1160987 -1163201 -1166506 -1170339 
3963.854 -1173478 -1174833 -1172817 -1166704 -1156658 -1143341 -1128040 
3967.229 -1112341 -1097469 -1084083 -1072614 -1063029 -1055493 -1049973 
3970.604 -1046767 -1045841 -1046535 -1048519 -1050568 -1051659 -1051394 
3973.979 -1049808 -1047163 -1044188 -1041346 -1039429 -1038404 -1038272 
3977.354 -1038801 -1039627 -1040057 -1039462 -1037710 -1034272 -1029446 
3980.730 -1023826 -1018207 -1013711 -1010703 -1009480 -1009149 -1009149 
3984.105 -1008025 -1005215 -1000389 -993976 -986207 -978108 -970372 -963693 
3987.962 -959098 -957346 -959726 -966537 -977909 -992720 -1009017 -1024091 
3991.820 -1035495 -1041908 -1042470 -1038503 -1031661 -1024454 -1018703 
3995.195 -1016190 -1017050 -1021182 -1027859 -1036156 -1045213 -1053576 
3998.570 -1060550 -1064979 -1066500 -1064781 -1060484 
##END=
