##TITLE=814d_3_a
##JCAMP-DX=5.01  $$ Nicolet v. 1
##DATATYPE=INFRARED SPECTRUM
##ORIGIN=UniL
##OWNER=Nicolet
##LONGDATE=2011/09/28
##TIME=11:34:37
##SPECTROMETER/DATA SYSTEM=Nicolet iS5
##DATA PROCESSING=
Ratio against background
%Transmittance->Absorbance
Truncated
ElementMultiply or ElementDivide
##COMMENTS=
Number of sample scans: 32
Collection length: 51.15 sec
Sample gain: 2.0
Background collected on: Mer Sep 28 11:32:03 2011 (GMT+02:00);
Number of background scans: 32
Background gain: 2.0
Sample spacing:  1.000
Number of scan points: 12415
Resolution points: 8192
Number of FFT points: 65536
Apodization: N-B fort;
Phase correction: Mertz;
Laser frequency: 15798.0 cm-1
Number of rejected sample scans: 0
Number of rejected background scans: 0
Bench serial number: ASB1000141;
##RESOLUTION=4.000
##XUNITS=1/CM
##YUNITS=ABSORBANCE
##FIRSTX=649.893372
##LASTX=4000.122314
##FIRSTY=0.092946
##MAXX=4000.122314
##MINX=649.893372
##MAXY=0.255548
##MINY=-0.001792
##XFACTOR=1.000000
##YFACTOR=1.000000E-009
##NPOINTS=6950
##DELTAX=0.482117
##ZPD=6100
##XYDATA=(X++(Y..Y))
649.893 92945616 92891160 92927272 93049552 93229968 93433136 93630104 
653.268 93815576 94007088 94233472 94516808 94860056 95244872 95643696 
656.643 96034296 96412000 96790992 97194352 97637832 98119016 98616448 
660.018 99098592 99541104 99933720 100285504 100613704 100935976 101259568 
663.393 101581480 101892648 102184672 102450592 102680280 102851648 
666.285 102923152 102835016 102535544 102016592 101340896 100615376 99941728 
669.660 99365800 98873536 98410672 97911904 97326960 96634056 95847176 
673.035 95003856 94152056 93326688 92538024 91777760 91029536 90283576 
676.410 89543896 88826208 88147376 87516776 86929952 86373432 85832248 
679.785 85299912 84781320 84290496 83839984 83435216 83070192 82732040 
683.159 82407616 82092080 81790568 81515896 81279984 81086888 80929296 
686.534 80792784 80662064 80527712 80390168 80257224 80137416 80033464 
689.909 79939576 79843272 79732944 79603656 79460440 79315920 79184856 
693.284 79077632 78996312 78935776 78888576 78849712 78819520 78802400 
696.659 78802440 78820120 78850232 78884840 78916744 78944880 78975320 
700.034 79018288 79081888 79167912 79268240 79368744 79454000 79512960 
703.408 79544080 79552520 79547504 79535840 79520080 79497928 79466288 
706.783 79424360 79375944 79327256 79284464 79248712 79216264 79180240 
710.158 79136344 79088408 79050992 79046864 79100408 79230384 79439832 
713.533 79711848 80007216 80272128 80444200 80461392 80278984 79873544 
716.908 79253128 78455248 77549064 76624400 75772272 75082008 74621352 
720.282 74426280 74500528 74811032 75292512 75844984 76350840 76687888 
723.657 76739952 76429096 75729312 74678360 73369600 71935760 70521360 
727.032 69239272 68159896 67301248 66639380 66126228 65711388 65360292 
730.407 65053508 64786100 64557948 64365268 64198680 64046860 63900276 
733.782 63756736 63620152 63497068 63391536 63301408 63219188 63136144 
737.156 63047716 62955432 62865696 62785440 62716948 62656044 62593892 
740.531 62521644 62436740 62344972 62258232 62187800 62140232 62112292 
743.906 62094396 62073792 62041952 61998228 61947860 61898376 61854056 
747.281 61813444 61770664 61720204 61661272 61599872 61546760 61512364 
750.656 61500604 61507324 61521716 61532752 61533628 61525536 61514808 
754.031 61509348 61512096 61519960 61524696 61518892 61501064 61477092 
757.405 61457740 61452660 61466288 61494844 61529964 61564324 61597468 
760.780 61637140 61696484 61786512 61911408 62066532 62241940 62429052 
764.155 62626996 62844560 63097136 63400776 63764684 64190732 64674988 
767.530 65212956 65803824 66451804 67164744 67955528 68845552 69875040 
770.905 71117824 72675512 74664512 77179400 80232664 83704200 87298008 
774.279 90591976 93064648 94224416 93766760 91637472 88079192 83536976 
777.654 78584712 73764696 69468688 65934316 63215204 61235260 59842568 
781.029 58875460 58200420 57718860 57374352 57135740 56983988 56908472 
784.404 56904240 56973636 57125344 57371176 57721580 58182200 58755648 
787.779 59445344 60260100 61217556 62342292 63659476 65191544 66954708 
791.154 68960104 71220488 73753232 76579856 79719576 83175472 86920040 
794.528 90878376 94931536 98913728 102613888 105811496 108274536 109782456 
797.903 110168480 109328664 107253448 104032568 99853280 94974832 89675728 
801.278 84250992 78963840 74018440 69572984 65719368 62490760 59876224 
804.653 57831268 56293732 55193036 54465656 54058792 53929236 54043932 
808.028 54369732 54864664 55475724 56132780 56753288 57259300 57579276 
811.402 57663116 57487620 57052300 56378008 55498352 54458784 53310192 
814.777 52103516 50892544 49723876 48634568 47651728 46788556 46047176 
818.152 45422560 44906816 44492032 44172824 43946116 43809608 43761412 
821.527 43799860 43925440 44143224 44463588 44902740 45479548 46209968 
824.902 47102680 48152348 49337800 50614984 51919456 53169852 54264448 
828.277 55099816 55583076 55643296 55253012 54433128 53253856 51815996 
831.651 50239572 48645388 47129528 45764780 44593656 43629360 42864424 
835.026 42275552 41832224 41497060 41232944 41008020 40796100 40582356 
838.401 40362968 40143544 39934988 39747736 39589780 39463708 39367776 
841.776 39298204 39251488 39225520 39219024 39230848 39258452 39298600 
845.151 39348588 39407356 39477132 39561908 39666520 39793600 39942948 
848.525 40111456 40295376 40492436 40703876 40933920 41187948 41470740 
851.900 41783848 42126420 42496088 42891780 43315212 43771088 44265708 
855.275 44805120 45393244 46032552 46724536 47473276 48285452 49171828 
858.650 50145768 51220424 52408908 53723516 55174636 56772096 58520672 
862.025 60415668 62433756 64528456 66627832 68630744 70425016 71896032 
865.400 72937400 73474248 73465968 72914512 71863928 70398408 68634864 
868.774 66698836 64722748 62825948 61097672 59603204 58376928 57426952 
872.149 56741964 56296336 56056392 55979716 56020692 56132248 56265788 
875.524 56380684 56447204 56449356 56387556 56274760 56133116 55986920 
878.899 55860776 55777508 55757092 55818612 55980512 56257788 56660828 
882.274 57192240 57844704 58600528 59433036 60312252 61204052 62076548 
885.648 62903920 63667260 64359924 64989044 65577456 66158100 66769348 
889.023 67447984 68217192 69084432 70038208 71053624 72097088 73132784 
892.398 74131336 75066968 75918336 76667880 77297048 77788384 78126464 
895.773 78297176 78289520 78094816 77705352 77116240 76327760 75349376 
899.148 74201856 72918152 71543384 70125000 68710968 67345128 66060484 
902.523 64883112 63831612 62917860 62149256 61528476 61052860 60714196 
905.897 60500856 60399900 60399596 60492632 60676320 60951240 61318396 
909.272 61777232 62324356 62954476 63662768 64445896 65302520 66230916 
912.647 67225432 68275264 69362864 70467696 71572952 72669560 73761120 
916.022 74863624 76003824 77215144 78531032 79985024 81605760 83412368 
919.397 85411456 87588200 89903240 92283672 94633968 96847728 98819288 
922.771 100475624 101789344 102790848 103563504 104238240 104978584 
925.664 105944768 107287592 109122608 111507224 114431072 117796744 
928.557 121426808 125042168 128287736 130786952 132146416 132046800 
931.450 130300808 126878976 121939792 115797576 108899960 101723424 94714104 
934.824 88256456 82602856 77895168 74178896 71426264 69571272 68533088 
938.199 68237152 68609136 69567032 71013552 72809176 74771832 76698760 
941.574 78363760 79564816 80160728 80081240 79348616 78063528 76393144 
944.949 74526968 72644880 70902160 69397232 68177920 67248752 66584764 
948.324 66146024 65890200 65782936 65796076 65908016 66102036 66361612 
951.698 66671984 67021088 67400112 67804608 68233320 68686744 69164704 
955.073 69665240 70185048 70720768 71270616 71834488 72413776 73009560 
958.448 73621000 74245048 74876936 75512416 76149968 76791160 77440144 
961.823 78101040 78776064 79463824 80160776 80862032 81564864 82269152 
965.198 82977800 83694112 84420264 85155328 85896368 86639920 87385152 
968.573 88134752 88894760 89673080 90476680 91309848 92174640 93072120 
971.947 94004784 94978168 95999240 97075928 98213600 99413912 100675448 
975.322 101995720 103373408 104810144 106309568 107875112 109506976 
978.215 111200384 112946320 114732096 116545432 118375600 120211808 
981.108 122042696 123853520 125625192 127338160 128976032 130529328 
984.000 131997584 133387032 134705200 135954784 137130544 138219520 
986.893 139205904 140075840 140822640 141448224 141961904 142378000 
989.786 142712704 142986160 143221888 143447264 143694816 143994944 
992.678 144371680 144839664 145400896 146047920 146768592 147552048 
995.571 148390752 149280016 150215488 151189296 152188816 153199840 
998.464 154209024 155209168 156200624 157188736 158178416 159169600 
1001.356 160155056 161122016 162057808 162953824 163809952 164632080 
1004.249 165430032 166212144 166984336 167752528 168526240 169322240 
1007.142 170166256 171086704 172110032 173253680 174522080 175908608 
1010.035 177400528 178986096 180656016 182404944 184228496 186117920 
1012.927 188061056 190044512 192057664 194098656 196173856 198294064 
1015.820 200465776 202684208 204927872 207163552 209351856 211454864 
1018.713 213445904 215308736 217036912 218632288 220104464 221475712 
1021.605 222781200 224074976 225422688 226886816 228520352 230350352 
1024.498 232375440 234568560 236886944 239283584 241707792 244110528 
1027.391 246439056 248628832 250611520 252318384 253689952 254690320 
1030.284 255306960 255548176 255432304 254981792 254219952 253171408 
1033.177 251869984 250359360 248684752 246886000 244980896 242958672 
1036.070 240778400 238380896 235706784 232704960 229347936 225631392 
1038.963 221571376 217200288 212566480 207738432 202798784 197845952 
1041.856 192987600 188317664 183914880 179832736 176095552 172709536 
1044.750 169669152 166965456 164589040 162530080 160775456 159305088 
1047.643 158092240 157107984 156322144 155709712 155250192 154923936 
1050.536 154709488 154580576 154504960 154451568 154394032 154313952 
1053.429 154203536 154059376 153877152 153646160 153347216 152954880 
1056.322 152444144 151792608 150984624 150010528 148863792 147541056 
1059.215 146042768 144378752 142571376 140656384 138683552 136706272 
1062.108 134774704 132932264 131208600 129622680 128185616 126902104 
1065.001 125771912 124787976 123935896 123192336 122526224 121906928 
1067.894 121305912 120702576 120086624 119453912 118804144 118137104 
1070.787 117451304 116745072 116019208 115278616 114532728 113792856 
1073.680 113070840 112376064 111716000 111097888 110529280 110018880 
1076.573 109573968 109195888 108877608 108600832 108341504 108072968 
1079.466 107773688 107433960 107055400 106649352 106230776 105815216 
1082.359 105415768 105043992 104715120 104450464 104278136 104234920 
1085.252 104359784 104690536 105263112 106105328 107236688 108664792 
1088.146 110379856 112347096 114498224 116736656 118932048 120934336 
1091.039 122604080 123818744 124499912 124624520 124225088 123384928 
1093.932 122218536 120869912 119484808 118192304 117104088 116292176 
1096.825 115787416 115580432 115626488 115853256 116167640 116474936 
1099.718 116681216 116700328 116467608 115937760 115093080 113945144 
1102.611 112535408 110929616 109203048 107437440 105705568 104062128 
1105.504 102548176 101188656 99996248 98976312 98127368 97442016 96905168 
1108.879 96495168 96184648 95941304 95733488 95530352 95301440 95019488 
1112.254 94656752 94186672 93588096 92847048 91960920 90939240 89802552 
1115.630 88578008 87293352 85976328 84650720 83336416 82051568 80812264 
1119.005 79631120 78517888 77477288 76509352 75610280 74774232 73993920 
1122.380 73259536 72558720 71873352 71178560 70447032 69651552 68772024 
1125.755 67801968 66751344 65646404 64522272 63419992 62377104 61421172 
1129.131 60569992 59828840 59193324 58650164 58180644 57762456 57369928 
1132.506 56979264 56570156 56128780 55650672 55140968 54613972 54088180 
1135.881 53585212 53125920 52726824 52401060 52156232 51994856 51913784 
1139.256 51904484 51954636 52047856 52167740 52300324 52435076 52566772 
1142.632 52694200 52818456 52941504 53064180 53187000 53310008 53433872 
1146.007 53559720 53688832 53821732 53956996 54092044 54223416 54348556 
1149.382 54467680 54583464 54701004 54825828 54963136 55116368 55287896 
1152.757 55479752 55694292 55934604 56203592 56502940 56832292 57188160 
1156.133 57565428 57957792 58358280 58760008 59155732 59535820 59889268 
1159.508 60202932 60462432 60655592 60771320 60800780 60737248 60574064 
1162.883 60304488 59922588 59423880 58807580 58076548 57238244 56302032 
1166.258 55278716 54179720 53016520 51801400 50548940 49274624 47995080 
1169.634 46726968 45484224 44277780 43115812 42003476 40944808 39943600 
1173.009 39004060 38130400 37326688 36595796 35939228 35357148 34848904 
1176.384 34413768 34051132 33760704 33542160 33394854 33317748 33310488 
1179.759 33373598 33509836 33724104 34022140 34409752 34890912 35467368 
1183.135 36139104 36905876 37768584 38731024 39799408 40981036 42282564 
1186.510 43706704 45250392 46901344 48636864 50423328 52211792 53942820 
1189.885 55551104 56967024 58132612 59007948 59576904 59850248 59861392 
1193.260 59661244 59303612 58840932 58316292 57756588 57174852 56571024 
1196.635 55936300 55257832 54524444 53730788 52879528 51981412 51052616 
1200.011 50112672 49179508 48267192 47385396 46539716 45732896 44967044 
1203.386 44243880 43565032 42930584 42338300 41781912 41252000 40737468 
1206.761 40227508 39712992 39189000 38654304 38111300 37564452 37020600 
1210.136 36487668 35974248 35490812 35048280 34657516 34329168 34071988 
1213.512 33892584 33796336 33786772 33867368 34041348 34311348 34679156 
1216.887 35144372 35704652 36355936 37093424 37913512 38813480 39792108 
1220.262 40848480 41981432 43189148 44469972 45823356 47250644 48755212 
1223.637 50341880 52014468 53774252 55618664 57540800 59529016 61565200 
1227.013 63625672 65677656 67676608 69571656 71303608 72810432 74037536 
1230.388 74938152 75479336 75646912 75445592 74903432 74069128 73017480 
1233.763 71841608 70641104 69525192 68594848 67935504 67622400 67711424 
1237.138 68242240 69242496 70725328 72689688 75115928 77965024 81173400 
1240.514 84649144 88285280 91952448 95506696 98808304 101712320 104084696 
1243.889 105819912 106841232 107117104 106662568 105539080 103843984 
1246.782 101695072 99233112 96600360 93932304 91358136 88975352 86842704 
1250.157 84971344 83321000 81805008 80301832 78688912 76856880 74734632 
1253.532 72305200 69603784 66711544 63730144 60774980 57950372 55332116 
1256.908 52970068 50880660 49053548 47458088 46052480 44793292 43636796 
1260.283 42548268 41502456 40482288 39479604 38492620 37522724 36573520 
1263.658 35649436 34755352 33896452 33078510 32307606 31589062 30926990 
1267.033 30323302 29777760 29288194 28851862 28466244 28129532 27840704 
1270.409 27598388 27400320 27242560 27120300 27028116 26961442 26916986 
1273.784 26892346 26886070 26896082 26919946 26955412 27001036 27055938 
1277.159 27120900 27196242 27281156 27372900 27466392 27555598 27635394 
1280.534 27702312 27754656 27791496 27810818 27808204 27776554 27707646 
1283.910 27594788 27435862 27234692 27000788 26748546 26494722 26255200 
1287.285 26043846 25872472 25748982 25678918 25665348 25708094 25803830 
1290.660 25946474 26128572 26342184 26580066 26837040 27108520 27390332 
1294.035 27677522 27963946 28243876 28513548 28771880 29021724 29268450 
1297.411 29519502 29781024 30058684 30356242 30676580 31022888 31397748 
1300.786 31803132 32238584 32700158 33181072 33671288 34160304 34638780 
1304.161 35098428 35532880 35937572 36308884 36644532 36945344 37215636 
1307.536 37463340 37698760 37933144 38174716 38428180 38693968 38969304 
1310.912 39249888 39531604 39811572 40087148 40355112 40611456 40850372 
1314.287 41065672 41252364 41406916 41527064 41612532 41662896 41678356 
1317.662 41659868 41611040 41538516 41451892 41362924 41282204 41217060 
1321.037 41170752 41141904 41126424 41119828 41119720 41126348 41143724 
1324.413 41178112 41239316 41339888 41493888 41718588 42029904 42438540 
1327.788 42945912 43538956 44190724 44859824 45499564 46066372 46523784 
1331.163 46851740 47046696 47120516 47095920 47002796 46875104 46743428 
1334.538 46636140 46576232 46578740 46651888 46796788 47009444 47283152 
1337.914 47611464 47990564 48418852 48896104 49420956 49988748 50590932 
1341.289 51215356 51845076 52460352 53036664 53542820 53945520 54209940 
1344.664 54303868 54205884 53905828 53406184 52719568 51866284 50871420 
1348.039 49761288 48566232 47319768 46056648 44816252 43637640 42555580 
1351.415 41600828 40793588 40143328 39649492 39303424 39092336 39000364 
1354.790 39011564 39109048 39273468 39485480 39724572 39971320 40210856 
1358.165 40431768 40626484 40790564 40921252 41017672 41082316 41123944 
1361.540 41159716 41213960 41318568 41505008 41797672 42212992 42756368 
1364.916 43425860 44215304 45114688 46108928 47171080 48261824 49325772 
1368.291 50293028 51093572 51660796 51942164 51907956 51550344 50885688 
1371.666 49948972 48797516 47505920 46155208 44835868 43629104 42593296 
1375.041 41759992 41129884 40682992 40389656 40225108 40176440 40245500 
1378.417 40447988 40809820 41364272 42143252 43174036 44468980 46014244 
1381.792 47755644 49587356 51366592 52912576 54038644 54588872 54441504 
1385.167 53538732 51896792 49625912 46924932 44045520 41261252 38784856 
1388.542 36734600 35136940 33946720 33085372 32465718 32015168 31676944 
1391.917 31408790 31183594 30983030 30797748 30627584 30479628 30364804 
1395.293 30292712 30267524 30285606 30338120 30413096 30499286 30589044 
1398.668 30678396 30767694 30859286 30955774 31057658 31162910 31266980 
1402.043 31365660 31456310 31540390 31624268 31718966 31838428 31993910 
1405.418 32192406 32433764 32712412 33019874 33347946 33691408 34047904 
1408.794 34416568 34797136 35188384 35587900 35993256 36403384 36818876 
1412.169 37241088 37671076 38107320 38546316 38982496 39411204 39829952 
1415.544 40238448 40638164 41029652 41412088 41784504 42149716 42519656 
1418.919 42914088 43359404 43875216 44464684 45115536 45804432 46507444 
1422.295 47205136 47890884 48572496 49270248 50009196 50810372 51685352 
1425.670 52633308 53646352 54714004 55828412 56980060 58153824 59326056 
1429.045 60458736 61504612 62419028 63167416 63737548 64140872 64411804 
1432.420 64597392 64744592 64896852 65087608 65343924 65697432 66189856 
1435.796 66874540 67810760 69035720 70549616 72312792 74257360 76300904 
1439.171 78348648 80301712 82041288 83437312 84376440 84765808 84557592 
1442.546 83752176 82389872 80538120 78272816 75677920 72829984 69792696 
1445.921 66627368 63395104 60170768 57060156 54185612 51666352 49589100 
1449.297 47982460 46822768 46052852 45612460 45452800 45543092 45866808 
1452.672 46407588 47141604 48040784 49072544 50210296 51440924 52757656 
1456.047 54154800 55612788 57093600 58543304 59909312 61157512 62270964 
1459.422 63245596 64084528 64797216 65396264 65893636 66296532 66601372 
1462.798 66792688 66849500 66756560 66520496 66174768 65776072 65381208 
1466.173 65024524 64712792 64428596 64144828 63833608 63472136 63038788 
1469.548 62503540 61821660 60933168 59774688 58310760 56566384 54644936 
1472.923 52695960 50861212 49223668 47795924 46546688 45438600 44456684 
1476.299 43617308 42960360 42525428 42339320 42405916 42712752 43243684 
1479.674 43991288 44960684 46166888 47624368 49336576 51290184 53458792 
1483.049 55811528 58319816 60966948 63743308 66636100 69621912 72647464 
1486.424 75618016 78405752 80842752 82739056 83915096 84215232 83552752 
1489.800 81941752 79514120 76496384 73144824 69696632 66309460 63052924 
1493.175 59937764 56934084 54004948 51136884 48349960 45703816 43284644 
1496.550 41173740 39420968 38030640 36975104 36209508 35691128 35389496 
1499.925 35283864 35359196 35601784 35995664 36521184 37156944 37874104 
1503.301 38636016 39395712 40079044 40584936 40785072 40540992 39763604 
1506.676 38470284 36796696 34924740 32998528 31086202 29197248 27320498 
1510.051 25452384 23604554 21811616 20119606 18567626 17183710 15975516 
1513.426 14932886 14035779 13260410 12583860 11983903 11443316 10951513 
1516.802 10506940 10116845 9791723 9537727 9350196 9211311 9092263 8963607 
1520.659 8805031 8620217 8436325 8291349 8211720 8198382 8230832 8278684 
1524.516 8316881 8331573 8326372 8317117 8324514 8361635 8428859 8516299 
1528.374 8612173 8710061 8811625 8924440 9055486 9205151 9365126 9519133 
1532.231 9649782 9747871 9820190 9888589 9978291 10105586 10269659 10456263 
1536.089 10644679 10814968 10953791 11051971 11105981 11114955 11079502 
1539.464 11002317 10891135 10762489 10638975 10541431 10480735 10453140 
1542.839 10443162 10429552 10395919 10336840 10261720 10188819 10138009 
1546.214 10119762 10131022 10157647 10181288 10188106 10173284 10143232 
1549.590 10111792 10093343 10093784 10109316 10127901 10137296 10130276 
1552.965 10108977 10082830 10065773 10069197 10096022 10140281 10188751 
1556.340 10225353 10231018 10186343 10074521 9892691 9665366 9442733 9280325 
1560.198 9208130 9222987 9302700 9419097 9546973 9665469 9762308 9834968 
1564.055 9890319 9942829 10007720 10095479 10206525 10332360 10459589 
1567.430 10577247 10678840 10766327 10847547 10934728 11038716 11165132 
1570.805 11314812 11485569 11674636 11878360 12091481 12306785 12512341 
1574.181 12695954 12848346 12969487 13073827 13187345 13339603 13547631 
1577.556 13812227 14123295 14468119 14838762 15233878 15658380 16119540 
1580.931 16623154 17171300 17760868 18384210 19031402 19688434 20337678 
1584.306 20957886 21522152 22003386 22379506 22636624 22774808 22808434 
1587.682 22767056 22690208 22623848 22616692 22710424 22937800 23319136 
1591.057 23857390 24536706 25317738 26142682 26933132 27600332 28063680 
1594.432 28253776 28130946 27691824 26970854 26033220 24958050 23830368 
1597.807 22721490 21682480 20748538 19936922 19252636 18692172 18245794 
1601.183 17900822 17643698 17464844 17359100 17326238 17369274 17491164 
1604.558 17691596 17965844 18302814 18684526 19088666 19484168 19834910 
1607.933 20103190 20251400 20250014 20082924 19749946 19269330 18675534 
1611.308 18017198 17344202 16699381 16111940 15591436 15131798 14716105 
1614.684 14324540 13940412 13557408 13183349 12838689 12548696 12331363 
1618.059 12191691 12121702 12105382 12122281 12151890 12175947 12178810 
1621.434 12151516 12093593 12014388 11930226 11858134 11810056 11787823 
1624.809 11785576 11792692 11799944 11800931 11793032 11777270 11756434 
1628.185 11734273 11714870 11702785 11702104 11716368 11747345 11793407 
1631.560 11849825 11907374 11954134 11976784 11961729 11898383 11783330 
1634.935 11624639 11443247 11268120 11126241 11031034 10981248 10965106 
1638.310 10967009 10971664 10967009 10946859 10911351 10866878 10822952 
1641.686 10789255 10770912 10767041 10770063 10767753 10746288 10692696 
1645.061 10598637 10463730 10297887 10120169 9955067 9826223 9748448 9726252 
1648.918 9754751 9822495 9912319 10000227 10057024 10044816 9925980 9683561 
1652.776 9348977 9005925 8742448 8601830 8569184 8603081 8661385 8715166 
1656.633 8750055 8761144 8751745 8727471 8693835 8653103 8603791 8541778 
1660.490 8462508 8362209 8240523 8100675 7950512 7801178 7663967 7549085 
1664.348 7461434 7401135 7362445 7335991 7309909 7270721 7206608 7109562 
1668.205 6978227 6819464 6646831 6478335 6329607 6210640 6124335 6067312 
1672.063 6031260 6004383 5972771 5921646 5838185 5718379 5570448 5415587 
1675.920 5278357 5176980 5115790 5085684 5071000 5056217 5032350 4998462 
1679.778 4961427 4930862 4913403 4906667 4897351 4862871 4778743 4628619 
1683.635 4418660 4182372 3969585 3818638 3737719 3710650 3711652 3718904 
1687.492 3718002 3702663 3673156 3632625 3585950 3537711 3493017 3456911 
1691.350 3433967 3426954 3433900 3447827 3455809 3441715 3391388 3299899 
1695.207 3178288 3054608 2962389 2921191 2929397 2965592 3000189 3000756 
1699.065 2942140 2816961 2645744 2473295 2343354 2278864 2273568 2306178 
1702.922 2352082 2391727 2413051 2410185 2385264 2346518 2305711 2273101 
1706.780 2254749 2251485 2260378 2276832 2296651 2317603 2339722 2365041 
1710.637 2395859 2434108 2479393 2529615 2581509 2631509 2677348 2718090 
1714.494 2753568 2782612 2801787 2805388 2787580 2746432 2688450 2628209 
1718.352 2584409 2570243 2589709 2636876 2699919 2765705 2822997 2865487 
1722.209 2891637 2903845 2907114 2906614 2905646 2905213 2905479 2905613 
1726.067 2905746 2905780 2905079 2902277 2895206 2882764 2866154 2849444 
1729.924 2838005 2836304 2843974 2854147 2853013 2821629 2744164 2615009 
1733.781 2449036 2278897 2142987 2064411 2043504 2064178 2104097 2144019 
1737.639 2168560 2169693 2146983 2106694 2059251 2015574 1983652 1965944 
1741.496 1961285 1966277 1977661 1992373 2008717 2025628 2042705 2060682 
1745.354 2080225 2102299 2127504 2155540 2185144 2214184 2239662 2258679 
1749.211 2268438 2267039 2253950 2231302 2203627 2177918 2161268 2157805 
1753.069 2168461 2189174 2212285 2227739 2226240 2201562 2153542 2088815 
1756.926 2018870 1955593 1906137 1870429 1842377 1813063 1773537 1718812 
1760.783 1649160 1570739 1492766 1425011 1374452 1343274 1330412 1331841 
1764.641 1342510 1357101 1369665 1375416 1371094 1356835 1336527 1317384 
1768.498 1306317 1306682 1316420 1327687 1330478 1315290 1278933 1226962 
1772.356 1173402 1134598 1121476 1135994 1171840 1219585 1269861 1317949 
1776.213 1362419 1404700 1445921 1485518 1520495 1546598 1560963 1563523 
1780.071 1558303 1552317 1552117 1560863 1577623 1597443 1614571 1624781 
1783.928 1627142 1623650 1619493 1618428 1623184 1633993 1649392 1667553 
1787.785 1687477 1708167 1728359 1745325 1754607 1750681 1728825 1687244 
1791.643 1629437 1564055 1501111 1449612 1413775 1392168 1380335 1372823 
1795.500 1365477 1355373 1341214 1321970 1297111 1265408 1226563 1180944 
1799.358 1130844 1079788 1032523 992503 961918 941197 929376 924561 925690 
1803.697 931700 941894 955243 970552 986791 1003230 1020035 1037671 1056603 
1808.037 1076566 1095865 1112607 1124732 1131243 1133103 1132904 1133967 
1811.894 1138718 1147787 1160478 1174897 1189316 1203304 1217891 1235269 
1815.752 1257300 1285147 1317816 1353511 1389476 1423249 1453667 1480131 
1819.609 1503438 1524519 1544070 1562526 1579386 1593719 1603429 1606256 
1823.467 1600303 1584939 1561927 1536323 1514344 1501610 1501011 1510720 
1827.324 1524718 1534627 1532233 1513446 1480298 1441134 1407758 1391803 
1831.181 1398285 1426208 1468595 1516805 1563590 1604826 1639913 1671112 
1835.039 1701281 1732717 1765985 1800819 1836654 1874555 1917286 1968341 
1838.896 2031253 2108125 2198598 2299715 2407320 2516284 2620642 2715623 
1842.754 2797718 2866554 2925360 2981439 3043998 3120048 3212534 3318796 
1846.611 3431729 3542521 3642448 3726390 3792900 3844611 3885998 3921404 
1850.469 3952365 3977510 3992558 3993327 3976942 3943137 3894189 3833045 
1854.326 3762953 3685486 3601552 3511589 3416935 3319931 3223516 3130327 
1858.183 3040861 2954183 2868522 2782612 2697185 2615009 2539913 2475361 
1862.041 2422380 2379800 2344586 2313872 2286525 2262743 2244158 2231668 
1865.898 2224008 2217881 2208389 2191538 2166263 2136028 2106927 2086717 
1869.756 2079992 2087117 2104696 2127104 2149214 2167961 2182547 2193370 
1873.613 2201962 2209455 2216182 2222110 2227172 2230603 2231935 2229570 
1877.470 2221411 2205458 2179616 2144186 2101034 2053991 2006986 1963049 
1881.328 1922843 1884672 1846270 1805510 1762591 1720009 1681090 1649359 
1885.185 1626011 1609382 1595780 1581115 1562526 1539448 1514012 1489474 
1889.043 1469958 1458621 1457325 1466700 1486448 1515608 1552517 1594251 
1892.900 1637120 1676899 1710662 1736776 1756636 1773404 1791337 1813396 
1896.758 1840647 1872359 1906603 1941514 1976895 2013211 2051560 2092177 
1900.615 2134130 2175753 2214617 2249986 2281995 2311840 2341122 2369605 
1904.472 2396458 2419181 2436075 2446437 2451669 2454401 2457333 2461499 
1908.330 2466897 2471529 2473928 2473861 2472962 2473362 2477394 2485525 
1912.187 2496522 2507753 2516917 2523416 2527515 2530115 2531048 2527249 
1916.045 2513951 2486524 2442239 2383631 2318902 2259079 2213051 2185111 
1919.902 2172923 2169327 2165896 2156506 2139424 2117748 2096339 2079393 
1923.760 2068006 2059251 2049130 2034516 2015408 1995103 1978793 1970504 
1927.617 1971170 1978526 1987879 1995169 1998498 1999097 1999996 2004090 
1931.474 2012013 2022232 2031686 2037678 2038977 2036680 2032019 2026659 
1935.332 2020468 2012512 2002259 1990875 1981622 1979758 1988945 2010215 
1939.189 2040608 2074332 2104463 2126904 2140689 2148814 2155574 2163998 
1943.047 2173955 2183346 2189407 2191838 2194102 2201662 2220645 2253617 
1946.904 2298649 2348317 2393926 2429044 2450636 2461765 2467697 2474661 
1950.761 2485991 2500987 2515817 2527015 2531115 2528048 2518917 2505420 
1954.619 2488491 2467797 2443338 2415716 2388129 2365041 2351082 2348517 
1958.476 2356479 2370905 2387296 2402589 2417149 2434775 2460366 2497288 
1962.334 2545712 2602175 2661346 2719024 2771974 2819161 2860884 2896173 
1966.191 2924026 2942240 2949779 2947844 2939638 2928663 2917621 2907314 
1970.049 2896006 2881597 2864453 2847810 2837905 2841707 2863252 2902211 
1973.906 2954450 3013434 3076432 3145178 3225920 3326509 3450131 3591095 
1977.763 3735146 3862630 3956678 4006269 4010917 3978012 3919899 3849291 
1981.621 3774951 3703231 3637871 3581340 3538011 3510687 3502470 3511522 
1985.478 3533869 3561763 3588957 3611041 3627546 3640811 3653007 3665203 
1989.336 3675261 3679505 3674225 3658520 3635431 3611108 3593467 3588690 
1993.193 3598846 3623503 3658754 3700691 3745974 3791797 3836154 3876302 
1997.051 3909869 3934242 3949422 3956946 3960089 3962062 3965038 3967679 
2000.908 3967211 3958819 3939760 3909769 3872525 3833279 3798515 3773146 
2004.765 3759644 3758908 3770539 3793134 3825958 3865571 3906793 3942601 
2008.623 3965138 3969117 3955007 3928057 3896897 3871689 3858585 3858518 
2012.480 3866775 3874564 3874765 3863866 3843408 3819808 3802627 3800320 
2016.338 3818437 3859086 3920334 3997841 4084495 4171968 4251328 4314705 
2020.195 4356472 4377390 4384285 4386962 4396836 4422275 4463917 4515373 
2024.052 4565463 4601929 4615726 4603838 4568878 4517516 4457657 4394727 
2027.910 4333848 4278966 4233327 4202546 4189765 4197293 4221917 4257819 
2031.767 4296534 4332442 4364671 4397472 4438711 4495286 4568544 4653803 
2035.625 4740888 4818577 4879122 4920005 4944871 4960723 4974565 4990518 
2039.482 5009623 5030070 5048607 5063256 5072308 5075090 5069928 5055680 
2043.340 5030070 4993568 4947786 4897318 4847424 4803802 4770401 4749263 
2047.197 4740855 4744573 4758877 4780552 4803132 4818108 4814557 4783835 
2051.054 4722063 4634479 4532817 4434526 4357308 4312865 4303461 4320629 
2054.912 4349075 4372536 4378862 4364236 4332810 4293255 4254640 4223423 
2058.769 4201475 4188227 4181736 4180900 4185717 4196256 4211144 4226702 
2062.627 4238580 4243163 4239349 4230516 4221783 4218839 4224895 4238580 
2066.484 4255610 4270835 4280372 4283685 4283584 4283082 4284655 4287767 
2070.342 4289574 4286127 4275085 4256949 4234866 4213185 4195051 4180632 
2074.199 4167619 4152264 4131724 4105533 4076200 4048039 4025264 4009579 
2078.056 4001085 3997273 3995300 3992658 3987776 3979617 3967512 3950292 
2081.914 3927321 3898869 3867343 3836488 3811050 3794605 3787886 3788789 
2085.771 3792599 3793936 3789257 3777525 3760312 3740126 3719105 3697316 
2089.629 3674158 3647293 3616387 3582609 3549670 3521910 3503105 3495422 
2093.486 3498629 3511121 3530662 3555182 3583044 3612210 3639775 3662496 
2097.344 3676932 3681476 3677066 3667275 3657284 3652172 3654544 3663766 
2101.201 3677500 3691802 3704300 3714860 3725889 3740393 3760780 3787786 
2105.058 3819774 3853904 3887335 3918428 3946981 3973464 3998410 4021719 
2108.916 4043156 4062153 4079611 4097405 4117441 4141860 4170328 4201007 
2112.773 4230416 4254841 4272107 4281677 4284722 4283517 4280673 4277829 
2116.631 4275921 4275854 4278565 4285659 4298642 4317851 4342281 4369089 
2120.488 4394694 4415882 4430978 4440384 4445707 4449222 4451732 4452937 
2124.345 4451331 4444569 4431179 4410927 4384218 4352221 4315642 4275185 
2128.203 4230750 4182840 4132527 4081451 4031384 3983229 3937252 3893119 
2132.060 3851397 3814927 3787585 3774951 3781101 3806604 3846617 3892718 
2135.918 3935045 3966643 3984198 3990719 3992057 3993862 3999447 4007105 
2139.775 4012255 4010047 3996771 3974401 3946915 3920634 3899638 3885998 
2143.633 3877506 3872057 3867210 3862630 3860490 3863097 3871990 3887335 
2147.490 3906659 3927054 3946681 3963299 3975471 3981256 3976407 3956344 
2151.347 3917492 3858651 3782873 3697282 3610172 3527756 3453906 3389718 
2155.205 3336058 3297962 3287111 3319130 3412627 3577765 3811785 4095265 
2159.062 4395966 4680698 4921412 5103452 5226140 5298246 5331419 5337256 
2162.920 5324073 5298548 5265244 5229460 5195322 5165613 5139359 5113040 
2166.777 5081124 5038785 4985189 4922719 4857342 4794522 4739381 4692889 
2170.635 4653267 4618036 4585353 4555686 4531511 4516177 4511222 4516077 
2174.492 4527795 4541891 4554045 4560775 4559503 4548788 4526590 4492172 
2178.349 4446611 4393288 4340072 4296133 4271170 4271638 4298810 4348071 
2182.207 4410392 4475299 4535328 4585085 4624198 4653502 4674769 4688937 
2186.064 4696775 4698181 4694530 4688200 4681870 4678085 4677415 4679157 
2189.922 4682640 4686157 4690243 4696406 4705985 4719283 4735194 4750335 
2193.779 4760887 4764070 4758576 4745344 4726552 4704478 4679726 4653267 
2197.636 4624433 4593792 4564023 4538375 4520697 4512997 4514771 4523007 
2201.494 4532884 4539916 4541121 4536065 4526154 4513934 4503053 4495922 
2205.351 4495118 4502685 4520027 4547449 4583378 4623595 4661841 4690846 
2209.209 4705416 4703272 4686860 4661741 4635350 4614989 4604608 4605378 
2213.066 4614989 4630159 4646804 4662444 4674836 4683410 4688166 4689238 
2216.924 4688100 4686492 4686291 4688937 4694162 4699856 4702502 4698181 
2220.781 4684583 4662344 4634680 4606282 4582507 4565965 4556858 4553376 
2224.638 4552605 4552070 4550764 4549090 4547181 4545340 4542159 4536099 
2228.496 4525752 4511892 4496859 4484037 4476739 4475801 4479719 4485175 
2232.353 4488088 4486615 4480924 4473625 4468135 4467399 4471516 4479919 
2236.211 4489528 4498131 4504493 4509280 4513298 4517751 4522873 4527862 
2240.068 4532214 4535897 4539882 4546344 4556891 4572160 4590945 4610301 
2243.926 4627815 4641445 4651157 4658157 4664655 4672458 4681066 4689841 
2247.783 4696842 4700626 4701497 4700124 4698181 4696909 4696674 4696741 
2251.640 4696607 4696674 4698181 4704143 4716939 4737640 4764974 4795728 
2255.498 4825043 4848631 4863474 4868266 4863708 4851412 4833084 4810402 
2259.355 4784974 4758409 4733151 4710909 4694028 4683444 4678990 4679994 
2263.213 4685085 4693793 4706555 4724174 4747689 4776833 4810034 4844309 
2267.070 4876140 4902512 4921613 4933476 4939140 4940045 4937598 4932739 
2270.927 4926204 4918396 4910487 4903517 4899429 4899328 4903651 4911559 
2274.785 4921848 4932739 4942290 4949697 4954254 4955863 4955528 4953920 
2278.642 4952713 4953216 4956835 4964510 4976241 4991289 5008585 5026450 
2282.500 5044048 5060675 5076096 5090142 5102379 5111833 5117231 5117935 
2286.357 5113879 5106436 5097920 5091014 5087762 5089304 5095070 5103351 
2290.215 5112303 5119981 5125210 5128094 5129569 5130575 5132553 5136610 
2294.072 5143048 5152235 5163769 5176980 5191130 5205013 5218091 5230030 
2297.929 5241197 5252197 5263768 5276043 5288453 5299320 5307000 5309852 
2301.787 5307303 5299957 5289459 5278156 5267927 5260381 5256121 5255081 
2305.644 5256959 5261319 5267759 5275741 5284864 5294054 5302774 5310321 
2309.502 5317130 5324073 5332325 5343227 5357248 5374156 5392909 5412099 
2313.359 5431054 5449407 5467459 5486182 5505846 5526517 5547559 5568031 
2317.217 5586893 5604078 5619786 5635126 5651339 5669601 5691152 5716466 
2321.074 5745339 5776398 5807189 5833383 5849872 5851988 5835633 5800071 
2324.931 5747488 5683062 5613577 5546351 5487256 5439778 5404684 5380563 
2328.789 5365333 5356644 5353424 5355571 5362884 5375330 5391969 5411092 
2332.646 5431155 5451185 5471049 5491316 5512893 5536216 5560916 5585886 
2336.504 5609750 5630897 5648821 5663692 5676046 5686822 5696960 5706763 
2340.361 5716969 5727612 5739027 5750879 5762195 5771361 5776230 5774820 
2344.219 5766291 5752189 5736274 5724456 5723516 5739598 5776566 5835801 
2348.076 5915499 6011707 6118521 6229799 6339323 6441746 6533630 6613557 
2351.933 6682698 6743134 6798327 6851037 6902844 6954186 7004692 7053655 
2355.791 7101445 7148836 7196906 7246766 7298823 7352470 7406662 7460794 
2359.648 7514259 7567190 7619926 7672601 7724776 7775271 7823511 7868821 
2363.506 7911538 7952537 7992596 8031646 8068573 8101047 8126771 8143854 
2367.363 8151721 8151181 8143145 8129135 8109250 8083560 8051426 8013285 
2371.220 7970356 7925912 7883532 7847633 7821554 7807317 7806170 7818181 
2375.078 7843246 7881170 7931784 7994722 8069282 8154692 8249438 8352515 
2378.935 8463353 8581654 8707256 8840130 8979607 9124476 9273183 9423601 
2382.793 9573427 9720153 9860625 9991480 10109011 10209918 10291542 10353195 
2386.650 10395885 10421712 10434202 10436238 10429857 10415908 10394189 
2390.025 10364087 10325709 10279566 10226574 10167856 10104398 10036305 
2393.401 9963509 9886013 9804024 9719104 9633216 9549581 9471381 9402066 
2397.258 9344745 9301956 9275586 9266176 9273386 9295117 9328496 9370035 
2401.115 9417235 9469179 9526516 9591786 9668144 9757970 9862185 9979512 
2404.973 10107518 10243061 10383736 10528293 10677414 10832429 10995180 
2408.348 11166763 11347394 11536639 11733422 11936459 12144462 12355429 
2411.723 12567250 12777023 12981675 13177748 13362326 13532385 13685449 
2415.099 13819376 13931857 14021439 14087115 14129044 14148864 14149103 
2418.474 14133529 14105734 14069010 14025410 13976373 13922106 13862100 
2421.849 13796152 13723851 13645511 13561852 13474757 13387168 13302431 
2425.224 13224816 13158211 13105756 13069354 13049515 13045965 13057915 
2428.600 13084822 13127133 13185843 13261913 13355833 13467204 13594602 
2431.975 13735786 13888442 14051008 14222810 14403996 14594579 14795426 
2435.350 15006759 15228559 15461459 15705992 15962934 16232893 16516546 
2438.725 16813954 17125042 17449566 17787964 18140654 18508806 18892742 
2442.101 19292884 19708926 20140118 20585598 21045172 21518810 22006734 
2445.476 22508744 23023740 23549454 24083164 24621594 25161960 25702436 
2448.851 26241718 26779098 27313794 27844308 28368928 28884796 29389154 
2452.226 29878834 30350166 30799456 31222436 31614576 31971120 32287658 
2455.602 32559566 32782796 32953452 33067818 33122562 33115446 33044576 
2458.977 32909594 32710622 32448404 32124076 31738534 31293470 30790920 
2462.352 30234238 29627788 28977624 28289916 27572084 26831224 26074244 
2465.727 25308220 24539932 23775836 23022934 22287834 21576610 20894916 
2469.103 20247582 19638582 19071076 18546878 18067798 17633862 17244418 
2472.478 16897380 16589003 16314832 16069269 15846455 15641823 15451090 
2475.853 15271869 15102430 14941768 14788982 14643548 14504571 14371425 
2479.228 14243969 14121788 14004946 13893026 13785788 13682508 13582808 
2482.604 13486617 13394275 13306702 13225294 13151039 13084857 13027322 
2485.979 12978022 12936682 12902581 12874627 12851794 12832784 12816097 
2489.354 12800978 12786714 12773713 12763510 12757505 12757505 12764705 
2492.729 12779344 12800944 12828006 12859371 12893126 12928148 12963172 
2496.104 12996970 13028858 13057983 13084173 13107805 13129831 13151347 
2499.480 13173718 13197490 13223176 13250401 13278585 13306974 13334683 
2502.855 13360891 13384775 13405791 13423800 13439282 13453807 13468947 
2506.230 13486754 13508287 13533445 13560827 13587936 13611697 13630057 
2509.605 13642195 13648246 13649683 13647084 13640759 13629441 13611252 
2512.981 13584039 13546435 13498819 13442563 13380128 13313740 13245277 
2516.356 13175664 13105448 13035141 12965664 12898656 12835685 12778456 
2519.731 12727718 12683024 12643588 12608214 12575913 12546649 12520696 
2523.106 12498359 12479775 12464464 12451711 12440732 12431355 12423922 
2526.482 12419694 12419933 12425661 12437526 12454848 12476501 12501087 
2529.857 12527312 12554494 12582359 12611489 12642394 12676234 12713660 
2533.232 12755185 12800603 12849201 12899407 12949654 12998233 13044223 
2536.607 13087930 13130685 13174503 13221673 13274246 13333078 13397863 
2539.983 13467204 13539222 13612141 13684594 13755999 13826422 13896208 
2543.358 13965595 14034547 14102655 14169609 14234930 14298583 14360533 
2546.733 14421430 14481377 14540509 14598656 14654549 14707193 14755558 
2550.108 14799129 14838042 14873562 14906893 14939951 14973594 15008954 
2553.484 15045553 15083321 15120991 15158079 15193832 15227736 15259273 
2556.859 15287622 15311441 15329770 15341475 15345834 15342985 15333203 
2560.234 15317001 15295001 15267270 15233981 15195411 15152315 15105312 
2563.609 15055810 15004942 14953188 14901097 14848568 14795495 14742498 
2566.985 14690947 14642623 14599548 14563329 14534582 14513204 14497958 
2570.360 14487612 14481548 14479596 14482028 14489702 14503200 14522660 
2573.735 14547670 14577480 14610958 14647489 14686457 14727450 14770435 
2577.110 14815173 14861322 14908710 14957063 15006280 15056359 15107302 
2580.486 15158765 15210955 15263769 15317551 15373021 15430902 15491915 
2583.861 15556234 15623688 15693521 15764674 15836317 15907595 15978266 
2587.236 16047951 16116342 16182989 16247582 16309809 16370086 16429132 
2590.611 16488118 16547937 16608935 16670320 16730579 16788366 16842474 
2593.987 16892594 16939756 16985648 17032060 17080376 17131282 17184984 
2597.362 17241142 17299686 17360514 17424144 17491336 17562506 17637900 
2600.737 17717618 17801668 17890324 17984078 18083170 18187846 18297388 
2604.112 18411208 18527618 18645336 18763642 18882258 19001736 19122734 
2607.488 19245708 19370898 19497754 19624888 19751020 19874448 19993158 
2610.863 20105654 20210230 20305042 20388932 20461134 20521052 20569062 
2614.238 20605438 20630558 20644804 20648626 20642164 20626284 20602136 
2617.613 20570904 20534148 20493264 20448874 20402094 20353686 20304312 
2620.989 20255498 20208808 20165940 20128248 20096146 20069600 20047390 
2624.364 20028620 20012276 19998084 19986428 19978380 19975292 19978276 
2627.739 19988372 20006272 20031914 20065262 20105446 20152056 20204190 
2631.114 20261190 20322402 20387230 20455230 20526332 20600156 20676424 
2634.490 20754794 20835226 20917586 21002222 21089274 21179126 21271678 
2637.865 21366128 21461504 21556728 21650752 21743300 21834752 21926082 
2641.240 22018236 22111732 22206366 22301298 22394752 22485050 22571178 
2644.615 22652822 22730500 22805640 22879958 22955616 23033942 23116124 
2647.990 23202694 23293510 23388122 23485726 23585976 23688280 23792950 
2651.366 23900554 24011512 24126734 24246472 24370448 24498072 24628924 
2654.741 24762270 24898606 25038038 25181832 25330768 25485342 25645278 
2658.116 25810056 25978694 26149826 26322682 26496344 26670146 26843632 
2661.491 27016162 27187738 27358432 27528590 27699098 27870556 28043816 
2664.867 28218910 28395490 28572994 28750744 28928392 29106146 29284508 
2668.242 29464818 29647938 29834682 30025698 30220988 30420346 30623210 
2671.617 30828872 31036268 31244370 31451858 31657484 31860642 32060254 
2674.992 32256390 32448116 32635108 32816566 32991954 33160758 33323508 
2678.368 33481456 33636776 33792184 33950336 34113744 34284168 34463052 
2681.743 34651412 34850268 35060564 35283576 35519972 35770128 36034256 
2685.118 36311840 36602500 36905768 37221376 37549136 37888384 38238572 
2688.493 38598572 38966840 39341660 39722104 40107168 40496940 40891544 
2691.869 41291644 41698200 42111928 42533616 42963688 43402388 43849228 
2695.244 44303352 44763944 45229360 45698884 46172012 46648420 47128564 
2698.619 47612312 48099560 48589688 49081592 49574060 50065744 50556052 
2701.994 51043784 51527960 52007104 52479232 52941880 53392244 53827548 
2705.370 54245116 54642076 55015072 55361212 55677004 55959328 56206008 
2708.745 56415548 56587520 56722252 56819980 56881052 56905676 56893892 
2712.120 56846228 56763412 56646784 56497884 56317916 56107292 55866016 
2715.495 55593692 55289932 54955204 54590528 54198264 53780516 53339976 
2718.871 52878816 52399040 51902952 51393036 50872204 50344632 49814648 
2722.246 49287132 48767412 48259716 47768144 47296196 46846316 46420492 
2725.621 46019956 45645256 45296804 44974540 44679100 44410732 44170220 
2728.996 43958180 43775120 43621372 43496720 43400812 43333116 43292772 
2732.372 43278968 43290392 43325792 43383456 43461636 43558328 43671896 
2735.747 43800996 43944428 44101044 44269492 44447508 44632244 44820368 
2739.122 45007948 45191376 45367640 45534260 45689608 45832968 45964072 
2742.497 46084096 46193900 46295292 46390332 46480600 46567600 46652332 
2745.873 46735384 46817084 46898064 46978980 47060876 47144888 47232100 
2749.248 47322872 47417472 47515420 47616788 47721436 47830068 47943644 
2752.623 48064028 48193440 48334224 48489424 48661956 48854576 49069428 
2755.998 49307844 49569976 49855008 50160760 50484064 50821356 51168456 
2759.374 51521204 51874724 52224232 52564492 52890716 53198124 53483112 
2762.749 53742264 53973056 54172964 54339128 54469224 54560996 54613220 
2766.124 54626372 54602212 54544276 54456980 54344424 54211288 54061048 
2769.499 53897388 53723964 53544728 53363768 53185204 53012440 52847828 
2772.875 52692560 52547140 52411304 52284848 52167852 52060332 51962028 
2776.250 51872000 51788556 51708416 51628028 51542392 51446632 51335752 
2779.625 51204952 51050568 50869856 50661524 50426228 50166000 49884444 
2783.000 49585984 49275292 48957520 48637088 48318520 48005736 47701724 
2786.375 47408896 47128344 46860336 46603748 46357112 46119096 45888648 
2789.751 45665460 45450444 45244692 45049256 44865224 44692728 44531388 
2793.126 44380636 44239512 44107208 43982380 43863340 43748112 43633868 
2796.501 43517528 43396384 43267804 43129972 42981760 42822840 42652764 
2799.876 42471972 42280700 42079036 41867356 41645756 41414200 41172500 
2803.252 40920340 40656900 40382164 40096888 39802136 39500612 39195564 
2806.627 38890876 38590348 38297848 38016028 37747768 37494840 37258704 
2810.002 37040340 36840556 36659604 36497724 36354780 36230252 36123476 
2813.377 36033468 35959312 35899888 35854436 35822156 35803160 35798088 
2816.753 35807656 35833316 35875992 35936096 36013520 36107632 36217756 
2820.128 36343036 36483416 36639164 36810980 36999208 37204084 37424732 
2823.503 37659984 37907580 38165016 38429844 38699076 38970028 39239264 
2826.878 39503732 39759608 40003904 40232816 40443480 40632776 40798028 
2830.254 40936760 41046912 41127188 41177204 41197968 41191664 41161208 
2833.629 41110212 41042872 40962940 40874360 40780520 40684300 40588248 
2837.004 40493848 40401768 40311956 40223724 40136536 40050012 39964560 
2840.379 39881268 39801660 39727768 39661184 39603500 39556392 39521840 
2843.755 39501992 39499488 39517560 39558968 39625172 39716436 39830676 
2847.130 39963796 40108880 40257460 40399804 40525096 40623100 40685104 
2850.505 40704096 40676624 40603092 40487304 40335772 40157684 39963360 
2853.880 39762296 39564120 39376848 39206732 39058472 38935340 38838044 
2857.256 38766632 38718960 38691684 38680456 38680128 38685856 38692552 
2860.631 38696356 38693892 38683064 38663468 38635184 38600016 38559964 
2864.006 38517712 38476004 38437124 38403276 38376564 38358356 38350212 
2867.381 38353184 38368272 38395820 38435964 38488384 38552400 38626784 
2870.757 38710196 38800652 38896164 38994604 39093824 39192264 39289536 
2874.132 39386352 39484212 39585792 39694296 39812444 39942836 40087112 
2877.507 40246592 40421624 40612332 40818412 41038792 41271856 41515436 
2880.882 41766700 42022492 42280516 42538328 42794468 43048048 43298372 
2884.258 43544596 43785860 44020656 44247700 44465456 44672492 44867612 
2887.633 45050248 45220316 45378308 45525576 45664060 45795928 45924300 
2891.008 46051784 46181336 46315716 46458288 46611788 46780104 46966980 
2894.383 47175988 47409820 47670032 47955780 48263752 48587688 48918540 
2897.759 49244192 49551032 49824532 50050128 50216324 50315088 50343624 
2901.134 50304412 50204720 50055480 49868572 49656448 49430092 49198212 
2904.509 48968200 48745724 48535332 48341072 48166192 48012584 47881784 
2907.884 47774284 47689816 47628248 47589576 47574048 47582072 47613568 
2911.260 47667888 47742736 47834984 47939908 48051628 48163712 48269156 
2914.635 48360964 48432784 48478904 48495316 48480088 48433264 48357112 
2918.010 48254936 48131060 47989348 47833212 47664816 47485548 47295752 
2921.385 47095736 46885696 46666352 46438748 46204476 45964960 45721928 
2924.760 45476420 45229176 44980456 44730228 44478340 44224696 43969620 
2928.136 43714252 43460392 43211000 42969652 42740828 42529084 42338884 
2931.511 42174068 42037092 41929244 41850428 41799316 41774216 41773488 
2934.886 41795668 41839956 41905564 41992124 42098128 42221868 42360400 
2938.261 42510232 42667932 42830268 42995004 43160936 43327552 43494528 
2941.637 43661164 43825624 43984432 44132732 44262848 44366656 44434732 
2945.012 44457676 44427980 44340780 44194976 43993928 43745472 43461528 
2948.387 43155040 42840356 42530400 42234136 41957420 41701700 41465052 
2951.762 41242960 41030016 40821144 40612220 40401476 40188360 39973752 
2955.138 39758700 39543724 39328636 39112420 38893704 38671652 38446244 
2958.513 38218492 37990788 37765476 37544800 37330192 37122116 36920236 
2961.888 36724212 36533872 36349844 36173744 36007076 35851844 35709544 
2965.263 35581536 35468480 35371272 35290152 35225180 35175704 35139740 
2968.639 35113944 35093828 35074216 35049464 35015344 34968796 34908252 
2972.014 34834076 34747708 34651700 34549044 34443576 34338960 34238672 
2975.389 34145716 34061060 33983692 33909100 33829896 33736316 33616260 
2978.764 33458836 33254466 32997314 32686368 32325492 31923078 31490688 
2982.140 31042604 30593416 30155918 29741814 29359552 29014496 28709822 
2985.515 28446820 28226372 28049294 27916948 27830566 27790542 27793968 
2988.890 27833852 27896312 27962496 28008720 28009144 27941578 27790118 
2992.265 27548466 27221744 26825620 26384046 25922590 25467386 25039336 
2995.641 24651858 24311260 24017744 23767088 23553058 23369134 23209544 
2999.016 23069442 22945032 22833124 22731266 22636972 22548388 22464044 
3002.391 22382752 22303426 22225302 22147716 22070350 21993348 21917788 
3005.766 21844890 21776532 21714282 21659146 21611642 21571386 21537506 
3009.142 21508992 21484726 21463698 21445004 21428122 21412178 21396966 
3012.517 21382418 21369086 21357742 21349840 21346706 21349214 21357950 
3015.892 21372950 21393798 21419906 21450746 21485804 21524380 21565224 
3019.267 21607080 21647792 21685094 21716790 21741034 21756326 21762284 
3022.643 21758696 21746470 21726718 21701116 21671544 21640304 21609448 
3026.018 21581102 21556728 21537054 21522362 21512508 21506310 21502864 
3029.393 21500740 21498546 21495170 21489704 21481418 21470486 21457084 
3032.768 21441488 21424292 21405808 21386072 21365640 21344898 21324922 
3036.144 21307068 21292870 21283788 21280378 21283160 21291548 21305084 
3039.519 21323426 21346220 21373994 21407060 21445246 21487962 21534094 
3042.894 21582112 21630656 21678860 21726370 21773154 21819700 21865516 
3046.269 21910402 21953614 21994464 22032772 22068746 22103156 22136452 
3049.645 22168844 22199984 22228720 22254074 22274998 22291148 22302484 
3053.020 22309564 22312984 22313296 22310994 22306566 22301194 22295856 
3056.395 22292300 22291602 22294462 22300774 22309600 22319644 22329796 
3059.770 22339250 22347482 22354354 22359832 22363668 22365692 22365902 
3063.146 22364924 22364436 22366250 22372634 22384950 22403580 22427860 
3066.521 22455914 22485678 22515444 22544026 22571248 22597740 22623918 
3069.896 22650726 22678514 22708120 22740030 22774912 22813184 22855056 
3073.271 22900112 22947372 22995440 23043408 23090580 23137024 23183714 
3076.646 23231774 23281902 23334450 23388890 23444106 23498666 23551554 
3080.022 23602034 23650246 23696712 23742240 23787456 23832712 23877800 
3083.397 23922190 23965430 24006714 24046004 24083722 24120534 24157978 
3086.772 24197388 24239884 24285716 24334352 24384502 24434800 24483946 
3090.147 24531518 24578008 24624960 24673356 24724528 24778582 24834574 
3093.523 24891062 24946540 24999884 25050884 25100098 25148828 25198370 
3096.898 25249850 25303548 25359782 25418342 25478736 25540756 25604084 
3100.273 25668054 25732316 25796272 25859532 25921922 25983970 26046204 
3103.648 26109500 26174072 26240100 26307014 26373906 26439610 26503210 
3107.024 26564250 26622410 26677862 26730856 26781848 26831436 26880254 
3110.399 26929396 26980092 27033370 27090674 27152608 27219416 27290648 
3113.774 27365382 27442286 27519906 27597260 27673178 27747132 27818872 
3117.149 27888610 27956594 28023244 28088916 28154104 28219194 28284116 
3120.525 28349262 28414946 28481562 28549532 28619246 28690954 28764340 
3123.900 28839152 28914154 28988568 29061540 29132296 29201394 29269442 
3127.275 29337286 29406136 29476946 29549540 29623530 29697818 29770876 
3130.650 29841496 29909218 29973968 30036598 30098596 30161174 30225606 
3134.026 30292712 30362600 30434846 30509166 30584636 30660900 30737072 
3137.401 30812580 30886644 30958586 31027976 31094674 31159386 31222756 
3140.776 31286384 31351518 31419158 31489938 31563904 31640376 31718612 
3144.151 31797678 31876828 31955712 32034356 32112874 32192048 32272092 
3147.527 32353512 32435980 32519638 32603640 32687724 32771506 32854874 
3150.902 32938116 33021804 33106040 33191226 33277430 33364080 33450786 
3154.277 33537362 33623740 33710424 33797772 33886568 33976740 34068188 
3157.652 34160520 34253008 34345344 34437368 34529456 34622168 34716264 
3161.028 34812500 34911164 35012612 35116532 35222664 35330480 35438928 
3164.403 35547084 35653756 35758256 35859836 35958880 36056036 36152392 
3167.778 36248980 36346388 36444248 36541732 36637364 36729192 36815992 
3171.153 36896788 36971644 37041388 37107320 37170552 37232028 37292280 
3174.529 37350556 37406208 37458140 37505244 37547436 37585408 37620740 
3177.904 37655432 37691604 37730852 37773392 37818972 37866332 37914164 
3181.279 37961456 38007748 38053136 38098092 38143132 38188788 38235644 
3184.654 38283768 38334216 38387928 38445776 38508732 38576880 38649416 
3188.030 38724792 38801268 38877032 38950964 39022512 39091792 39158976 
3191.405 39224760 39289536 39354032 39418824 39484788 39552472 39622088 
3194.780 39693096 39764656 39835144 39903460 39969464 40033988 40098668 
3198.155 40165428 40235648 40309740 40386420 40463992 40540228 40614076 
3201.531 40685432 40755264 40825108 40896532 40970372 41046984 41125508 
3204.906 41205472 41285812 41366312 41446204 41525532 41603452 41679744 
3208.281 41754224 41827296 41899760 41972492 42046548 42122152 42199264 
3211.656 42276828 42354008 42430320 42505444 42579880 42654008 42728032 
3215.031 42802148 42876236 42950152 43024012 43098576 43174620 43253164 
3218.407 43334432 43417880 43502548 43586972 43669552 43749652 43826984 
3221.782 43901612 43974092 44045412 44116156 44187460 44260608 44336672 
3225.157 44416308 44499596 44585832 44673596 44761596 44848804 44935072 
3228.532 45021584 45109208 45199540 45292944 45388828 45485800 45582140 
3231.908 45676392 45767912 45856572 45943044 46027508 46110956 46193420 
3235.283 46276020 46359952 46447044 46539052 46637096 46741284 46849928 
3238.658 46961152 47072064 47180720 47286480 47389608 47491504 47592976 
3242.033 47694916 47796960 47898504 47999004 48098860 48198884 48300704 
3245.409 48405596 48514172 48625932 48740052 48855204 48970832 49086972 
3248.784 49204632 49325068 49449028 49576584 49706636 49837688 49968116 
3252.159 50096424 50222424 50346080 50468396 50590224 50712236 50835028 
3255.534 50958564 51082504 51206296 51329524 51451220 51570788 51687628 
3258.910 51801472 51912136 52019768 52124364 52226180 52325364 52421996 
3262.285 52515876 52607240 52695700 52781448 52864184 52943712 53019924 
3265.660 53092784 53162772 53230484 53296484 53361068 53423756 53483824 
3269.035 53539668 53590272 53634808 53673424 53706980 53736752 53763940 
3272.411 53789588 53814156 53837484 53859164 53879120 53897088 53913328 
3275.786 53927888 53940976 53952720 53963676 53974368 53986040 53999732 
3279.161 54016320 54036128 54058344 54081236 54103000 54122180 54137756 
3282.536 54150216 54160612 54170412 54180920 54192972 54206036 54219212 
3285.912 54231524 54241508 54248644 54252436 54253224 54251796 54249432 
3289.287 54246992 54246092 54247288 54251008 54257016 54264448 54272596 
3292.662 54280816 54289304 54298576 54309240 54321744 54336128 54351708 
3296.037 54366996 54380888 54392756 54402632 54411156 54419456 54427908 
3299.413 54436508 54444884 54452208 54457844 54461976 54464940 54467608 
3302.788 54470652 54474220 54478388 54483460 54489732 54498296 54510656 
3306.163 54527896 54550928 54579520 54612320 54647792 54684768 54722084 
3309.538 54760084 54799064 54839588 54881696 54925048 54968968 55013080 
3312.914 55057836 55104664 55154700 55209740 55270700 55337236 55408488 
3316.289 55483332 55560216 55638736 55718476 55800004 55883688 55969880 
3319.664 56058580 56149744 56242404 56336136 56429472 56521208 56609828 
3323.039 56694768 56775380 56852912 56929024 57005520 57083964 57164612 
3326.415 57246372 57326972 57404260 57476196 57541900 57601820 57656684 
3329.790 57707164 57753484 57794324 57828540 57855004 57873020 57883016 
3333.165 57885328 57880364 57867572 57845500 57812456 57767224 57709736 
3336.540 57641700 57565844 57485272 57402408 57318960 57234500 57147868 
3339.916 57057208 56960828 56857216 56745512 56625040 56495772 56358276 
3343.291 56213396 56063028 55909504 55755092 55601452 55449104 55297420 
3346.666 55144956 54989724 54830116 54665604 54496980 54325388 54152620 
3350.041 53980672 53810556 53643020 53477980 53314992 53153524 52992972 
3353.417 52832600 52671836 52510904 52349920 52189896 52031832 51876516 
3356.792 51724388 51575640 51429360 51285296 51143184 51002864 50864456 
3360.167 50728584 50594728 50462812 50331868 50200848 50069464 49937820 
3363.542 49806288 49676396 49548620 49423444 49300384 49179064 49058968 
3366.917 48940644 48825024 48713548 48607588 48507764 48413448 48323332 
3370.293 48235168 48146684 48055664 47960664 47860916 47755980 47645996 
3373.668 47531384 47412480 47290472 47166240 47041084 46915820 46791324 
3377.043 46667680 46545284 46423884 46303736 46184944 46067332 45950408 
3380.418 45833668 45715264 45593692 45467520 45335864 45198364 45055360 
3383.794 44907992 44757516 44605328 44452244 44299136 44146964 43996128 
3387.169 43847028 43700220 43555728 43413484 43273332 43134548 42996832 
3390.544 42859192 42721160 42582440 42443072 42303348 42164356 42026800 
3393.919 41891624 41758896 41628176 41498444 41368424 41236984 41103620 
3397.295 40968876 40833480 40699000 40566456 40436608 40309156 40183600 
3400.670 40058732 39933972 39808632 39682096 39553744 39423212 39289896 
3404.045 39153756 39015120 38874532 38732796 38590712 38448200 38304976 
3407.420 38160352 38013788 37865496 37716684 37568752 37423576 37281812 
3410.796 37143480 37007000 36870236 36731640 36590244 36446516 36301572 
3414.171 36156964 36013992 35872576 35732248 35591932 35450832 35308448 
3417.546 35165032 35020912 34876300 34731016 34585104 34438340 34291804 
3420.921 34146720 34005368 33869728 33740396 33616580 33496558 33377140 
3424.297 33256040 33131432 33003356 32872706 32741316 32610212 32480504 
3427.672 32351974 32223952 32095608 31966448 31836182 31705208 31573988 
3431.047 31442810 31312096 31182598 31054704 30929232 30806784 30687996 
3434.422 30572726 30460330 30349810 30240312 30130878 30021578 29912590 
3437.798 29804268 29696754 29589834 29482408 29373412 29261538 29145972 
3441.173 29026684 28904592 28780978 28657540 28534988 28413568 28292534 
3444.548 28170082 28044310 27913378 27777048 27636700 27495266 27356774 
3447.923 27224850 27102242 26989188 26884202 26784104 26685120 26583800 
3451.299 26478242 26368062 26253792 26136138 26016264 25894066 25769302 
3454.674 25641340 25510220 25376712 25242722 25109964 24980336 24855202 
3458.049 24734664 24618158 24504452 24392354 24280564 24168628 24055390 
3461.424 23941028 23824872 23706650 23586222 23463692 23339204 23213460 
3464.800 23087820 22963092 22840668 22721944 22607582 22498030 22392658 
3468.175 22290346 22189418 22088268 21985332 21879944 21772178 21662212 
3471.550 21550842 21438320 21324748 21210092 21094528 20978748 20863906 
3474.925 20751422 20642790 20538562 20438872 20342576 20248346 20154140 
3478.301 20058564 19960684 19859602 19755180 19647734 19538164 19428136 
3481.676 19319834 19215680 19117888 19027456 18943514 18863638 18784334 
3485.051 18701720 18612862 18516760 18413768 18306512 18198212 18091806 
3488.426 17989224 17891360 17797698 17707542 17620232 17535010 17451980 
3491.802 17371204 17292892 17216872 17142622 17068970 16994846 16919188 
3495.177 16840854 16760021 16677413 16594822 16514309 16438218 16367713 
3498.552 16302550 16240874 16180031 16116479 16047642 15972869 15893126 
3501.927 15811369 15731450 15656766 15589925 15531508 15481167 15437048 
3505.302 15397155 15359668 15322459 15283400 15240844 15193352 15140409 
3508.678 15082875 15023121 14964093 14909636 14862317 14822991 14790730 
3512.053 14763648 14739105 14714802 14689782 14663186 14635220 14605955 
3515.428 14574705 14540476 14502412 14459795 14412764 14362348 14310021 
3518.803 14257117 14204459 14152014 14098855 14043582 13984859 13921867 
3522.179 13854061 13781786 13705658 13626364 13544657 13460437 13372850 
3525.554 13280463 13181812 13075910 12963002 12844524 12723248 12602688 
3528.929 12485639 12373771 12266702 12162488 12058401 11951478 11839950 
3532.304 11723141 11601225 11475328 11346067 11214328 11081032 10947199 
3535.680 10814833 10686481 10564686 10450833 10345051 10245911 10150999 
3539.055 10057871 9964763 9871031 9777489 9684814 9593785 9504028 9414458 
3542.912 9323756 9230128 9132698 9031094 8925759 8817440 8707458 8597606 
3546.770 8490045 8387881 8294151 8210268 8136258 8069214 8004307 7936340 
3550.627 7860116 7772808 7675669 7573158 7470940 7375622 7291376 7219410 
3554.485 7158099 7104106 7053319 7002470 6949170 6892510 6831952 6768071 
3558.342 6700801 6631186 6560203 6489333 6420156 6354857 6294945 6241631 
3562.199 6195482 6155824 6120504 6086162 6047387 5997294 5929707 5839965 
3566.057 5727478 5597164 5459171 5327260 5213329 5125143 5063793 5025143 
3569.914 5000775 4982206 4962164 4935755 4900937 4857577 4806817 4750469 
3573.772 4690109 4627547 4564827 4503924 4446343 4393355 4344657 4299212 
3577.629 4255677 4212248 4167987 4122760 4077270 4032253 3988244 3945377 
3581.487 3903817 3863465 3824688 3788020 3753527 3720441 3686422 3647661 
3585.344 3599581 3538112 3461521 3371686 3273924 3177386 3090948 3021609 
3589.201 2972498 2942206 2926995 2920891 2917488 2911317 2897841 2874025 
3593.059 2838605 2792616 2738096 2678448 2617609 2558444 2503287 2452502 
3596.916 2405454 2360843 2316870 2271436 2223475 2172690 2119879 2066775 
3600.774 2016573 1972302 1936689 1911728 1897717 1893058 1895121 1900246 
3604.631 1904672 1904439 1895820 1875653 1841645 1792534 1729457 1655645 
3608.489 1576592 1498784 1428236 1367804 1317018 1272951 1231049 1187655 
3612.346 1141475 1094536 1051986 1019072 999411 992769 995559 1000374 999145 
3616.686 984666 952056 900588 832926 755748 677622 607108 550738 511924 
3621.025 490461 483661 487078 496432 508374 521212 535079 551236 570478 
3625.365 592077 611090 619153 604387 554388 462399 331566 178662 29589 
3629.704 -89618 -164810 -196937 -197831 -183126 -167228 -160007 -165009 
3633.562 -180344 -200778 -220815 -236843 -248732 -259030 -271349 -288269 
3637.419 -310090 -334889 -359454 -380344 -395870 -406066 -412389 -417122 
3641.277 -421790 -426457 -429436 -428874 -422419 -409178 -390441 -369221 
3645.134 -350449 -339424 -342040 -362600 -404576 -467964 -550868 -648842 
3648.991 -755097 -860631 -955792 -1029809 -1074498 -1086166 -1066070 
3652.367 -1021380 -963065 -904147 -858151 -835465 -842906 -879910 -938137 
3656.224 -1002868 -1058468 -1093305 -1103088 -1091289 -1065971 -1036156 
3659.599 -1009248 -990141 -980322 -979132 -984356 -993777 -1005083 -1016223 
3663.457 -1025744 -1032024 -1033677 -1029611 -1019529 -1004257 -985976 
3666.832 -967925 -955064 -952386 -963859 -990703 -1028719 -1067161 -1090495 
3670.689 -1084149 -1039363 -957280 -847767 -727610 -616749 -533891 -495733 
3674.547 -511156 -576447 -674217 -779672 -872866 -945245 -1000257 -1047494 
3678.404 -1096345 -1150413 -1208009 -1262789 -1308081 -1339232 -1356210 
3681.780 -1362717 -1363344 -1361891 -1358786 -1351519 -1337382 -1315250 
3685.155 -1287930 -1262690 -1248615 -1255256 -1288293 -1347556 -1424809 
3688.530 -1507002 -1580563 -1635659 -1670152 -1686755 -1691045 -1687745 
3691.905 -1679757 -1668040 -1653187 -1635593 -1617041 -1599446 -1584425 
3695.281 -1572672 -1563131 -1553490 -1541374 -1525195 -1505879 -1485803 
3698.656 -1469920 -1462787 -1468665 -1489039 -1522223 -1563164 -1605025 
3702.031 -1639818 -1661967 -1669228 -1662561 -1645198 -1622026 -1597036 
3705.406 -1572672 -1550387 -1529950 -1510502 -1491417 -1473057 -1456711 
3708.781 -1445086 -1441355 -1448752 -1469061 -1501884 -1544543 -1591358 
3712.157 -1635131 -1669129 -1688273 -1690583 -1677414 -1652923 -1622389 
3715.532 -1591589 -1565541 -1547284 -1537610 -1534902 -1536190 -1537841 
3718.907 -1537180 -1533053 -1525624 -1516445 -1506837 -1497723 -1489039 
3722.282 -1480156 -1471241 -1463150 -1457866 -1458692 -1467542 -1484812 
3725.658 -1508125 -1532294 -1550090 -1554580 -1541770 -1511526 -1468202 
3729.033 -1419195 -1373551 -1339793 -1323277 -1325820 -1343691 -1370115 
3732.408 -1396373 -1417411 -1432966 -1448323 -1471703 -1509280 -1561744 
3735.783 -1623082 -1681044 -1722861 -1740352 -1732135 -1702399 -1657841 
3739.159 -1604233 -1544708 -1480388 -1411962 -1342337 -1279109 -1234673 
3742.534 -1224694 -1263251 -1354261 -1483359 -1618824 -1719825 -1759361 
3745.909 -1734775 -1663188 -1570658 -1482270 -1418600 -1390692 -1401327 
3749.284 -1444063 -1507002 -1577459 -1644934 -1703785 -1750352 -1781173 
3752.660 -1791799 -1778896 -1742728 -1687679 -1622554 -1557650 -1502247 
3756.035 -1462721 -1441322 -1436533 -1443997 -1459385 -1479496 -1502775 
3759.410 -1527836 -1552335 -1571748 -1581091 -1576535 -1558014 -1529289 
3762.785 -1497360 -1470217 -1453805 -1449677 -1455192 -1463447 -1467014 
3766.161 -1461433 -1447101 -1429499 -1416090 -1413778 -1426361 -1452517 
3769.536 -1486728 -1520110 -1545005 -1556429 -1553887 -1540317 -1520374 
3772.911 -1499110 -1479760 -1463778 -1450899 -1439869 -1429102 -1417742 
3776.286 -1406480 -1397463 -1393995 -1399214 -1414373 -1438283 -1466485 
3779.662 -1492242 -1509941 -1515884 -1510964 -1499572 -1487652 -1480487 
3783.037 -1481114 -1489402 -1501884 -1513969 -1521497 -1522389 -1517271 
3786.412 -1508917 -1500563 -1494355 -1491251 -1489964 -1489501 -1488280 
3789.787 -1485077 -1479397 -1470415 -1456843 -1437920 -1413151 -1383723 
3793.163 -1353171 -1326844 -1310427 -1308478 -1321955 -1347721 -1377547 
3796.538 -1400568 -1407834 -1394722 -1363807 -1323079 -1285452 -1264903 
3799.913 -1273229 -1315712 -1387125 -1472231 -1547746 -1592943 -1598092 
3803.288 -1566333 -1510832 -1449049 -1399874 -1377019 -1386861 -1426130 
3806.664 -1481576 -1534506 -1567324 -1571385 -1548901 -1509016 -1462820 
3810.039 -1419063 -1381312 -1348018 -1314787 -1277391 -1234706 -1190298 
3813.414 -1152627 -1131543 -1135674 -1167993 -1222745 -1284593 -1334838 
3816.789 -1359149 -1352444 -1321163 -1279307 -1244948 -1233979 -1257635 
3820.165 -1318322 -1406909 -1503172 -1582279 -1625954 -1627770 -1594593 
3823.540 -1540317 -1481411 -1431249 -1397496 -1381147 -1377481 -1377646 
3826.915 -1372130 -1355483 -1326910 -1291233 -1256082 -1228626 -1213956 
3830.290 -1213427 -1224034 -1239926 -1254694 -1262987 -1261467 -1250201 
3833.666 -1231666 -1209991 -1190430 -1178369 -1179228 -1196609 -1232096 
3837.041 -1283140 -1343988 -1405158 -1457470 -1494322 -1513341 -1516610 
3840.416 -1509181 -1496667 -1483987 -1474146 -1467641 -1463711 -1460013 
3843.791 -1453904 -1442973 -1425470 -1400568 -1368596 -1330610 -1287930 
3847.167 -1242140 -1194395 -1144828 -1093338 -1040453 -988191 -941179 
3850.542 -908379 -901800 -934467 -1017480 -1151801 -1323607 -1501983 
3853.917 -1650711 -1743389 -1772726 -1748636 -1689032 -1611726 -1528827 
3857.292 -1448752 -1376193 -1312871 -1260410 -1219837 -1191091 -1173379 
3860.667 -1164127 -1159732 -1156757 -1153288 -1150082 -1150082 -1156592 
3864.043 -1170372 -1187786 -1201565 -1203151 -1187059 -1154312 -1112606 
3867.418 -1075688 -1057707 -1070400 -1117497 -1191818 -1275277 -1346367 
3870.793 -1389140 -1399015 -1383459 -1355120 -1328001 -1311220 -1306562 
3874.168 -1309138 -1309964 -1300021 -1273955 -1232393 -1180814 -1128007 
3877.544 -1083059 -1054039 -1046040 -1060385 -1093536 -1137194 -1180285 
3880.919 -1211676 -1222877 -1212403 -1184515 -1148992 -1117960 -1103451 
3884.294 -1114060 -1150446 -1204936 -1261236 -1301805 -1312541 -1289582 
3887.669 -1238902 -1173644 -1109103 -1059525 -1035462 -1040552 -1071127 
3891.045 -1116572 -1163631 -1198889 -1214022 -1206720 -1179988 -1139078 
3894.420 -1090033 -1038503 -988918 -944584 -908677 -884142 -872933 -876338 
3898.277 -893401 -921506 -955792 -990670 -1021248 -1045577 -1063855 -1079093 
3902.135 -1095453 -1115646 -1139904 -1166208 -1189703 -1205167 -1208835 
3905.510 -1199451 -1178997 -1150908 -1119579 -1088545 -1060352 -1035859 
3908.885 -1015000 -997216 -981678 -967429 -953676 -939360 -923655 -906164 
3912.743 -886887 -867443 -850512 -839037 -836557 -845188 -864831 -893533 
3916.600 -927490 -962007 -992885 -1017744 -1035297 -1045511 -1048452 
3919.975 -1044023 -1032156 -1013083 -988389 -961015 -934864 -914199 -902229 
3923.833 -899948 -905900 -916480 -927325 -934136 -935095 -930003 -920911 
3927.690 -910231 -900411 -893302 -889764 -889995 -894062 -901800 -913339 
3931.548 -927656 -943658 -959098 -971463 -978835 -979727 -974537 -964784 
3935.405 -952486 -939691 -927854 -917241 -907388 -897203 -885531 -872569 
3939.262 -859143 -846775 -837780 -834242 -837185 -846511 -860896 -877099 
3943.120 -892045 -902494 -906164 -902725 -893599 -880836 -867509 -856597 
3946.977 -850148 -848793 -852166 -858217 -864963 -870386 -872866 -871941 
3950.835 -868237 -862351 -855671 -849719 -845651 -844659 -847139 -852992 
3954.692 -861260 -870155 -877430 -881199 -880108 -873660 -862946 -850413 
3958.550 -838144 -828951 -824453 -825081 -830141 -838409 -847470 -855307 
3962.407 -860069 -860234 -855109 -844659 -829380 -810497 -789627 -768493 
3966.264 -749077 -732737 -720332 -711963 -707133 -704785 -703693 -702965 
3970.122 -701874 -700120 -698003 -695886 -694861 -695357 -697573 -701510 
3973.979 -706273 -710508 -713055 -712691 -708754 -701510 -692049 -681661 
3977.837 -671935 -663730 -657676 -653540 -650530 -647817 -644707 -641034 
3981.694 -637064 -633392 -630811 -629818 -630679 -633061 -636733 -640869 
3985.552 -645005 -648875 -652779 -656948 -662010 -668229 -675607 -683778 
3989.409 -691883 -698400 -702502 -703362 -700947 -695886 -689402 -682951 
3993.266 -677625 -674118 -672497 -672299 -673390 -674482 -675475 -676136 
3997.124 -676302 -675706 -674681 -672828 -670645 -668494 -666873 -666476 
##END=
