##TITLE=814d_2_b
##JCAMP-DX=5.01  $$ Nicolet v. 1
##DATATYPE=INFRARED SPECTRUM
##ORIGIN=UniL
##OWNER=Nicolet
##LONGDATE=2011/09/28
##TIME=10:26:16
##SPECTROMETER/DATA SYSTEM=Nicolet iS5
##DATA PROCESSING=
Ratio against background
%Transmittance->Absorbance
Truncated
ElementMultiply or ElementDivide
##COMMENTS=
Number of sample scans: 32
Collection length: 51.13 sec
Sample gain: 2.0
Background collected on: Mer Sep 28 10:18:58 2011 (GMT+02:00);
Number of background scans: 32
Background gain: 2.0
Sample spacing:  1.000
Number of scan points: 12415
Resolution points: 8192
Number of FFT points: 65536
Apodization: N-B fort;
Phase correction: Mertz;
Laser frequency: 15798.0 cm-1
Number of rejected sample scans: 0
Number of rejected background scans: 0
Bench serial number: ASB1000141;
##RESOLUTION=4.000
##XUNITS=1/CM
##YUNITS=ABSORBANCE
##FIRSTX=649.893372
##LASTX=4000.122314
##FIRSTY=0.101098
##MAXX=4000.122314
##MINX=649.893372
##MAXY=0.266488
##MINY=-0.001557
##XFACTOR=1.000000
##YFACTOR=1.000000E-009
##NPOINTS=6950
##DELTAX=0.482117
##ZPD=6100
##XYDATA=(X++(Y..Y))
649.893 101098192 100903824 100772216 100702976 100679744 100682504 
652.786 100704320 100760896 100884224 101107360 101445648 101885320 
655.679 102387040 102907160 103413768 103902072 104390880 104907328 
658.571 105466072 106056344 106642240 107178632 107634504 108003496 
661.464 108306760 108580712 108861136 109169216 109509064 109871888 
664.357 110245944 110621816 110985008 111308864 111542856 111609224 
667.250 111431072 110971664 110271480 109436888 108590752 107816496 
670.142 107133976 106515696 105909336 105267672 104562792 103796056 
673.035 102988880 102171512 101362024 100560320 99751672 98919096 98056680 
676.410 97175992 96300448 95454640 94654152 93899392 93180272 92485864 
679.785 91813128 91170528 90573360 90034000 89554928 89124592 88724264 
683.159 88335384 87949544 87570360 87210504 86882520 86589360 86322624 
686.534 86065224 85800224 85518808 85225032 84932824 84660664 84421552 
689.909 84218768 84047168 83897408 83761336 83635784 83521592 83420720 
693.284 83332080 83250560 83169136 83083384 82994968 82911064 82841848 
696.659 82793816 82766232 82751200 82737008 82714160 82681376 82645696 
700.034 82619688 82615200 82637008 82682136 82742576 82809696 82879104 
703.408 82952736 83035448 83130168 83233416 83334208 83416864 83468824 
706.783 83483608 83463528 83417352 83354200 83279296 83192400 83091368 
710.158 82978120 82864512 82773608 82735200 82777536 82917768 83153160 
713.533 83458504 83785328 84074584 84261256 84285912 84108088 83709664 
716.908 83101400 82322096 81439312 80540112 79712800 79044120 78599248 
720.282 78413256 78488992 78792704 79259648 79792352 80275880 80593208 
723.657 80633936 80325152 79643936 78628664 77369304 75992536 74634880 
727.032 73401888 72359328 71523608 70872512 70362912 69950040 69602576 
730.407 69302584 69042288 68816048 68614216 68423688 68232464 68035584 
733.782 67838376 67652800 67492952 67365592 67268056 67188992 67115048 
737.156 67037172 66954592 66872880 66798872 66734420 66673876 66605776 
740.531 66519416 66412032 66290892 66172568 66074028 66007100 65972848 
743.906 65963164 65964788 65967752 65968408 65969220 65974660 65985808 
747.281 65997036 65998228 65979712 65936936 65874584 65804140 65738752 
750.656 65686792 65648748 65618844 65589672 65557568 65525324 65500588 
754.031 65491148 65499388 65520928 65545516 65562928 65568516 65565088 
757.405 65560496 65563196 65577956 65603428 65635688 65672456 65717824 
760.780 65781428 65875204 66005708 66170604 66357480 66551356 66741332 
764.155 66928776 67127464 67361112 67653728 68021448 68471632 69002944 
767.530 69610392 70288424 71030720 71829528 72676688 73571336 74534872 
770.905 75630832 76963752 78668344 80871408 83623928 86845368 90273128 
774.279 93503232 96016936 97307104 97042648 95134392 91792416 87437584 
777.654 82629104 77903376 73652640 70117216 67354800 65292276 63781144 
781.029 62661900 61804124 61112504 60535400 60047364 59637068 59301596 
784.404 59043700 58872124 58799348 58838088 58997620 59280328 59684052 
787.779 60207916 60856888 61646840 62602080 63749140 65113320 66714368 
791.154 68566872 70686920 73095616 75819608 78886824 82312408 86084456 
794.528 90145592 94391560 98664392 102750720 106415688 109401208 111452912 
797.903 112370872 112022776 110384472 107546888 103713720 99172072 94228400 
801.278 89201936 84365536 79916000 75984368 72619736 69806120 67480296 
804.653 65557992 63956632 62608584 61477740 60555628 59853404 59385620 
808.028 59154216 59133524 59269732 59480872 59669380 59747924 59645508 
811.402 59321500 58768508 58004444 57064276 55988276 54821544 53606616 
814.777 52381768 51184448 50045260 48987004 48024652 47163912 46404232 
818.152 45742176 45174500 44700916 44323388 44044088 43863964 43781352 
821.527 43792972 43896368 44093304 44390764 44802368 45344360 46030676 
824.902 46869604 47858108 48978696 50194824 51451072 52675272 53774592 
828.277 54652188 55218208 55401940 55173060 54548260 53592708 52403636 
831.651 51098416 49796848 48594652 47563212 46741252 46134056 45720088 
835.026 45455744 45286984 45150308 44986376 44749728 44411904 43969212 
838.401 43439884 42859816 42271280 41712716 41214180 40791332 40447224 
841.776 40176472 39969936 39817892 39711684 39643904 39607640 39596388 
845.151 39605828 39633992 39682600 39755580 39857552 39990792 40154160 
848.525 40342532 40549684 40770260 41001612 41244528 41501872 41776808 
851.900 42071148 42385568 42720576 43077904 43462296 43880532 44340084 
855.275 44847772 45408656 46025556 46702652 47445340 48262568 49166448 
858.650 50171132 51290520 52538460 53928600 55473464 57186040 59073992 
862.025 61134668 63345260 65656460 67990792 70237120 72271272 73965560 
865.400 75200584 75891584 75993288 75509304 74490968 73035312 71274952 
868.774 69348992 67401424 65557340 63906304 62509820 61395904 60566368 
872.149 60004296 59680100 59556872 59588528 59724312 59910416 60090208 
875.524 60216020 60253704 60186984 60020200 59774956 59485352 59187780 
878.899 58918264 58708496 58582020 58557184 58646828 58857780 59190856 
882.274 59640944 60196576 60840000 61549204 62300756 63068368 63826696 
885.648 64553796 65231436 65851792 66419712 66954940 67488080 68055472 
889.023 68692104 69420168 70246200 71158808 72134320 73141448 74148392 
892.398 75129160 76061936 76928704 77713712 78400512 78972336 79414208 
895.773 79710928 79847856 79810344 79581376 79144728 78489384 77614384 
899.148 76533888 75278712 73895592 72436720 70956664 69506336 68125280 
902.523 66845788 65691844 64680024 63822208 63123920 62584512 62197012 
905.897 61949160 61827388 61818676 61914084 62109692 62404644 62798992 
909.272 63291708 63879660 64558716 65326124 66181056 67124296 68154888 
912.647 69267136 70447312 71674512 72924112 74175552 75417800 76654168 
916.022 77901984 79191808 80561736 82049808 83694032 85524936 87559824 
919.397 89797864 92210856 94740528 97290680 99742328 101970792 103861240 
922.771 105344016 106409512 107120792 107601520 108027672 108607816 
925.664 109537080 110989456 113089152 115885928 119346224 123336816 
928.557 127638160 131921752 135783072 138802784 140549840 140678688 
931.450 138989600 135454352 130245792 123704288 116313144 108587224 
934.342 101010344 94001200 87836560 82673560 78563272 75474960 73334496 
937.717 72050736 71540336 71724104 72520032 73834560 75534376 77442472 
941.092 79357528 81048712 82303800 82966896 82950608 82261544 80989496 
944.467 79296712 77374096 75408336 73564280 71950384 70623096 69593280 
947.841 68839344 68323000 68001680 67840200 67809328 67885984 68051744 
951.216 68288912 68581312 68915992 69283696 69679912 70103504 70554488 
954.591 71031152 71530288 72046784 72576032 73116160 73668536 74236168 
957.966 74822176 75427024 76047680 76678552 77313904 77950744 78590152 
961.341 79236304 79894136 80566280 81252056 81946760 82644704 83341592 
964.716 84036512 84731864 85431992 86140048 86857712 87584712 88320648 
968.090 89067392 89829848 90614584 91428472 92275360 93154808 94063704 
971.465 94998952 95960440 96953584 97987504 99073288 100220264 101432664 
974.840 102710840 104052696 105456952 106924672 108459896 110066008 
977.733 111743512 113487368 115288120 117132904 119010088 120910616 
980.625 122827184 124752160 126675024 128579840 130448968 132265744 
983.518 134018872 135705088 137326592 138885440 140378048 141791072 
986.411 143101120 144282704 145311072 146171216 146859152 147382480 
989.304 147757344 148005568 148157344 148248240 148319648 148419024 
992.196 148589648 148865856 149268288 149800384 150452352 151206144 
995.089 152045232 152955920 153929376 154958896 156035344 157144672 
997.982 158270960 159398672 160518128 161627008 162728656 163826336 
1000.874 164918064 165993136 167033648 168020384 168937504 169777888 
1003.767 170543488 171243504 171890000 172497200 173083024 173669392 
1006.660 174287008 174973360 175765712 176696768 177787648 179043888 
1009.552 180458928 182018976 183709936 185519632 187438016 189454784 
1012.445 191554608 193718112 195925392 198161712 200423008 202715344 
1015.338 205050208 207434016 209858320 212294528 214698720 217017792 
1018.231 219199632 221206208 223014432 224617984 226025488 227261568 
1021.123 228369312 229407456 230456000 231604144 232932560 234506720 
1024.016 236359488 238489296 240864384 243435152 246147008 248941424 
1026.909 251761200 254543840 257211264 259678752 261857392 263665824 
1029.802 265048832 265978512 266453200 266488336 266108784 265344320 
1032.695 264228816 262807376 261136112 259271408 257264592 255141888 
1035.588 252897504 250492032 247865120 244953744 241703088 238082944 
1038.481 234089296 229742016 225081136 220165264 215075184 209904816 
1041.374 204761328 199755936 194979456 190500752 186356272 182551264 
1044.267 179070512 175889872 172988512 170352352 167975760 165856464 
1047.160 163991552 162374464 160996208 159846432 158915376 158193824 
1050.053 157668256 157318272 157114320 157017168 156987008 156988400 
1052.947 156994576 156991248 156970944 156926288 156844928 156704496 
1055.840 156474416 156122960 155618624 154935664 154056304 152967408 
1058.733 151663056 150145904 148431744 146552720 144556192 142504896 
1061.626 140464432 138494592 136646864 134956576 133445096 132124584 
1064.519 130998360 130062920 129306304 128707408 128234088 127845648 
1067.412 127501624 127163528 126802296 126400904 125950368 125446872 
1070.305 124887800 124270160 123591792 122853344 122060944 121225224 
1073.198 120359632 119478088 118592752 117714224 116855024 116029688 
1076.091 115256368 114554336 113937864 113412600 112972616 112603288 
1078.984 112284136 111996272 111727312 111471760 111228888 110998016 
1081.877 110775480 110554752 110330136 110102976 109887592 109711984 
1084.770 109620016 109662112 109889984 110354312 111095408 112142736 
1087.663 113511336 115196008 117165408 119352552 121661808 123961672 
1090.556 126098648 127928064 129319384 130183280 130486104 130247400 
1093.449 129538376 128463176 127155928 125755488 124387296 123162192 
1096.343 122155136 121403624 120909168 120640104 120539768 120531064 
1099.236 120532952 120461936 120237552 119794888 119084400 118080136 
1102.129 116785216 115232816 113482808 111608064 109690528 107806856 
1105.022 106017176 104369648 102896784 101617608 100543032 99675592 99009360 
1108.397 98529264 98211976 98027400 97939168 97911520 97908456 97893552 
1111.772 97833032 97691024 97431816 97024960 96447008 95687432 94750456 
1115.147 93653744 92425240 91095368 89696872 88259952 86811016 85375688 
1118.523 83976400 82631264 81354376 80152888 79028016 77975968 76990176 
1121.898 76062680 75184472 74344408 73527464 72712872 71878240 71000560 
1125.273 70063088 69061480 68005248 66918604 65833592 64787096 63813380 
1128.648 62937164 62174568 61530424 61000040 60570028 60220552 59927040 
1132.024 59659648 59389192 59089708 58741536 58336184 57877524 57381308 
1135.399 56870660 56373896 55920244 55534120 55234840 55033576 54932756 
1138.774 54925764 54997432 55127800 55292112 55465900 55629468 55767488 
1142.149 55871440 55937768 55966188 55957328 55912744 55835004 55728456 
1145.525 55599720 55458180 55313036 55172460 55042264 54924520 54819512 
1148.900 54727272 54648844 54587520 54548372 54536052 54554984 54607548 
1152.275 54694576 54816656 54974948 55170992 55406608 55682616 55997472 
1155.650 56347188 56725840 57126516 57542240 57966916 58393908 58815208 
1159.026 59221728 59602064 59943584 60235132 60466084 60627552 60711640 
1162.401 60709584 60611780 60408732 60091196 59653224 59092632 58411420 
1165.776 57614800 56710056 55706232 54613748 53444812 52214896 50941088 
1169.151 49641884 48336148 47039904 45766660 44527492 43330624 42183672 
1172.527 41094004 40068104 39112784 38233364 37433616 36715344 36079080 
1175.902 35524248 35050256 34656364 34341896 34105824 33946932 33864284 
1179.277 33857768 33929412 34083384 34325796 34663472 35102016 35644980 
1182.652 36293504 37047412 37907004 38874680 39954968 41153596 42475444 
1186.028 43921444 45485912 47156524 48910828 50717972 52539136 54323660 
1189.403 56013756 57548668 58865252 59912620 60657688 61090688 61226600 
1192.778 61102704 60772728 60292876 59718688 59096504 58456336 57814160 
1196.153 57171872 56521056 55847852 55138224 54382992 53580076 52735280 
1199.529 51859864 50968844 50076268 49192644 48325332 47478380 46654288 
1202.904 45856316 45088476 44355276 43660464 43004840 42385420 41795304 
1206.279 41225728 40667344 40112584 39557516 39001164 38445452 37893804 
1209.654 37351096 36822952 36315764 35837956 35399204 35009740 34680808 
1213.030 34422200 34241968 34146252 34139584 34224580 34403120 34675672 
1216.405 35041384 35497568 36040848 36666852 37371792 38153732 39011748 
1219.780 39945852 40955840 42040340 43197092 44424272 45721596 47091784 
1223.155 48540480 50075524 51704200 53431740 55259484 57184416 59198676 
1226.531 61287568 63429728 65593792 67734776 69799384 71724456 73441088 
1229.906 74887640 76008128 76760472 77121584 77088344 76683104 75952080 
1233.281 74971152 73838872 72662704 71562448 70649456 70018824 69753744 
1236.656 69915592 70548648 71684824 73341824 75524672 78221192 81400816 
1240.031 85007768 88956320 93141344 97430984 101672040 105709832 109377512 
1243.407 112514072 114985864 116686504 117558704 117598616 116854720 
1246.300 115419280 113410872 110976240 108267600 105432832 102615992 
1249.193 99929512 97445376 95186080 93118272 91158592 89186184 87078568 
1252.568 84727024 82064176 79079536 75817800 72371784 68855144 65394612 
1255.943 62104604 59067692 56337608 53931376 51836156 50015624 48421300 
1259.319 47001540 45704884 44489612 43325208 42190940 41077324 39981780 
1262.694 38906640 37856644 36837304 35854796 34915256 34025080 33190906 
1266.069 32418020 31710092 31068334 30491394 29976134 29518508 29115430 
1269.444 28764340 28463872 28212580 28007590 27844698 27718770 27624164 
1272.820 27556692 27513870 27494702 27498902 27525802 27573814 27640444 
1276.195 27722796 27818060 27923768 28036676 28152124 28263996 28364506 
1279.570 28446148 28504028 28536262 28544154 28530602 28498120 28445864 
1282.945 28370128 28264736 28124020 27945568 27732650 27493608 27241432 
1286.321 26991940 26759822 26558510 26399150 26289696 26236122 26241928 
1289.696 26307648 26430984 26606346 26826888 27084432 27371454 27681300 
1293.071 28007306 28342082 28677398 29003232 29310984 29594800 29853564 
1296.446 30091600 30317512 30542758 30777902 31032068 31312276 31623342 
1299.822 31968944 32352120 32773900 33232074 33720272 34227916 34741028 
1303.197 35244336 35724980 36172124 36578748 36941192 37257908 37529844 
1306.572 37760272 37955748 38125840 38282288 38438100 38604004 38787464 
1309.947 38991700 39215692 39455616 39706344 39962888 40220056 40472792 
1313.323 40715852 40944408 41153488 41340256 41502384 41638644 41748132 
1316.698 41829044 41879288 41897460 41884144 41843532 41783372 41714796 
1320.073 41648708 41594520 41557876 41539932 41538584 41549488 41568520 
1323.448 41592404 41620300 41654108 41699876 41768380 41875020 42039868 
1326.823 42283984 42623632 43066304 43604412 44215152 44860080 45493492 
1330.199 46071420 46555724 46924120 47170412 47304400 47347332 47328452 
1333.574 47281012 47235644 47220352 47257552 47361560 47539484 47790560 
1336.949 48108184 48480684 48895700 49341624 49809152 50292096 50786756 
1340.324 51291748 51806552 52329552 52856060 53375980 53871652 54315288 
1343.700 54673756 54910796 54992056 54894140 54605968 54130024 53479292 
1347.075 52673632 51737268 50693880 49569716 48393000 47192684 46002492 
1350.450 44857328 43790036 42831620 42005924 41327280 40801780 40427076 
1353.825 40195376 40093760 40107096 40217620 40403984 40644348 40916300 
1357.201 41198988 41476464 41736828 41972308 42178048 42350648 42487572 
1360.576 42588580 42657916 42707304 42756260 42833628 42972356 43202728 
1363.951 43550344 44030596 44648364 45399460 46270416 47237716 48263008 
1367.326 49297376 50279824 51141540 51820848 52265040 52438292 52325104 
1370.702 51928532 51269304 50380760 49311704 48122472 46878316 45652580 
1374.077 44513764 43515036 42691184 42052716 41591712 41289856 41128608 
1377.452 41096044 41190864 41423608 41816060 42400180 43209864 44277304 
1380.827 45620116 47228476 49049652 50976484 52863544 54525944 55772648 
1384.203 56443432 56411132 55610864 54050540 51829992 49138768 46223676 
1387.578 43360648 40773024 38594948 36871100 35571392 34627804 33959616 
1390.953 33496666 33181428 32967892 32821782 32713056 32616534 32515068 
1394.328 32400846 32278054 32159794 32062468 31998686 31971972 31976682 
1397.704 31999510 32025262 32040350 32039172 32026082 32013562 32016664 
1401.079 32047626 32113302 32213282 32342124 32491356 32653182 32822784 
1404.454 32998956 33184360 33384190 33603804 33847304 34118044 34418252 
1407.829 34749392 35111216 35501380 35914824 36343756 36779388 37215488 
1411.205 37649036 38081672 38517640 38961688 39416680 39882684 40358456 
1414.580 40843604 41339780 41850576 42379320 42925280 43480352 44030452 
1417.955 44557748 45049476 45506300 45946580 46397892 46883184 47413556 
1421.330 47984016 48579720 49182440 49780424 50373056 50972720 51601532 
1424.706 52284104 53041456 53884972 54817784 55836812 56935144 58099652 
1428.081 59306536 60522108 61699464 62785940 63736864 64522192 65136844 
1431.456 65599420 65951212 66244932 66532432 66862600 67273792 67796312 
1434.831 68458096 69287192 70311176 71554320 73025432 74714720 76597400 
1438.207 78635344 80779288 82960352 85091960 87054440 88704144 89906672 
1441.582 90541320 90533232 89861680 88552416 86667744 84287680 81508656 
1444.957 78426200 75125184 71688456 68192568 64720824 61379724 58286920 
1448.332 55555208 53267452 51452452 50089952 49127080 48507136 48184408 
1451.708 48131576 48336592 48790432 49477988 50380012 51469684 52720240 
1455.083 54109008 55602844 57154520 58697572 60157828 61478888 62637448 
1458.458 63645808 64529000 65312684 66019288 66668048 67276688 67858640 
1461.833 68418488 68944488 69404264 69752536 69939760 69935208 69744288 
1465.208 69412000 69004656 68580296 68176056 67801040 67446976 67098072 
1468.584 66737548 66345900 65892048 65326400 64579436 63570128 62239800 
1471.959 60588388 58700608 56722444 54809404 53068824 51535080 50191476 
1475.334 49004620 47955600 47055076 46339532 45849612 45618424 45656776 
1478.709 45956084 46499184 47271332 48267160 49490244 50947792 52643296 
1482.085 54572380 56724180 59087092 61654172 64428864 67419728 70629336 
1485.460 74044416 77614344 81236352 84763912 87996208 90696072 92628192 
1488.835 93570880 93370600 91989544 89532528 86237832 82408376 78352176 
1492.210 74300208 70380952 66649312 63099056 59702224 56444640 53338440 
1495.586 50430996 47794408 45498312 43584300 42053008 40876292 40010484 
1498.961 39414688 39059816 38926932 39003012 39276840 39734596 40359152 
1502.336 41131888 42026760 43010256 44037304 45029560 45870232 46396492 
1505.711 46408952 45746888 44373444 42416804 40104592 37652504 35196180 
1509.087 32788194 30440498 28158170 25952312 23854484 21906740 20145496 
1512.462 18598128 17272792 16160600 15240844 14485214 13860904 13329900 
1515.837 12855002 12408477 11978896 11577166 11229017 10962217 10789595 
1519.212 10702273 10665257 10629161 10542925 10378204 10147064 9896623 
1522.588 9681968 9536541 9464777 9447033 9454923 9462136 9454889 9433251 
1526.445 9406907 9386796 9377958 9380193 9392280 9417675 9468096 9559235 
1530.302 9704737 9908115 10158291 10428499 10680708 10879788 11005478 
1533.678 11065464 11090481 11121890 11192534 11316818 11495572 11720895 
1537.053 11983017 12268951 12561349 12835139 13053647 13177885 13183451 
1540.428 13076661 12894765 12688414 12500814 12350759 12232143 12120713 
1543.803 11989421 11819317 11610243 11381882 11165913 10992699 10878089 
1547.179 10822001 10809941 10821389 10835283 10838001 10826077 10804744 
1550.554 10783480 10770165 10768365 10777264 10794383 10817789 10848566 
1553.929 10891203 10953281 11043236 11169007 11335830 11544227 11782989 
1557.304 12020247 12200177 12245025 12094037 11753098 11305697 10863242 
1560.680 10503987 10259956 10124171 10071672 10072453 10099685 10135024 
1564.055 10170299 10208900 10261449 10340368 10452971 10598807 10769724 
1567.430 10953009 11132394 11291347 11416374 11500947 11549194 11575464 
1570.805 11602110 11652887 11745643 11891675 12092844 12342339 12623768 
1574.181 12913981 13187004 13418025 13594534 13722278 13825122 13932131 
1577.556 14067196 14243797 14465859 14733551 15047131 15407728 15816867 
1580.931 16274652 16778824 17324962 17906312 18515342 19140222 19764266 
1584.306 20365284 20914526 21382452 21745390 21989026 22114172 22136278 
1587.682 22086178 22003630 21933610 21923502 22013634 22236428 22612888 
1591.057 23148312 23829492 24620368 25465562 26287864 26997862 27512422 
1594.432 27758186 27690694 27302220 26623290 25717412 24663746 23549560 
1597.807 22449040 21416980 20491700 19692874 19027422 18492800 18079820 
1601.183 17775606 17566198 17440908 17392896 17420454 17524800 17708060 
1604.558 17969228 18302814 18696324 19129834 19577608 20005130 20373200 
1607.933 20643276 20778602 20752394 20551900 20179858 19656574 19018212 
1611.308 18316224 17604256 16931350 16334098 15828243 15412054 15068331 
1614.684 14771326 14490421 14197784 13879616 13539393 13200393 12892888 
1618.059 12645191 12472682 12376907 12349396 12374759 12434424 12507294 
1621.434 12573048 12615582 12624894 12600675 12551493 12492596 12439061 
1624.809 12402579 12389078 12398317 12424706 12458360 12487549 12500883 
1628.185 12491471 12459758 12414342 12370361 12343396 12347248 12390032 
1631.560 12472784 12590545 12733348 12888040 13035926 13154967 13220409 
1634.935 13209103 13111322 12937842 12719836 12494199 12290663 12124325 
1638.310 11995450 11895387 11811486 11733456 11655848 11580807 11516462 
1641.686 11473729 11461822 11484786 11540313 11620419 11712487 11799536 
1645.061 11861641 11878939 11833549 11718648 11543920 11337054 11135148 
1648.436 10974756 10884272 10876933 10954572 11105335 11305596 11511698 
1651.811 11658095 11672663 11505744 11176385 10767516 10374540 10051191 
1655.187 9805075 9621461 9480084 9366515 9272845 9196792 9138281 9096831 
1659.044 9069797 9052204 9036980 9016378 8981501 8922377 8830627 8701204 
1662.901 8537385 8352042 8166644 8004848 7884983 7817708 7802999 7831608 
1666.759 7885962 7944101 7983788 7984834 7935429 7833496 7688552 7517731 
1670.616 7341551 7180601 7049917 6958226 6905437 6881939 6867868 6835452 
1674.474 6758446 6621530 6431926 6217194 6014495 5852861 5743527 5682457 
1678.331 5656039 5649660 5654226 5670473 5707838 5778715 5890376 6037778 
1682.188 6197297 6328430 6378124 6299618 6082331 5765955 5423506 5117801 
1686.046 4882138 4718446 4611138 4538308 4479786 4420434 4349477 4263574 
1689.903 4165243 4064092 3974166 3911039 3888806 3915285 3989916 4101553 
1693.761 4230650 4350046 4430877 4455481 4428066 4376821 4337763 4339805 
1697.618 4391748 4481761 4579292 4640307 4621051 4495788 4279435 4023123 
1701.476 3787819 3611976 3505342 3458080 3450198 3458815 3460919 3439711 
1705.333 3387414 3307578 3212434 3117612 3035856 2973465 2930764 2904312 
1709.190 2890069 2886000 2893571 2917355 2963490 3036924 3139338 3268116 
1713.048 3417169 3578834 3745272 3909769 4066668 4207196 4319256 4385489 
1716.905 4387330 4314069 4170496 3979517 3773213 3583044 3430861 3324939 
1720.763 3263675 3238772 3239539 3253860 3271354 3284608 3289248 3284674 
1724.620 3273157 3259736 3250522 3251257 3266380 3297261 3341935 3395696 
1728.478 3453405 3511756 3571752 3638505 3719573 3821045 3942301 4072487 
1732.335 4186888 4250959 4227036 4093459 3862262 3580137 3306743 3085708 
1736.192 2937403 2859083 2835136 2843608 2862085 2871858 2860384 2826532 
1740.050 2778277 2729593 2692851 2674614 2674614 2687950 2707487 2727359 
1743.907 2746065 2766405 2794483 2836270 2896173 2973832 3065386 3163535 
1747.765 3259669 3346442 3416935 3464426 3481627 3460919 3397599 3293388 
1751.622 3159730 3015770 2883565 2782712 2722625 2703320 2713956 2737429 
1755.479 2753034 2743231 2700619 2629576 2545279 2465364 2405287 2371737 
1759.337 2362343 2366907 2370838 2359511 2321034 2251185 2154874 2045102 
1763.194 1938652 1851728 1796926 1780291 1800919 1851328 1919682 1991142 
1767.052 2052459 2097305 2127504 2152077 2181681 2223942 2278298 2335925 
1770.909 2380066 2393826 2366274 2298483 2204459 2103464 2013344 1943145 
1774.767 1894289 1863541 1847668 1845339 1858183 1887833 1934525 1994237 
1778.624 2059351 2119013 2163366 2187209 2191105 2182214 2169826 2162966 
1782.481 2166429 2179683 2197466 2212419 2217581 2208822 2186476 2155474 
1786.339 2124241 2102532 2099236 2121477 2172457 2250619 2348451 2453601 
1790.196 2549312 2616475 2639677 2609942 2530215 2413950 2282561 2156872 
1794.054 2051094 1971936 1918916 1887700 1872525 1868133 1871294 1879846 
1797.911 1892625 1908400 1924973 1938486 1943711 1935623 1910163 1866602 
1801.769 1807706 1739404 1669116 1604560 1551020 1511917 1487313 1475710 
1805.626 1473748 1479134 1490172 1506530 1528209 1555144 1586003 1617697 
1809.483 1646765 1668850 1681157 1682022 1672742 1655645 1635091 1616034 
1813.341 1602598 1598541 1605857 1625013 1654481 1691402 1731919 1772339 
1817.198 1810002 1843742 1873324 1899647 1923376 1945475 1967642 1992007 
1821.056 2021799 2060216 2108958 2166662 2228005 2284027 2324266 2341588 
1824.913 2335059 2312107 2285526 2269704 2274700 2302447 2346185 2392127 
1828.771 2424446 2429344 2401123 2344120 2271203 2197899 2137226 2096639 
1832.628 2077761 2078261 2093942 2121077 2156473 2197666 2242126 2287924 
1836.485 2332960 2376202 2418215 2461499 2510219 2569810 2645710 2742230 
1840.343 2861918 3004793 3167774 3343804 3521877 3689028 3831240 3939358 
1844.200 4012087 4058540 4092890 4129550 4178625 4241691 4314270 4387196 
1848.058 4451331 4499538 4529435 4542661 4543699 4536835 4524246 4505631 
1851.915 4478915 4441891 4393422 4334450 4267355 4194851 4118545 4038842 
1855.772 3955508 3868279 3777725 3685820 3594436 3505142 3418638 3333821 
1859.630 3249721 3165705 3082739 3003325 2930998 2868922 2819428 2784046 
1863.487 2763804 2759036 2770674 2798885 2842641 2898975 2961956 3023377 
1867.345 3074363 3106599 3114608 3097021 3057011 3001423 2938404 2875293 
1871.202 2818595 2772007 2737662 2715789 2705220 2702920 2705187 2708688 
1875.060 2710955 2710988 2709088 2705787 2700919 2693751 2681715 2662712 
1878.917 2635343 2599709 2557744 2512218 2466031 2420414 2375769 2330795 
1882.774 2284493 2236964 2190040 2147249 2113020 2091811 2086584 2098969 
1886.632 2128003 2170892 2222077 2274034 2318003 2345252 2350350 2333260 
1890.489 2299948 2260478 2226140 2207090 2207656 2227439 2260345 2298783 
1894.347 2335192 2365241 2388262 2406720 2424046 2442572 2463132 2484658 
1898.204 2505886 2526515 2547679 2571276 2599808 2634476 2674948 2719857 
1902.062 2767006 2814426 2860384 2903712 2943074 2977602 3006395 3030217 
1905.919 3050871 3071059 3093183 3118079 3143977 3166405 3179990 3180524 
1909.776 3167206 3142942 3113740 3086509 3067555 3058846 3060648 3071059 
1913.634 3088044 3110703 3139004 3172713 3209396 3244046 3269384 3277463 
1917.491 3263675 3228290 3177720 3121483 3069424 3028282 2999922 2981505 
1921.349 2967694 2953215 2933400 2906814 2873925 2836837 2798218 2761037 
1925.206 2727659 2700319 2681015 2670647 2668513 2673214 2681382 2690050 
1929.063 2697852 2704587 2711422 2719690 2729527 2739329 2746798 2749333 
1932.921 2745831 2737962 2728760 2722291 2720991 2725359 2733528 2743197 
1936.778 2752734 2762837 2776909 2799152 2833336 2880496 2938137 3000656 
1940.636 3060715 3110537 3144744 3159930 3157027 3139705 3115109 3090814 
1944.493 3074196 3071126 3083840 3111071 3147982 3187733 3223817 3251991 
1948.351 3271454 3285776 3299197 3315924 3338095 3364106 3390486 3413194 
1952.208 3429392 3437874 3439711 3436205 3427588 3413996 3394894 3370450 
1956.065 3343571 3317694 3298262 3289782 3294056 3310148 3334756 3363772 
1959.923 3393158 3420675 3444788 3464025 3477018 3482028 3478822 3470004 
1963.780 3460452 3457813 3469169 3497493 3542020 3597042 3654343 3705804 
1967.638 3747846 3779430 3803162 3821913 3836722 3847452 3853169 3853804 
1971.495 3852066 3852868 3861660 3881718 3914315 3955876 4002925 4053022 
1975.353 4106972 4167920 4240085 4323506 4413873 4501881 4575575 4625203 
1979.210 4646268 4639336 4610033 4566032 4514503 4460972 4410626 4366077 
1983.067 4330936 4307745 4297505 4298877 4307878 4318454 4325481 4326720 
1986.925 4322770 4317817 4317048 4323239 4337261 4356271 4376720 4395530 
1990.782 4412200 4428568 4447782 4471651 4499872 4529502 4557661 4581603 
1994.640 4602029 4620280 4639000 4659095 4678822 4694430 4702067 4699186 
1998.497 4686994 4669612 4652229 4639168 4632303 4630595 4630762 4630226 
2002.354 4628485 4625873 4625571 4628016 4632939 4638130 4640106 4637226 
2006.212 4630528 4622557 4616931 4615826 4618103 4620180 4618204 4609497 
2010.069 4595366 4580096 4568678 4565932 4573131 4588367 4607957 4629289 
2013.927 4650019 4670683 4692521 4714728 4735563 4752278 4761926 4765209 
2017.784 4766984 4774388 4794153 4831175 4883813 4946043 5009489 5065268 
2021.642 5108514 5138320 5156694 5167055 5172319 5173996 5171850 5166552 
2025.499 5158538 5149955 5141975 5134900 5126920 5116259 5100367 5079046 
2029.356 5055714 5034193 5020182 5017031 5025645 5044350 5071637 5105866 
2033.214 5147641 5197099 5254545 5316862 5378684 5433604 5475981 5503463 
2037.071 5517692 5523262 5525142 5527423 5531820 5537726 5543397 5548734 
2040.929 5553667 5560178 5569642 5582127 5594949 5604581 5607501 5601594 
2044.786 5587497 5568199 5547492 5529672 5518061 5514403 5519605 5532189 
2048.644 5548935 5564306 5570045 5557224 5518866 5452159 5360536 5253673 
2052.501 5144992 5049278 4977983 4935755 4920306 4923825 4935755 4946982 
2056.358 4952981 4951774 4944871 4933979 4919837 4902210 4881166 4857711 
2060.216 4835095 4817639 4809162 4811374 4823134 4840489 4858180 4872923 
2064.073 4883076 4888974 4893531 4898356 4904087 4910119 4914978 4917558 
2067.931 4917290 4914308 4908208 4898960 4885020 4864814 4838110 4805912 
2071.788 4771507 4738745 4711244 4689841 4674468 4662042 4649851 4636321 
2075.646 4620615 4603469 4585521 4566066 4544000 4517650 4486314 4451431 
2079.503 4416116 4384920 4361124 4346097 4338667 4335320 4332810 4328861 
2083.360 4323306 4317717 4313434 4311559 4311057 4309552 4305436 4297639 
2087.218 4286997 4275821 4265916 4257752 4249152 4237408 4219107 4193345 
2091.075 4161932 4128346 4098208 4075430 4061885 4057403 4060079 4067069 
2094.933 4077270 4089177 4102422 4116237 4128479 4136842 4139987 4138147 
2098.790 4133430 4130186 4132093 4141459 4158319 4179896 4202679 4223590 
2102.647 4241256 4256045 4270467 4286295 4305034 4326753 4350380 4375114 
2106.505 4400350 4426091 4453172 4482397 4513934 4547784 4583880 4622088 
2110.362 4662009 4703741 4745712 4785376 4820185 4847123 4864881 4874062 
2114.220 4877346 4878184 4880630 4887466 4899295 4916184 4936861 4960488 
2118.077 4986228 5013076 5039389 5063122 5081761 5093126 5097451 5097283 
2121.935 5096881 5102077 5116259 5140365 5171146 5202196 5226609 5238246 
2125.792 5234490 5216146 5186939 5152436 5116795 5083471 5053065 5024573 
2129.649 4996082 4965080 4930360 4891185 4848564 4805678 4766549 4736702 
2133.507 4720858 4722164 4740386 4771808 4809967 4848061 4880463 4904355 
2137.364 4920272 4930929 4939575 4948055 4957405 4966756 4975369 4983547 
2141.222 4991457 5000138 5009389 5017199 5020249 5015255 5000306 4975537 
2145.079 4944737 4912062 4882272 4858281 4840221 4828293 4822229 4821458 
2148.937 4826953 4838914 4855566 4872555 4884551 4885388 4871717 4844509 
2152.794 4806918 4764070 4720322 4676477 4632102 4586693 4543833 4512729 
2156.651 4509883 4552605 4654741 4818945 5032752 5271247 5504672 5704716 
2160.509 5853533 5946469 5988459 5990172 5965851 5927893 5885606 5845741 
2164.366 5812059 5785464 5765217 5747388 5728082 5703708 5672320 5635092 
2168.224 5595955 5559204 5528263 5504403 5485209 5467660 5447830 5424579 
2172.081 5399216 5376470 5361308 5357852 5367446 5387709 5414078 5439576 
2175.938 5458534 5465949 5459372 5438469 5405053 5362649 5316191 5271850 
2179.796 5234926 5209406 5197099 5196630 5204376 5215710 5226173 5232880 
2183.653 5235060 5234054 5231539 5230264 5232210 5238481 5251158 5270174 
2187.511 5296033 5327596 5362448 5397001 5427095 5449709 5461990 5464439 
2191.368 5458332 5446052 5431524 5417098 5406294 5402034 5405053 5416393 
2195.226 5434208 5454776 5472458 5483062 5482491 5470512 5450447 5426827 
2199.083 5404718 5388011 5376135 5366474 5355638 5340476 5320350 5298146 
2202.940 5277518 5261688 5252298 5247737 5244886 5240828 5234490 5227112 
2206.798 5222719 5225603 5237944 5259978 5288117 5318271 5345910 5367748 
2210.655 5382878 5392238 5396599 5397236 5395962 5393479 5391801 5392841 
2214.513 5398209 5408408 5422331 5437362 5450783 5460111 5464976 5466117 
2218.370 5465580 5464506 5462191 5456352 5443737 5421861 5390426 5352351 
2222.228 5312870 5278256 5253270 5240560 5239353 5247368 5261118 5277653 
2226.085 5294859 5311864 5327360 5340141 5348393 5350305 5345240 5333096 
2229.942 5315922 5295697 5275037 5255115 5236267 5218091 5198944 5178053 
2233.800 5155386 5131346 5107575 5086723 5071939 5066206 5072140 5090813 
2237.657 5120752 5158371 5197569 5232042 5256524 5267927 5266518 5255383 
2241.515 5239152 5222685 5209842 5202364 5201190 5206421 5217555 5234356 
2245.372 5256222 5280973 5305726 5327159 5341885 5348091 5346816 5340476 
2249.229 5332761 5327059 5325214 5327394 5332358 5338464 5344233 5350070 
2253.087 5356577 5364192 5373351 5382408 5389587 5392103 5387809 5375565 
2256.944 5355638 5328837 5296871 5262024 5226911 5194215 5167021 5147406 
2260.802 5136811 5135168 5141036 5152469 5167423 5185027 5205248 5228956 
2264.659 5256557 5287547 5319881 5350674 5377007 5397001 5410757 5419580 
2268.517 5425619 5430216 5433973 5435718 5433638 5426894 5415252 5400021 
2272.374 5383381 5367379 5353391 5341550 5331654 5323034 5315654 5310455 
2276.231 5308141 5309751 5315017 5322732 5331554 5339168 5344703 5347721 
2280.089 5348493 5347923 5347084 5346615 5347755 5351512 5359295 5372042 
2283.946 5390325 5412904 5437899 5462426 5483666 5499738 5509906 5514806 
2287.804 5515678 5513967 5510309 5505309 5499101 5491920 5484874 5479438 
2291.661 5476820 5478095 5483296 5491954 5503128 5516651 5532860 5552459 
2295.519 5576422 5604648 5636301 5669164 5700250 5727310 5749100 5765552 
2299.376 5777741 5787378 5795772 5803731 5810884 5816961 5821092 5823779 
2303.233 5825458 5827506 5831502 5838857 5850476 5867033 5887991 5912543 
2307.091 5939247 5966288 5992322 6015940 6037241 6056761 6075947 6096545 
2310.948 6119899 6146548 6176056 6207447 6239782 6272187 6304695 6338113 
2314.806 6373147 6410875 6451599 6495219 6540660 6586880 6632566 6676137 
2318.663 6716717 6753667 6787254 6818556 6849253 6880828 6913583 6946039 
2322.521 6974254 6993076 6996678 6981257 6946039 6894192 6832726 6770090 
2326.378 6714497 6672537 6646696 6636031 6636670 6643736 6652080 6658741 
2330.235 6662039 6662443 6661366 6660424 6661568 6666379 6676305 6692120 
2334.093 6714395 6742124 6773893 6807381 6840165 6870426 6897559 6921596 
2337.950 6943614 6964489 6984893 7004760 7024055 7042105 7059010 7074536 
2341.808 7088748 7100839 7109057 7110707 7102456 7082349 7049345 7005366 
2345.665 6955398 6907053 6868844 6849320 6855514 6891533 6958462 7053958 
2349.522 7173123 7308831 7452334 7595648 7731960 7856877 7969242 8070159 
2353.380 8162288 8248155 8329615 8407508 8481969 8553064 8621095 8686601 
2357.237 8750292 8812301 8872830 8931610 8988976 9046284 9104951 9166402 
2361.095 9230839 9296709 9361199 9420452 9471009 9511275 9541689 9564281 
2364.952 9581929 9597003 9610587 9622307 9630539 9633860 9630742 9620377 
2368.810 9602185 9575764 9541012 9497119 9444459 9384289 9318509 9250335 
2372.667 9183120 9120144 9063640 9015498 8976698 8947879 8929987 8923831 
2376.524 8930494 8950924 8984951 9032447 9092296 9163052 9243092 9330967 
2380.382 9425632 9526143 9632538 9744653 9862253 9985105 10111385 10238210 
2384.239 10361814 10477138 10579658 10665698 10733586 10783242 10816294 
2387.615 10835045 10841771 10838035 10824651 10801823 10769961 10729442 
2390.990 10681047 10625732 10564075 10496825 10424121 10346680 10265689 
2394.365 10183256 10102363 10025488 9955067 9892488 9838425 9792637 9755157 
2398.222 9726219 9707075 9698604 9701891 9717274 9744653 9783352 9832900 
2402.080 9892827 9963203 10044239 10135702 10237158 10347698 10466309 
2405.455 10592287 10725434 10866130 11014381 11170436 11333551 11502989 
2408.830 11677904 11857998 12043616 12235482 12433810 12638027 12846095 
2412.206 13054842 13259932 13457258 13643118 13814348 13968674 14103750 
2415.581 14218222 14310979 14382008 14432803 14465516 14483227 14488845 
2418.956 14484049 14469148 14443456 14406017 14356458 14295570 14225447 
2422.331 14149138 14069763 13989820 13911090 13835145 13763146 13697246 
2425.707 13639904 13593646 13560690 13542846 13540589 13554058 13583526 
2429.082 13629680 13693416 13775835 13876948 13995432 14128840 14273758 
2432.457 14426809 14586252 14752164 14926095 15110801 15308764 15521755 
2435.832 15750105 15992705 16247340 16512141 16785060 17065488 17353858 
2439.208 17652324 17963530 18291512 18639560 19010424 19405164 19822876 
2442.583 20261262 20717398 21188278 21672032 22168006 22676628 23198220 
2445.958 23732406 24277762 24831906 25391574 25953894 26516558 27077978 
2449.333 27637406 28193984 28746956 29295318 29837486 30371874 30896180 
2452.708 31407688 31902504 32376036 32823176 33237976 33615576 33950552 
2456.084 34238168 34474100 34653280 34770536 34821080 34800440 34705644 
2459.459 34535444 34291088 33975096 33591128 33144128 32638930 32080304 
2462.834 31473052 30821758 30131128 29406704 28654604 27881756 27096600 
2466.209 26307930 25524590 24756060 24010076 23293998 22614074 21974630 
2469.585 21379424 20830602 20329554 19876322 19469960 19108572 18788970 
2472.960 18506872 18257542 18035676 17835880 17653946 17486300 17330374 
2476.335 17184570 17047948 16919740 16799076 16685264 16577402 16474936 
2479.710 16377002 16283149 16192824 16105268 16020620 15938805 15859962 
2483.086 15784705 15713653 15646907 15583846 15523541 15464824 15407111 
2486.461 15350263 15295070 15243041 15195788 15154338 15119206 15089394 
2489.836 15063905 15041335 15020754 15002130 14985769 14972874 14964197 
2493.211 14960116 14961042 14966186 14974589 14984911 14995784 15005731 
2496.587 15013723 15019176 15021920 15022606 15021749 15019931 15017221 
2499.962 15013173 15006451 14995716 14980110 14959533 14935046 14908984 
2503.337 14884021 14862831 14847538 14838899 14837082 14840716 14848258 
2506.712 14857654 14867082 14874283 14877883 14876855 14870511 14858751 
2510.088 14842396 14821447 14796627 14767659 14734134 14695437 14650882 
2513.463 14600062 14543525 14481891 14416430 14347725 14276736 14203569 
2516.838 14128771 14052821 13976749 13902160 13831074 13765301 13706410 
2520.213 13655529 13612347 13576757 13547700 13524524 13506271 13492702 
2523.589 13483576 13478551 13477560 13480021 13485011 13491744 13498819 
2526.964 13505518 13511705 13517722 13524455 13533377 13545752 13562467 
2530.339 13583765 13609030 13637203 13667702 13699537 13732503 13766566 
2533.714 13802034 13838840 13877152 13916736 13957622 14000223 14044916 
2537.090 14092283 14142463 14195045 14249139 14303891 14358205 14411772 
2540.465 14464592 14516733 14568605 14619903 14670040 14718298 14764848 
2543.840 14809689 14854636 14900994 14950238 15002781 15057936 15114129 
2547.215 15169642 15223206 15274202 15323695 15372369 15421049 15469322 
2550.591 15516124 15559633 15598511 15632240 15661025 15686857 15711386 
2553.966 15736226 15762096 15788760 15814943 15839411 15861198 15879756 
2557.341 15895119 15907733 15917426 15924128 15926981 15925229 15917769 
2560.716 15903438 15881818 15852401 15815355 15771545 15722310 15669063 
2564.092 15613830 15558397 15503830 15450953 15399969 15350468 15302483 
2567.467 15256082 15211642 15170294 15133410 15102190 15077695 15060784 
2570.842 15051419 15049258 15053375 15062602 15075671 15091967 15111144 
2574.217 15133650 15160515 15192940 15231922 15277360 15327916 15381398 
2577.593 15435263 15487039 15535286 15579999 15622279 15664013 15707195 
2580.968 15753265 15802778 15855769 15911238 15968503 16026499 16085153 
2584.343 16144024 16203590 16264539 16327390 16392864 16461309 16532620 
2587.718 16606044 16680099 16753100 16823220 16889320 16950952 17008664 
2591.094 17063524 17117150 17171024 17226352 17283860 17343410 17404692 
2594.469 17466742 17528006 17586694 17641558 17691526 17737190 17780266 
2597.844 17823900 17871404 17926132 17990018 18063654 18146008 18235530 
2601.219 18330774 18430670 18535398 18645336 18760910 18881564 19005784 
2604.594 19131392 19255994 19378312 19498134 19616464 19735208 19856448 
2607.970 19981224 20109888 20241404 20374312 20506464 20635908 20760458 
2611.345 20878298 20987198 21085448 21171124 21243318 21301432 21345664 
2614.720 21376988 21396446 21405180 21404416 21395226 21378588 21355548 
2618.095 21327358 21295236 21260370 21223870 21186712 21149522 21112788 
2621.471 21076752 21041346 21006430 20971934 20937960 20905000 20874056 
2624.846 20846628 20824484 20809260 20801890 20802968 20811900 20828100 
2628.221 20850764 20879272 20913588 20953920 21000240 21052754 21110736 
2631.596 21173212 21238970 21307312 21377196 21448624 21521666 21596528 
2634.972 21673460 21752636 21834054 21917752 22003838 22092280 22182932 
2638.347 22275906 22370646 22466834 22563952 22661724 22759722 22857816 
2641.722 22955372 23051830 23146318 23238382 23327526 23413718 23497688 
2645.097 23580134 23661862 23744094 23827114 23911654 23997890 24086316 
2648.473 24176932 24270474 24367084 24467154 24570786 24677776 24788054 
2651.848 24901132 25017258 25136400 25259052 25385670 25517106 25653750 
2655.223 25795884 25943766 26097080 26255480 26418236 26584786 26754784 
2658.598 26928054 27104676 27284756 27468016 27653898 27841022 28027910 
2661.974 28213218 28396092 28576462 28755310 28933668 29113374 29294962 
2665.349 29478790 29664326 29850476 30036490 30222018 30407340 30593416 
2668.724 30781566 30973210 31168926 31369112 31573456 31781100 31991270 
2672.099 32203074 32415378 32627426 32838472 33047400 33253678 33456258 
2675.475 33654388 33847452 34034932 34216620 34392464 34562928 34728864 
2678.850 34891416 35052592 35214472 35379616 35550860 35730880 35922492 
2682.225 36127724 36347936 36583720 36834816 37100784 37380780 37674148 
2685.600 37980408 38299328 38630948 38974924 39330596 39696980 40073408 
2688.976 40458716 40852880 41255604 41666980 42087248 42515748 42952276 
2692.351 43396272 43847436 44306144 44772720 45248264 45733264 46227880 
2695.726 46731248 47242296 47759676 48282452 48809936 49342328 49879944 
2699.101 50423104 50971788 51525608 52083492 52644564 53207412 53770540 
2702.477 54332032 54889964 55441576 55984128 56514980 57031176 57530208 
2705.852 58008724 58463460 58890564 59285680 59645128 59965612 60245296 
2709.227 60482992 60679024 60833368 60946512 61018764 61050456 61042104 
2712.602 60994856 60910064 60789004 60632696 60441104 60214196 59950852 
2715.978 59650448 59312956 58939060 58530680 58090300 57621004 57126140 
2719.353 56609372 56074636 55526136 54968064 54405148 53841764 53282400 
2722.728 52731540 52193256 51671468 51169872 50691460 50238904 49813904 
2726.103 49417800 49051732 48716328 48412556 48141204 47902612 47697028 
2729.479 47523884 47382256 47270852 47188364 47133772 47106296 47105300 
2732.854 47130600 47181088 47256076 47354020 47473576 47612944 47770180 
2736.229 47943500 48130356 48328000 48533144 48742684 48953772 49164036 
2739.604 49371360 49574060 49770316 49958076 50134688 50298236 50447184 
2742.979 50581628 50703188 50814656 50919292 51020716 51121300 51222956 
2746.355 51326428 51432572 51541796 51654488 51770416 51889248 52009868 
2749.730 52130640 52250244 52368612 52486748 52606824 52732736 52867476 
2753.105 53014688 53176516 53354364 53549152 53761388 53991664 54240684 
2756.480 54508552 54795344 55099816 55420044 55753584 56097220 56447468 
2759.856 56800380 57150776 57493556 57822448 58130980 58413692 58665108 
2763.231 58881948 59061580 59202588 59304332 59366360 59389004 59373120 
2766.606 59320512 59234224 59117916 58975948 58813728 58636096 58447884 
2769.981 58253956 58058032 57863596 57673784 57490452 57315516 57149872 
2773.357 56994564 56850492 56718136 56597788 56489356 56392008 56303844 
2776.732 56221920 56142352 56060804 55971880 55870160 55750608 55608308 
2780.107 55439208 55241048 55013040 54756476 54474108 54170412 53849712 
2783.482 53517292 53177936 52835820 52494936 52158848 51830408 51511988 
2786.858 51205104 50910016 50626488 50353152 50089208 49833824 49586576 
2790.233 49348232 49119288 48901036 48693756 48497688 48312224 48136464 
2793.608 47969028 47808608 47653392 47502036 47353396 47205984 47058772 
2796.983 46910612 46760068 46605852 46446452 46280292 46105612 45921388 
2800.359 45726860 45521640 45305816 45079656 44843548 44597620 44341920 
2803.734 44077056 43803380 43522324 43235484 42944960 42652944 42361932 
2807.109 42074220 41792456 41518972 41256588 41007948 40775028 40559364 
2810.484 40361296 40180728 40016584 39867792 39733756 39614136 39509032 
2813.860 39418896 39343872 39283876 39238248 39205972 39186028 39177432 
2817.235 39180444 39195708 39224828 39269584 39332300 39414980 39519520 
2820.610 39646808 39797340 39970408 40164808 40378460 40609092 40854596 
2823.985 41112544 41381216 41658592 41942416 42229792 42517320 42800608 
2827.361 43075012 43335972 43578696 43799492 43995028 44162332 44299652 
2830.736 44405484 44479220 44521180 44532636 44515636 44472908 44407904 
2834.111 44324452 44226012 44116776 44000160 43879396 43756868 43634196 
2837.486 43511736 43389720 43267476 43145268 43023864 42904580 42789788 
2840.862 42682008 42583648 42496304 42421516 42359960 42312692 42280992 
2844.237 42266604 42272412 42300860 42354228 42433792 42538256 42664316 
2847.612 42805696 42953296 43096600 43222860 43320192 43378260 43389204 
2850.987 43349372 43259496 43124668 42952788 42754248 42540888 42322992 
2854.363 42110724 41912056 41732816 41577272 41447704 41344628 41267192 
2857.738 41212976 41178476 41158876 41149332 41144492 41139428 41130280 
2861.113 41114004 41088540 41053176 41007948 40953800 40892456 40825836 
2864.488 40756716 40688304 40623900 40567036 40520480 40486684 40467048 
2867.864 40461952 40471444 40495016 40532260 40582572 40645332 40719452 
2871.239 40803236 40894236 40989560 41086684 41183720 41280200 41377172 
2874.614 41477048 41583176 41698816 41826456 41967708 42122664 42290668 
2877.989 42470216 42659636 42857440 43062168 43272528 43488040 43707984 
2881.365 43932004 44160056 44391608 44626332 44863312 45100832 45336964 
2884.740 45569476 45796184 46014796 46223864 46421856 46608100 46781948 
2888.115 46943648 47093520 47233060 47364552 47490356 47613940 47738596 
2891.490 47867540 48004440 48152828 48316408 48499540 48706916 48943052 
2894.865 49212204 49517496 49859764 50236632 50641716 51063868 51486324 
2898.241 51889844 52251736 52549532 52765512 52887048 52909876 52838060 
2901.616 52683240 52462520 52193856 51896604 51587168 51278400 50980656 
2904.991 50701068 50444540 50214648 50013616 49842596 49701808 49591108 
2908.366 49509700 49456972 49432356 49435400 49465472 49521696 49602216 
2911.742 49704072 49823792 49956328 50095604 50235404 50368404 50487192 
2915.117 50585052 50655712 50694400 50697900 50665356 50597412 50496684 
2918.492 50367252 50213868 50041648 49855528 49659528 49456712 49248868 
2921.867 49036452 48819576 48597880 48371220 48140244 47905720 47668848 
2925.243 47430996 47193016 46956016 46720844 46488416 46260016 46036936 
2928.618 45820448 45612204 45413660 45226528 45053192 44896344 44758948 
2931.993 44643924 44553632 44489060 44450188 44435836 44444316 44473936 
2935.368 44523788 44593284 44682224 44790172 44915744 45056572 45209540 
2938.744 45371428 45539488 45711992 45888020 46067776 46251100 46437272 
2942.119 46624036 46807448 46981416 47138020 47268192 47362040 47409564 
2945.494 47402724 47335696 47206832 47018668 46778740 46498336 46190144 
2948.869 45868248 45545040 45229768 44928752 44645208 44379280 44129320 
2952.245 43892740 43666400 43447136 43232192 43019328 42806388 42591832 
2955.620 42374572 42153844 41929680 41702576 41473620 41244416 41016832 
2958.995 40792784 40574060 40361804 40156704 39958784 39767852 39583612 
2962.370 39406160 39236180 39074932 38923928 38785144 38660392 38550952 
2965.746 38457540 38380728 38319848 38274104 38241904 38221352 38209808 
2969.121 38203908 38200292 38194796 38183868 38164112 38133328 38090716 
2972.496 38037368 37975996 37910148 37844712 37783908 37730960 37686832 
2975.871 37649760 37615428 37575832 37521316 37440840 37323152 37158860 
2979.247 36941124 36667644 36340188 35965680 35555208 35121204 34678148 
2982.622 34239640 33816608 33417824 33048760 32712412 32409630 32140598 
2985.997 31905356 31704850 31540782 31415380 31330366 31284854 31273496 
2989.372 31284712 31301342 31300984 31258468 31151732 30964706 30690842 
2992.748 30335384 29913834 29449924 28968874 28495430 28049224 27641572 
2996.123 27277592 26956330 26673564 26423482 26200328 25999482 25816770 
2999.498 25649004 25493282 25347066 25208272 25075350 24947242 24823346 
3002.873 24703274 24586634 24473252 24362740 24255476 24151708 24052274 
3006.249 23958146 23870344 23789450 23715958 23649860 23591014 23538680 
3009.624 23492406 23451102 23413754 23379378 23346862 23315674 23285608 
3012.999 23257014 23230412 23206608 23186510 23170434 23159180 23153344 
3016.374 23153552 23160508 23174454 23195144 23221394 23251036 23281482 
3019.750 23309766 23333330 23350426 23360184 23362246 23357036 23344902 
3023.125 23326302 23301516 23271344 23236738 23199374 23161556 23125980 
3026.500 23095158 23071292 23055744 23048860 23049804 23056968 23067554 
3029.875 23078666 23087262 23090684 23087018 23075590 23056406 23030552 
3033.250 22999214 22963998 22925958 22886210 22845626 22805256 22766042 
3036.626 22729522 22697088 22670030 22649820 22637182 22632506 22635856 
3040.001 22646852 22664794 22688882 22718000 22751378 22788146 22827990 
3043.376 22870738 22916248 22964138 23013746 23063674 23112316 23157816 
3046.751 23198744 23234326 23264424 23290082 23312212 23332420 23351756 
3050.127 23371092 23391058 23411900 23433616 23455752 23477576 23498002 
3053.502 23515106 23527664 23534170 23534310 23528572 23518428 23505908 
3056.877 23493316 23482822 23475724 23472890 23474568 23480130 23489082 
3060.252 23500240 23512412 23524548 23535638 23545152 23553058 23559704 
3063.628 23565932 23572788 23581288 23592238 23606510 23624494 23646956 
3067.003 23674212 23706160 23742764 23783222 23826482 23871534 23917254 
3070.378 23963084 24008500 24053184 24096682 24138434 24178192 24215850 
3073.753 24252358 24289114 24328360 24372166 24421972 24477880 24538460 
3077.129 24601432 24663956 24723650 24778932 24829556 24876044 24919380 
3080.504 24960402 24999956 25038458 25076404 25114458 25153252 25193420 
3083.879 25234924 25277876 25321144 25364278 25406432 25447608 25488434 
3087.254 25529406 25571294 25614348 25658530 25703490 25749228 25795884 
3090.630 25844306 25895546 25950378 26009052 26071006 26135222 26199976 
3094.005 26264104 26326870 26388132 26448556 26508846 26570062 26632906 
3097.380 26697912 26765038 26834572 26905916 26978364 27051142 27123402 
3100.755 27194618 27264326 27332990 27400920 27468722 27536710 27604566 
3104.131 27671976 27738088 27802728 27866036 27928538 27991190 28055056 
3107.506 28120520 28187726 28256286 28325848 28396056 28467196 28539448 
3110.881 28613194 28688478 28765294 28843224 28921556 29000044 29078334 
3114.256 29156710 29235418 29314388 29393444 29472124 29549894 29626264 
3117.632 29701188 29774780 29847672 29920152 29992714 30065750 30139330 
3121.007 30213670 30289124 30365834 30444122 30523704 30604260 30684830 
3124.382 30764208 30841500 30916032 30987728 31057124 31125250 31193812 
3127.757 31263846 31336490 31412032 31490118 31569782 31649570 31728412 
3131.133 31805628 31881038 31955176 32029148 32103706 32179240 32255784 
3134.508 32332846 32409702 32485894 32561458 32636892 32713268 32791264 
3137.883 32871492 32953844 33037640 33122170 33206570 33290524 33373848 
3141.258 33456978 33540190 33623636 33707380 33791072 33874384 33957144 
3144.634 34039272 34121196 34203284 34285960 34369940 34455808 34543876 
3148.009 34634512 34727964 34823880 34921720 35020444 35119260 35216880 
3151.384 35313120 35407616 35500768 35593368 35686056 35779376 35873472 
3154.759 35968380 36063524 36158444 36252656 36345740 36437688 36528716 
3158.135 36619264 36709756 36800848 36893032 36986756 37082452 37180404 
3161.510 37281160 37385296 37493036 37604520 37719680 37837336 37956180 
3164.885 38074404 38190272 38302584 38411096 38515828 38617688 38717476 
3168.260 38815832 38913164 39009208 39103684 39195748 39285072 39371116 
3171.635 39453728 39532476 39607496 39678936 39746756 39811756 39874004 
3175.011 39933428 39989660 40041908 40089728 40133008 40172552 40210496 
3178.386 40249356 40291452 40338788 40391764 40449444 40509820 40570784 
3181.761 40630304 40687540 40742344 40795444 40848076 40901156 40955620 
3185.136 41012064 41070988 41132652 41197204 41264348 41333696 41404104 
3188.512 41474784 41544748 41613844 41682516 41751672 41822408 41896000 
3191.887 41973148 42054252 42139600 42228404 42319708 42412272 42504128 
3195.262 42592964 42677108 42755344 42827524 42895032 42960104 43025216 
3198.637 43092428 43162872 43236620 43313088 43391036 43469656 43548804 
3202.013 43627896 43706816 43784648 43860668 43934092 44005036 44074160 
3205.388 44143260 44214128 44287616 44363756 44441012 44517288 44590864 
3208.763 44661072 44728792 44795936 44864856 44936872 45012136 45089284 
3212.138 45166560 45242412 45316480 45390152 45465164 45543720 45626780 
3215.514 45714196 45804028 45894428 45982896 46068288 46150120 46228616 
3218.889 46304804 46379196 46452424 46525040 46597296 46669892 46743500 
3222.264 46818596 46895588 46974108 47054120 47134884 47216176 47297788 
3225.639 47379596 47461560 47543472 47625368 47707120 47789080 47871868 
3229.015 47955820 48041488 48128396 48216172 48303852 48390520 48476312 
3232.390 48561344 48646168 48731604 48817348 48903004 48987636 49070688 
3235.765 49152828 49235136 49319572 49407924 49500936 49597940 49697196 
3239.140 49796180 49893104 49987448 50080100 50173140 50268512 50367624 
3242.516 50470592 50576264 50682896 50789328 50895000 51000664 51107324 
3245.891 51216172 51327696 51441636 51557472 51674192 51791620 51909784 
3249.266 52029332 52150776 52274084 52398404 52522308 52644004 52761880 
3252.641 52875184 52983764 53088704 53191308 53293564 53397116 53503428 
3256.017 53613400 53726968 53843372 53960864 54077780 54191848 54300980 
3259.392 54404096 54500664 54591052 54676536 54758316 54838048 54916772 
3262.767 54995216 55073332 55150672 55226148 55298736 55367760 55432616 
3266.142 55493496 55551180 55606724 55661412 55715840 55770576 55825172 
3269.518 55879244 55932040 55983000 56031664 56077692 56120712 56160264 
3272.893 56196088 56227728 56255300 56279024 56299656 56317576 56333644 
3276.268 56347940 56360200 56370388 56378688 56385364 56391968 56399776 
3279.643 56410492 56424940 56443732 56466220 56491544 56518112 56544716 
3283.019 56570308 56594540 56617264 56639156 56660600 56682272 56704544 
3286.394 56727048 56749516 56771000 56791128 56809064 56825000 56839276 
3289.769 56852760 56866208 56880260 56895628 56912364 56930872 56951760 
3293.144 56975900 57004124 57036996 57074252 57114648 57156712 57198176 
3296.520 57237488 57274232 57308712 57341868 57374996 57408496 57442344 
3299.895 57475816 57508120 57539516 57570384 57602884 57638676 57679580 
3303.270 57726504 57779068 57836036 57895736 57956468 58017624 58078600 
3306.645 58140264 58203036 58268240 58336640 58409144 58486132 58567952 
3310.021 58653996 58743660 58835732 58929420 59023848 59119208 59215920 
3313.396 59314812 59416620 59521604 59630072 59741764 59856944 59975920 
3316.771 60099568 60228544 60363116 60502416 60644960 60788204 60930536 
3320.146 61070552 61208060 61343852 61478924 61614268 61750036 61886152 
3323.521 62022040 62157324 62292076 62426796 62561324 62695668 62828324 
3326.897 62957004 63079588 63193776 63298420 63393720 63480080 63558892 
3330.272 63631236 63697724 63758656 63814296 63863924 63906572 63941120 
3333.647 63965464 63977360 63975408 63958972 63928724 63887036 63836640 
3337.022 63780068 63718668 63652144 63578872 63496680 63403688 63299260 
3340.398 63184084 63059860 62928236 62790572 62647164 62497460 62340724 
3343.773 62176176 62003468 61823072 61635652 61441360 61240752 61033832 
3347.148 60820600 60601188 60376064 60145540 59910188 59670976 59428208 
3350.523 59183300 58937316 58691768 58448264 58207768 57970704 57737096 
3353.899 57505960 57277068 57049956 56824816 56602276 56382952 56167128 
3357.274 55954804 55745448 55538788 55334676 55133480 54935688 54741708 
3360.649 54551680 54365416 54181860 54000784 53822032 53645868 53473184 
3364.024 53304648 53140452 52980136 52823056 52668764 52516960 52368500 
3367.400 52224496 52086108 51953772 51827084 51704420 51583588 51462748 
3370.775 51340412 51216024 51089772 50962028 50833204 50703448 50572616 
3374.150 50440076 50306196 50170424 50032876 49893252 49750776 49604552 
3377.525 49453924 49298416 49138284 48974356 48807712 48639164 48469084 
3380.901 48297040 48122584 47944644 47762856 47576932 47386912 47193164 
3384.276 46995556 46794572 46590652 46384544 46177504 45971404 45768020 
3387.651 45568740 45374224 45184576 44998424 44814708 44632132 44449820 
3391.026 44267548 44085748 43905680 43728580 43555396 43386532 43221360 
3394.402 43058328 42895032 42729128 42558284 42381476 42199412 42013768 
3397.777 41827772 41644588 41466764 41295576 41130828 40971096 40814008 
3401.152 40657300 40498760 40336932 40170772 39999872 39824468 39645316 
3404.527 39464036 39283040 39104152 38929108 38758300 38591148 38425684 
3407.903 38259344 38089992 37916516 37739420 37560080 37381144 37204120 
3411.278 37030632 36860716 36693348 36527240 36360724 36193160 36024576 
3414.653 35855876 35688360 35523748 35363188 35207504 35056112 34907968 
3418.028 34761024 34613272 34463052 34309448 34152884 33994732 33837028 
3421.404 33681636 33529914 33381506 33235650 33090774 32945302 32798164 
3424.779 32649074 32498356 32346550 32194688 32043166 31892802 31744204 
3428.154 31597864 31454242 31313558 31175336 31038582 30902192 30765098 
3431.529 30626696 30487518 30348600 30211610 30077504 29946954 29819422 
3434.905 29694094 29569366 29444180 29318500 29192676 29067458 28944080 
3438.280 28823324 28705610 28590474 28476750 28363302 28248718 28132220 
3441.655 28013526 27893736 27774222 27656510 27541900 27430356 27319722 
3445.030 27206542 27086794 26957104 26815786 26664580 26506768 26347818 
3448.406 26192444 26043634 25902192 25766666 25634698 25504246 25374816 
3451.781 25246970 25122568 25002938 24888326 24777038 24666904 24554518 
3455.156 24438058 24316762 24191748 24064496 23937596 23813008 23691848 
3458.531 23574640 23461350 23351162 23243660 23137442 23031424 22923862 
3461.906 22813568 22700334 22584546 22467498 22350970 22236148 22123550 
3465.282 22012728 21902700 21792454 21681262 21569296 21456840 21344270 
3468.657 21231420 21118074 21003614 20888032 20771720 20656132 20542764 
3472.032 20432794 20326324 20221964 20118668 20014358 19908476 19801546 
3475.407 19695474 19592026 19492970 19399100 19309788 19223612 19138698 
3478.783 19053108 18965356 18873952 18777724 18676018 18568388 18455770 
3482.158 18340452 18225682 18115088 18012260 17918882 17834704 17757830 
3485.533 17684522 17611294 17534908 17453636 17367136 17276206 17182640 
3488.908 17088166 16994814 16904546 16818672 16737707 16661644 16589520 
3492.284 16519232 16449023 16376968 16302414 16225465 16147256 16069612 
3495.659 15993599 15920106 15849514 15782334 15719391 15662262 15612833 
3499.034 15572340 15540780 15516020 15494009 15469493 15437081 15392726 
3502.409 15335125 15265828 15189063 15110115 15034646 14967660 14912379 
3505.785 14869963 14840201 14821002 14809140 14800604 14791655 14778560 
3509.160 14758952 14732284 14699824 14664008 14627681 14593482 14563020 
3512.535 14536707 14514368 14495252 14478499 14463941 14451575 14441743 
3515.910 14434275 14429138 14425438 14421979 14417663 14412045 14404613 
3519.286 14395742 14385809 14374712 14361732 14344986 14321150 14287317 
3522.661 14240306 14177893 14100293 14008950 13906540 13796357 13680798 
3526.036 13560963 13437197 13308854 13175083 13036233 12892888 12745938 
3529.411 12596821 12446562 12295265 12143679 11992554 11843355 11698225 
3532.787 11559165 11427463 11303045 11184204 11067878 10950970 10831206 
3536.162 10707197 10579183 10449101 10318992 10191227 10067672 9949710 
3539.537 9838797 9736113 9642296 9557677 9482183 9414086 9351381 9291530 
3543.395 9231313 9167485 9097068 9016614 8923324 8815581 8693295 8559891 
3547.252 8420447 8282804 8154084 8039376 7940693 7855831 7779487 7704944 
3551.109 7626097 7539409 7444615 7344416 7242926 7145030 7053386 6969270 
3554.967 6892678 6822527 6758446 6700263 6647874 6600975 6558387 6518225 
3558.824 6477461 6433843 6385454 6332364 6276422 6221430 6172325 6134921 
3562.682 6114254 6113279 6132467 6168023 6211111 6249732 6268489 6251883 
3566.539 6189096 6076115 5918656 5730097 5528665 5332090 5153274 5000171 
3570.396 4874498 4774187 4694363 4629021 4572763 4520563 4469073 4416350 
3574.254 4362228 4306908 4252264 4199936 4151427 4107507 4068206 4032487 
3578.111 3998945 3965673 3931033 3893888 3854172 3812855 3772378 3736583 
3581.969 3709313 3694977 3696982 3716665 3753026 3801891 3856178 3905589 
3585.826 3939024 3945076 3914449 3843307 3734578 3598245 3448094 3300366 
3589.684 3169009 3062817 2985776 2936902 2911050 2899976 2894439 2885900 
3593.541 2867555 2835036 2787747 2727359 2657545 2582876 2508186 2437307 
3597.398 2373703 2319535 2275100 2238929 2207756 2177318 2143420 2103031 
3601.256 2055256 2002060 1947638 1897284 1856519 1830265 1821647 1831796 
3605.113 1859315 1900313 1947306 1991408 2022631 2031819 2014343 1970671 
3608.971 1908267 1837685 1769977 1712691 1668085 1632696 1599638 1561960 
3612.828 1515508 1460915 1404301 1354342 1319278 1304256 1308942 1328717 
3616.686 1355140 1377410 1385022 1369898 1327221 1257565 1165727 1060589 
3620.543 951358 847234 754852 678485 620745 583318 567725 576517 611952 
3624.883 675631 766569 880102 1005887 1127423 1222243 1266704 1240951 
3628.740 1139947 977825 785356 595959 434107 310908 224706 166331 123176 
3633.080 84466 42015 -7024 -61094 -115489 -165009 -205746 -236446 -258169 
3637.419 -273203 -284561 -294395 -303170 -310619 -315917 -318533 -318599 
3641.277 -316679 -312838 -305355 -290554 -262309 -213728 -138676 -34988 
3645.134 95038 243935 398851 543506 661859 740281 770121 748214 676162 
3649.474 559165 405020 225602 36548 -145102 -302077 -421624 -497653 -531078 
3653.813 -529920 -507283 -480178 -464026 -470050 -501028 -551331 -609768 
3657.671 -664822 -709218 -741205 -763598 -781061 -798690 -819856 -845386 
3661.528 -874685 -905073 -933839 -957974 -973810 -978306 -967892 -939426 
3665.385 -890855 -821873 -734126 -631837 -522308 -415004 -320387 -249063 
3669.243 -206839 -191836 -192035 -188425 -158948 -87034 34493 202231 402168 
3673.583 611986 799331 927682 966335 901717 745857 530070 290848 53945 
3677.922 -169348 -376471 -568870 -746332 -904908 -1038867 -1143473 -1217326 
3681.780 -1263516 -1288359 -1298468 -1297741 -1287170 -1263879 -1224794 
3685.155 -1167695 -1094461 -1010405 -925275 -850777 -797631 -773818 -781921 
3689.012 -818765 -877926 -952949 -1038272 -1129659 -1222778 -1312409 
3692.387 -1392080 -1455819 -1499209 -1520870 -1522884 -1509842 -1487718 
3695.763 -1461796 -1436269 -1412259 -1389041 -1364368 -1335796 -1302498 
3699.138 -1265795 -1229023 -1197633 -1177708 -1174404 -1189934 -1222778 
3702.513 -1267447 -1316175 -1360305 -1392443 -1407669 -1403705 -1380024 
3705.888 -1338142 -1280563 -1209826 -1129163 -1042106 -952949 -867774 
3709.264 -793762 -738790 -710971 -715867 -754998 -823891 -913835 -1012323 
3713.121 -1106855 -1188513 -1252217 -1296552 -1323409 -1335367 -1335367 
3716.496 -1325919 -1308313 -1283602 -1252712 -1216500 -1176221 -1133889 
3719.872 -1091751 -1052188 -1016653 -986009 -960354 -938633 -919687 -902262 
3723.729 -887251 -876405 -873561 -882687 -907090 -946700 -997678 -1051857 
3727.586 -1098725 -1128568 -1134352 -1113267 -1067458 -1001414 -921175 
3730.962 -832258 -738062 -639413 -536142 -429701 -325519 -234989 -173521 
3734.819 -156463 -194883 -288104 -423710 -578466 -728238 -854282 -946601 
3738.677 -1003331 -1026702 -1019727 -983695 -919225 -827562 -712989 -586242 
3742.534 -464919 -372068 -332108 -358825 -446516 -565693 -678320 -755329 
3746.391 -784567 -770411 -726419 -670181 -617146 -579657 -564866 -574594 
3750.249 -607319 -660455 -731943 -818996 -916447 -1015364 -1104971 -1174734 
3754.106 -1218813 -1236093 -1230377 -1207645 -1175659 -1140432 -1106921 
3757.481 -1078465 -1058931 -1051659 -1060715 -1089306 -1136830 -1197435 
3760.857 -1261203 -1315646 -1349967 -1358951 -1343361 -1310063 -1269661 
3764.232 -1233120 -1209264 -1201268 -1206423 -1217558 -1227437 -1230278 
3767.607 -1225686 -1216963 -1211214 -1215344 -1234706 -1270553 -1319115 
3770.982 -1373782 -1426493 -1470514 -1501686 -1518129 -1520771 -1511856 
3774.358 -1493728 -1468368 -1437128 -1400403 -1358753 -1313730 -1268769 
3777.733 -1229023 -1201037 -1190430 -1199715 -1227073 -1266192 -1308478 
3781.108 -1345012 -1370875 -1384450 -1388645 -1388314 -1389206 -1396010 
3784.483 -1410971 -1433693 -1461301 -1490129 -1516544 -1537379 -1550948 
3787.859 -1556528 -1554217 -1545336 -1531964 -1516610 -1500959 -1486265 
3791.234 -1471406 -1454465 -1431976 -1401261 -1361429 -1314060 -1263350 
3794.609 -1215146 -1175230 -1146844 -1129428 -1117828 -1104079 -1080183 
3797.984 -1041214 -986901 -923060 -860730 -813308 -795052 -814895 -871742 
3801.842 -952552 -1036586 -1104079 -1141721 -1146844 -1124900 -1088843 
3805.217 -1054105 -1036057 -1047064 -1091685 -1163664 -1249210 -1332790 
3808.592 -1401228 -1448224 -1473354 -1478836 -1467575 -1441322 -1400204 
3811.968 -1343625 -1272238 -1189373 -1101600 -1019066 -953610 -915654 
3815.343 -909967 -931094 -964586 -992058 -996852 -971396 -918398 -848660 
3819.200 -778316 -726750 -711864 -743586 -820220 -926003 -1038768 -1136599 
3823.058 -1205960 -1243527 -1253142 -1242767 -1221324 -1196873 -1175065 
3826.433 -1157848 -1144464 -1132237 -1118290 -1100477 -1078663 -1054039 
3829.808 -1028785 -1005017 -983728 -964784 -946039 -924548 -897766 -863872 
3833.666 -823064 -777555 -730818 -687351 -651853 -627602 -617047 -620521 
3837.523 -636634 -662473 -695258 -731910 -770676 -809670 -847933 -884175 
3841.380 -917968 -949444 -980190 -1012620 -1049609 -1092875 -1141787 
3844.756 -1192644 -1238704 -1272436 -1287302 -1278184 -1243693 -1185044 
3848.131 -1105368 -1007662 -894790 -768790 -631936 -488981 -349589 -228630 
3851.988 -148083 -131224 -192532 -328068 -512182 -707133 -879348 -1012257 
3855.846 -1104244 -1162904 -1198559 -1218747 -1227371 -1224232 -1207183 
3859.221 -1174139 -1125164 -1062831 -992356 -920216 -852761 -795515 -752252 
3863.078 -726419 -719902 -733001 -762341 -800343 -835928 -856134 -851901 
3866.936 -819658 -763961 -696382 -633954 -595341 -593521 -630348 -694794 
3870.793 -768030 -830968 -873230 -894327 -902527 -910033 -927590 -961181 
3874.651 -1008786 -1062005 -1108210 -1136401 -1139342 -1114985 -1065905 
3878.026 -998472 -922531 -848660 -787610 -747556 -731017 -734424 -748250 
3881.883 -761216 -763267 -750036 -723111 -691420 -668527 -668064 -699558 
3885.741 -762440 -845188 -928714 -994472 -1029809 -1030999 -1002273 -953676 
3889.598 -899022 -852066 -824321 -822402 -846577 -891318 -947130 -1004092 
3893.456 -1053014 -1086331 -1098824 -1087389 -1051097 -991232 -911884 
3896.831 -819360 -720994 -625319 -539550 -468527 -414540 -376901 -352634 
3900.688 -337736 -330220 -329492 -337935 -359554 -398717 -457638 -534950 
3904.546 -626146 -723309 -819029 -906726 -982405 -1045676 -1097304 -1138846 
3908.403 -1171628 -1195882 -1211544 -1218450 -1216732 -1207513 -1192446 
3911.778 -1172454 -1147868 -1118026 -1081373 -1036784 -985017 -929243 
3915.154 -873958 -825379 -789065 -767931 -762142 -769485 -785394 -805999 
3919.011 -827958 -849355 -868171 -882390 -889731 -888441 -878091 -861260 
3922.868 -842972 -829843 -828454 -842741 -872304 -912149 -953841 -988918 
3926.726 -1010339 -1014670 -1001711 -974504 -937145 -893996 -849454 -807818 
3930.583 -773256 -750367 -743024 -753542 -782020 -825015 -876901 -930698 
3934.441 -979595 -1019265 -1047494 -1064417 -1072119 -1073341 -1070102 
3937.816 -1063690 -1054600 -1042205 -1025744 -1005182 -981380 -956321 
3941.191 -933739 -917472 -911124 -916778 -933905 -958800 -985876 -1008753 
3945.049 -1021975 -1022636 -1011067 -990769 -966966 -945047 -929772 -923093 
3948.906 -924945 -933442 -946039 -960189 -974438 -988389 -1001546 -1013843 
3952.763 -1025678 -1036619 -1047362 -1058336 -1070003 -1082596 -1095750 
3956.139 -1108276 -1118323 -1124371 -1125197 -1120802 -1111780 -1099584 
3959.514 -1085901 -1072019 -1058798 -1047229 -1038040 -1031925 -1029446 
3962.889 -1030834 -1035693 -1042536 -1049444 -1054567 -1056319 -1054204 
3966.264 -1048155 -1038801 -1027198 -1014174 -1000422 -986802 -973942 
3969.640 -962867 -954469 -949279 -947526 -948188 -950370 -952320 -953147 
3973.497 -952221 -950171 -947725 -946039 -945675 -946997 -949510 -952750 
3977.354 -955626 -957346 -957280 -954701 -950072 -943757 -936484 -929540 
3981.212 -924283 -921341 -921076 -922531 -924812 -926598 -926829 -925474 
3985.069 -922829 -919886 -916943 -914794 -913240 -912083 -911686 -912446 
3988.927 -915753 -922366 -932748 -945873 -959825 -972157 -980223 -983133 
3992.784 -981248 -976455 -971396 -968553 -969446 -974074 -981248 -989381 
3996.642 -996819 -1002637 -1007100 -1010075 -1012554 -1014472 -1015827 
4000.017 -1016587 -1016554 
##END=
