##TITLE=888_3_a
##JCAMP-DX=5.01  $$ Nicolet v. 1
##DATATYPE=INFRARED SPECTRUM
##ORIGIN=UniL
##OWNER=Nicolet
##LONGDATE=2011/09/28
##TIME=16:24:26
##SPECTROMETER/DATA SYSTEM=Nicolet iS5
##DATA PROCESSING=
Ratio against background
%Transmittance->Absorbance
Truncated
ElementMultiply or ElementDivide
##COMMENTS=
Number of sample scans: 32
Collection length: 51.19 sec
Sample gain: 2.0
Background collected on: Mer Sep 28 16:22:44 2011 (GMT+02:00);
Number of background scans: 32
Background gain: 2.0
Sample spacing:  1.000
Number of scan points: 12415
Resolution points: 8192
Number of FFT points: 65536
Apodization: N-B fort;
Phase correction: Mertz;
Laser frequency: 15798.0 cm-1
Number of rejected sample scans: 0
Number of rejected background scans: 0
Bench serial number: ASB1000141;
##RESOLUTION=4.000
##XUNITS=1/CM
##YUNITS=ABSORBANCE
##FIRSTX=649.893372
##LASTX=4000.122314
##FIRSTY=0.116260
##MAXX=4000.122314
##MINX=649.893372
##MAXY=0.263889
##MINY=-0.001848
##XFACTOR=1.000000
##YFACTOR=1.000000E-009
##NPOINTS=6950
##DELTAX=0.482117
##ZPD=6100
##XYDATA=(X++(Y..Y))
649.893 116260088 114983656 113801424 112758088 111867944 111126472 
652.786 110527144 110070400 109762832 109608208 109598320 109703920 
655.679 109882040 110092688 110311632 110540264 110800024 111118256 
658.571 111509704 111966848 112462080 112960928 113444904 113917920 
661.464 114407144 114948432 115569232 116271912 117035376 117819648 
664.357 118585136 119303528 119955752 120529320 121012216 121391840 
667.250 121668952 121880256 122104656 122420968 122875592 123457264 
670.142 124110648 124760640 125333296 125777128 126068576 126220704 
673.035 126272456 126272856 126255232 126224112 126160576 126036328 
675.928 125832064 125547992 125201152 124811344 124388400 123926280 
678.820 123407112 122816856 122157032 121447576 120719824 119998512 
681.713 119290056 118580088 117843200 117057536 116220032 115349952 
684.606 114480328 113642696 112851616 112102024 111374368 110649736 
687.498 109920200 109195592 108497376 107849288 107264728 106744624 
690.391 106281936 105870688 105513896 105225576 105023064 104919728 
693.284 104916480 105002680 105160944 105379952 105660560 106019920 
696.177 106483728 107074656 107804648 108670408 109657168 110747512 
699.069 111930192 113202616 114566984 116022064 117554360 119134880 
701.962 120726648 122293480 123809008 125264544 126662728 128008720 
704.855 129300056 130522128 131651296 132667824 133562920 134345008 
707.747 135034448 135653872 136217328 136726928 137176880 137563456 
710.640 137894496 138192512 138486112 138801088 139149152 139524400 
713.533 139910416 140289536 140654400 141011648 141376592 141761312 
716.425 142167152 142581264 142983280 143355760 143694736 144011696 
719.318 144328160 144662928 145019936 145387008 145740800 146060960 
722.211 146338912 146583968 146815200 147052496 147304288 147564144 
725.104 147816288 148046544 148251360 148442608 148640640 148865104 
727.996 149125472 149417600 149727600 150042592 150359824 150687472 
730.889 151040320 151429184 151852992 152296512 152738592 153160336 
733.782 153556160 153935232 154316176 154714320 155134000 155565488 
736.674 155991216 156396512 156778032 157145712 157517232 157907648 
739.567 158320320 158745664 159166688 159570416 159954832 160330528 
742.460 160712608 161111536 161524000 161933248 162315712 162654672 
745.352 162948080 163210864 163466080 163732368 164015584 164305696 
748.245 164583776 164832048 165045328 165230896 165404192 165576656 
751.138 165750064 165913456 166052288 166156320 166228080 166282256 
754.031 166338688 166410352 166496688 166583248 166649712 166682304 
756.923 166680496 166656864 166629200 166609200 166594480 166569424 
759.816 166512400 166408768 166258064 166074480 165876416 165677968 
762.709 165479344 165267024 165022176 164731424 164395392 164028048 
765.601 163649280 163272960 162901264 162523664 162125952 161698640 
768.494 161245520 160780688 160322880 159883728 159462112 159046048 
771.387 158622000 158184432 157743632 157322224 156946496 156634064 
774.279 156383824 156173856 155964976 155712928 155367312 154874176 
777.172 154174800 153193104 151841008 150034448 147700160 144803120 
780.065 141356144 137418432 133083432 128459704 123664152 118803224 
782.958 113973016 109263296 104745648 100476376 96492104 92804824 89408600 
786.332 86283576 83406304 80754872 78312616 76067848 74009440 72123216 
789.707 70391432 68792288 67304352 65910564 64597852 63358604 62187336 
793.082 61078332 60025144 59021080 58060720 57142388 56266464 55434836 
796.457 54646812 53897876 53178240 52477700 51786616 51100468 50420912 
799.832 49754004 49107232 48486052 47891956 47322724 46774792 46245092 
803.206 45732308 45237452 44760784 44300968 43854872 43417508 42985196 
806.581 42556932 42135036 41723916 41327720 40948484 40583700 40228488 
809.956 39876220 39522604 39165936 38808152 38452580 38102724 37760596 
813.331 37426432 37099560 36779856 36467776 36165428 35874160 35594372 
816.706 35324368 35061496 34802232 34544488 34287968 34034112 33785520 
820.081 33544090 33310950 33085908 32869064 32660254 32460366 32270954 
823.455 32092754 31925362 31766948 31614076 31462792 31310886 31156896 
826.830 31001322 30845662 30691872 30541868 30397142 30259708 30131304 
830.205 30014086 29909146 29816262 29733938 29658686 29586676 29514962 
833.580 29441912 29368096 29295318 29225708 29160856 29101220 29046202 
836.955 28994980 28946666 28900980 28857494 28815286 28772976 28728866 
840.329 28681858 28632448 28582900 28537394 28500066 28474026 28460194 
843.704 28457646 28463766 28476220 28494264 28518818 28552080 28596456 
847.079 28653046 28721044 28798292 28881892 28968980 29057822 29146892 
850.454 29234816 29319848 29400144 29474180 29542624 29608454 29676496 
853.829 29752922 29843698 29952420 30080736 30228768 30396252 30583818 
857.204 30794192 31030360 31295750 31592160 31918980 32274094 32655146 
860.578 33060632 33491046 33949872 34441816 34973936 35553740 36189808 
863.953 36893284 37677184 38555516 39544268 40657848 41909540 43311844 
867.328 44877828 46624036 48573756 50755432 53204416 55958008 59047688 
870.703 62494628 66299424 70435968 74837688 79392216 83942920 88270144 
874.078 92118312 95221184 97314440 98202216 97782392 96065624 93172592 
877.452 89312056 84754288 79769976 74622680 69543192 64700948 60220856 
880.827 56178100 52602264 49493772 46830812 44580584 42704124 41162956 
884.202 39922204 38947956 38210460 37682964 37340048 37161348 37130848 
887.577 37238232 37478908 37853388 38365164 39018924 39819928 40774516 
890.952 41890672 43180660 44662724 46359952 48301336 50519688 53046772 
894.327 55912180 59134548 62711932 66606432 70728960 74934216 78997936 
897.701 82645376 85581344 87511224 88218944 87596912 85668840 82582696 
901.076 78588248 74003080 69139648 64293988 59711272 55554644 51925916 
904.451 48864920 46363860 44385848 42878028 41786032 41056308 40644676 
907.826 40518876 40655704 41042468 41674236 42550828 43673212 45038708 
911.201 46634072 48429820 50371904 52372612 54320392 56076484 57487996 
914.575 58421084 58767104 58466156 57518408 55982584 53968816 51613364 
917.950 49073728 46499296 44010500 41702980 39634756 37830760 36292492 
921.325 35003924 33939660 33068962 32362326 31792756 31335708 30971644 
924.700 30684510 30461040 30291114 30166396 30079742 30025448 29999032 
928.075 29996654 30015970 30055452 30114328 30192108 30287986 30400482 
931.450 30527364 30665272 30811122 30961930 31115638 31271536 31429842 
934.824 31591556 31757892 31929356 32106526 32289512 32478646 32674328 
938.199 32877784 33089560 33310630 33541336 33782012 34033212 34296252 
941.574 34572472 34863192 35169268 35489624 35821584 36162040 36507668 
944.949 36856748 37210148 37570952 37943340 38331576 38738376 39164380 
948.324 39608040 40066000 40533824 41005796 41474200 41929464 42359668 
951.698 42752052 43095724 43383348 43614300 43794032 43934644 44051608 
955.073 44160204 44275652 44409408 44569752 44762328 44990268 45254220 
958.448 45553136 45883972 46242512 46624000 47024948 47443008 47878196 
961.823 48331740 48805300 49300348 49817548 50357280 50920448 51508520 
965.198 52124100 52770372 53449536 54163320 54912260 55696552 56517052 
968.573 57375824 58276236 59221804 60215376 61258952 62353236 63499748 
971.947 64701372 65963900 67294752 68702544 70194672 71775768 73448464 
975.322 75213504 77072552 79028536 81087288 83255856 85542528 87956560 
978.697 90508384 93214064 96096136 99184192 102516248 106131808 110067536 
982.072 114352856 119003120 124015984 129363656 134990944 140798448 
984.964 146629952 152284080 157494192 161953680 165370048 167473936 
987.857 168081328 167124528 164658272 160857312 155982288 150373376 
990.750 144390352 138375920 132653672 127472920 123009200 119372216 
993.643 116600120 114682040 113573176 113213960 113540296 114490544 
996.535 116014232 118064656 120598208 123575664 126954112 130686160 
999.428 134719792 138983072 143379408 147785824 152035600 155937648 
1002.321 159296672 161920928 163666816 164455536 164285344 163234656 
1005.213 161453984 159160528 156594752 154013504 151666848 149754816 
1008.106 148436128 147815264 147941856 148827808 150458208 152807920 
1010.999 155846512 159546576 163884944 168835200 174367488 180448032 
1013.891 187028992 194050736 201431088 209038736 216688176 224121168 
1016.784 230987568 236901328 241462752 244320336 245261584 244245872 
1019.677 241440592 237183760 231974096 226400736 221028944 216402784 
1022.570 212955440 210962336 210565152 211754512 214404256 218285184 
1025.462 223114976 228595136 234404624 240248480 245855856 250969984 
1028.355 255382352 258933984 261531264 263161536 263889424 263845360 
1031.249 263186096 262082672 260692096 259132208 257487440 255795184 
1034.142 254044624 252174432 250076800 247620256 244656704 241063040 
1037.035 236767520 231758448 226089504 219862304 213210800 206271488 
1039.928 199173648 192038432 184966144 178045328 171353616 164950720 
1042.821 158888480 153213712 147968640 143204160 138979328 135352528 
1045.714 132384376 130122600 128593880 127804680 127739224 128367424 
1048.607 129647824 131536856 133991792 136965920 140411504 144276048 
1051.500 148497840 153015856 157767920 162690048 167720064 172781904 
1054.393 177774128 182571504 187010240 190901072 194061120 196318624 
1057.286 197546336 197682336 196732736 194780816 191975680 188541328 
1060.179 184747872 180882688 177251856 174124640 171719680 170207200 
1063.072 169685520 170194784 171720272 174200704 177529760 181552576 
1065.965 186087040 190909408 195770064 200432752 204668000 208284832 
1068.858 211147952 213162432 214274816 214462480 213725872 212088720 
1071.751 209597520 206326560 202370592 197838800 192858592 187563168 
1074.645 182098144 176633008 171343536 166417904 162049920 158404912 
1077.538 155625264 153813648 153018880 153236480 154397056 156372240 
1080.431 158955776 161874496 164823424 167457808 169460880 170598512 
1083.324 170739424 169897872 168220512 165974400 163482640 161080224 
1086.217 159094080 157779360 157319936 157818720 159287696 161653600 
1089.110 164758400 168389600 172276768 176119808 179640240 182574784 
1092.003 184711168 185906784 186074832 185192560 183292640 180460384 
1094.896 176820752 172518448 167713728 162551424 157151616 151614336 
1097.789 146013872 140411840 134868896 129442616 124191616 119172936 
1100.682 114431896 110006328 105926248 102214312 98893296 95987552 93520248 
1104.057 91516208 89997112 88979056 88474864 88493136 89039368 90117384 
1107.433 91727048 93863528 96510848 99641200 103212048 107160184 111409064 
1110.808 115863736 120404784 124900656 129195776 133115488 136493536 
1113.701 139171328 141025232 141986112 142038272 141221952 139616656 
1116.594 137336336 134510864 131269560 127743888 124048256 120272424 
1119.487 116485072 112726856 109018384 105370616 101793408 98304000 94932736 
1122.862 91719032 88711176 85961744 83518624 81427920 79730760 78459304 
1126.238 77640016 77289880 77414792 78008720 79051984 80514584 82352344 
1129.613 84510744 86927768 89524024 92209264 94881944 97425096 99727360 
1132.988 101694064 103260760 104412288 105185216 105667024 105971616 
1135.881 106230016 106566808 107072920 107802224 108757480 109893568 
1138.774 111116712 112297528 113295592 113961336 114165912 113817144 
1141.667 112857408 111271184 109075240 106312152 103040928 99332680 95273504 
1145.042 90954272 86471720 81926912 77409888 73002816 68777112 64786404 
1148.418 61073300 57668604 54589212 51842504 49425600 47327712 45531648 
1151.793 44017028 42763680 41751528 40963232 40385256 40006120 39817312 
1155.168 39812736 39988320 40342316 40875888 41593280 42500840 43606572 
1158.543 44918612 46443244 48184332 50141676 52310824 54680936 57232800 
1161.919 59937880 62752128 65615028 68455256 71184648 73709960 75942016 
1165.294 77793296 79191168 80081480 80427856 80219752 79470912 78220680 
1168.669 76525280 74453536 72080776 69476736 66707104 63832612 60904652 
1172.044 57971500 55076416 52254728 49536364 46944092 44492840 42192800 
1175.420 40049140 38063368 36234576 34558732 33029988 31640484 30381504 
1178.795 29244560 28221456 27305748 26492188 25776230 25153464 24619104 
1182.170 24167192 23791098 23484188 23240200 23054520 22923934 22846710 
1185.545 22821670 22847722 22923096 23045262 23211746 23420746 23670994 
1188.921 23963434 24300256 24684404 25120390 25613258 26168654 26793972 
1192.296 27497172 28286980 29172726 30162950 31265628 32487858 33835416 
1195.671 35312076 36917780 38646700 40482212 42393932 44338580 46253608 
1199.046 48062660 49683528 51024740 52001880 52546428 52610116 52178832 
1202.422 51274748 49958112 48315260 46450468 44477496 42496672 40596032 
1205.797 38845004 37288016 35951824 34846424 33968212 33305156 32839258 
1209.172 32550958 32419414 32425162 32551710 32784618 33111762 33523188 
1212.547 34008844 34559196 35164528 35814672 36500176 37211448 37937808 
1215.923 38667420 39385552 40073704 40712684 41282164 41762688 42138872 
1219.298 42397624 42528612 42524920 42381696 42097800 41676388 41126644 
1222.673 40463264 39705256 38876852 38003916 37112548 36230072 35381016 
1226.048 34587040 33866724 33232394 32691512 32245434 31890984 31621278 
1229.424 31427208 31299844 31230698 31212254 31238780 31304616 31404908 
1232.799 31534866 31690344 31868630 32068212 32289512 32534174 32803952 
1236.174 33101358 33428778 33788456 34183352 34616068 35089196 35604336 
1239.549 36161108 36756632 37384936 38037512 38702588 39365096 40008444 
1242.925 40612768 41157968 41627044 42007712 42296840 42501020 42637008 
1246.300 42728580 42801084 42880952 42989768 43143584 43353580 43625624 
1249.675 43961664 44359976 44816144 45323064 45871596 46452720 47057848 
1253.050 47680608 48316704 48964196 49621900 50289232 50965604 51650308 
1256.426 52342108 53037412 53726628 54392004 55001872 55512020 55870048 
1259.801 56016996 55901776 55488224 54760312 53726216 52416576 50882744 
1263.176 49186264 47396632 45585080 43812100 42128648 40570640 39156764 
1266.551 37893192 36775600 35793772 34934432 34184392 33531922 32966140 
1269.927 32476720 32054118 31688136 31369112 31088480 30838406 30613078 
1273.302 30407696 30218182 30041036 29872836 29710662 29552554 29397522 
1276.677 29245696 29097466 28953148 28812134 28672512 28531450 28385340 
1280.052 28230792 28064280 27882780 27683666 27464804 27225344 26966236 
1283.427 26691534 26408446 26126706 25859672 25620990 25424876 25285848 
1286.803 25216420 25228570 25333788 25542338 25864104 26308316 26882686 
1290.178 27593164 28441760 29425674 30533160 31740568 33012434 34295500 
1293.553 35524324 36628960 37536852 38190056 38552976 38616568 38400308 
1296.928 37947428 37319828 36583108 35802332 35035852 34326120 33703156 
1300.304 33183110 32769576 32456652 32231052 32076058 31971830 31898868 
1303.679 31840068 31779672 31705066 31606700 31477508 31313948 31116172 
1307.054 30888458 30638428 30376532 30115076 29865668 29639104 29444714 
1310.429 29290106 29181798 29126060 29128612 29195016 29329986 29536878 
1313.805 29817790 30173960 30606038 31115176 31702500 32369468 33117484 
1317.180 33947472 34860464 35857024 36937368 38100808 39343940 40659084 
1320.555 42032020 43439372 44849756 46220988 47500260 48631900 49557420 
1323.930 50226664 50610368 50707844 50555308 50218964 49794288 49385908 
1327.306 49085528 48967384 49070728 49399276 49926632 50606752 51386768 
1330.681 52213884 53047932 53863328 54649596 55412064 56168748 56947948 
1334.056 57780092 58693936 59709180 60830812 62046464 63326320 64629384 
1337.431 65902464 67086972 68125424 68958320 69533624 69813432 69776784 
1340.807 69426192 68783984 67888584 66784380 65516652 64130084 62663472 
1344.182 61151640 59625400 58106776 56610092 55140932 53698844 52281712 
1347.557 50891128 49536584 48238832 47028380 45940836 45016400 44293116 
1350.932 43803192 43574884 43629324 43981240 44639956 45607640 46877024 
1354.308 48425932 50215392 52184960 54248380 56307164 58250432 59963556 
1357.683 61349004 62324852 62837324 62869148 62440604 61612816 60474464 
1361.058 59146320 57762492 56450940 55330424 54485488 53955384 53733340 
1364.433 53769940 53987688 54286864 54566516 54732648 54704876 54436544 
1367.809 53918508 53185276 52302340 51356000 50435200 49608864 48927256 
1371.184 48418080 48090124 47941684 47965032 48149752 48482092 48943832 
1374.559 49512968 50162840 50867064 51602804 52350144 53093008 53816632 
1377.934 54504908 55142400 55715048 56212232 56628060 56959092 57202520 
1381.310 57354044 57408232 57361192 57214124 56974696 56655312 56268916 
1384.685 55825884 55333400 54797972 54232536 53661352 53119220 52647596 
1388.060 52281076 52038180 51918336 51903960 51967108 52073704 52190004 
1391.435 52281712 52311196 52239964 52025704 51629184 51026228 50217104 
1394.811 49231572 48117996 46928956 45702272 44454188 43187684 41905564 
1398.186 40624264 39383232 38238028 37242672 36435308 35825216 35397984 
1401.561 35125764 34981944 34947792 35014372 35180516 35447052 35811472 
1404.936 36266596 36801132 37403064 38063044 38774060 39530624 40327336 
1408.312 41155928 42006104 42867896 43731916 44591780 45444008 46286116 
1411.687 47114456 47923664 48706136 49455820 50170240 50852868 51511988 
1415.062 52158360 52800456 53441816 54080000 54709084 55323840 55924692 
1418.437 56518752 57114760 57718968 58325992 58917772 59468940 59953400 
1421.813 60350288 60643096 60823116 60888640 60845680 60707032 60490460 
1425.188 60215908 59899232 59551284 59177032 58776852 58349676 57896680 
1428.563 57423396 56941904 56470224 56028196 55635232 55305472 55045648 
1431.938 54854252 54722196 54634904 54572116 54510768 54425844 54289904 
1435.313 54079888 53784680 53413636 52997316 52577020 52185712 51833768 
1438.689 51508260 51180048 50817448 50393632 49894480 49321208 48687972 
1442.064 48015548 47321724 46618652 45910044 45194684 44469532 43731988 
1445.439 42979816 42211460 41426776 40630340 39836416 39070036 38365272 
1448.814 37759512 37283292 36958328 36798212 36809896 36995528 37349256 
1452.190 37854868 38478972 39171412 39872984 40507964 40988940 41223252 
1455.565 41116296 40608404 39714584 38549392 37287084 36084016 35029424 
1458.940 34137472 33383440 32735992 32173422 31686780 31273886 30931224 
1462.315 30652082 30426956 30248802 30119194 30050766 30062448 30170656 
1465.691 30378806 30672528 31021748 31387456 31729660 32006536 32178704 
1469.066 32208248 32053050 31670210 31019222 30075052 28847826 27398874 
1472.441 25843250 24310770 22905524 21675096 20613082 19682852 18845508 
1475.816 18078332 17375860 16744182 16189041 15707951 15288274 14912619 
1479.192 14563843 14231266 13911911 13607902 13322691 13058119 12813230 
1482.567 12585531 12373532 12177344 11998107 11835729 11687366 11547153 
1485.942 11407870 11263734 11113187 10958853 10805899 10657990 10515630 
1489.317 10375999 10236751 10098972 9969340 9857100 9769966 9709311 9669500 
1493.175 9639009 9604929 9556220 9486891 9398273 9297554 9195066 9099098 
1497.032 9012453 8933133 8857714 8784574 8715166 8653441 8602878 8565162 
1500.890 8539041 8522145 8511839 8507040 8507175 8510757 8514001 8508358 
1504.747 8481666 8421933 8323737 8196457 8064725 7959118 7897163 7878606 
1508.604 7888829 7910627 7929760 7939140 7937791 7929422 7919231 7910997 
1512.462 7906240 7904047 7902157 7898074 7890617 7878268 7860622 7837815 
1516.319 7811130 7784007 7761271 7747105 7743462 7747981 7753649 7750444 
1520.177 7729497 7687237 7630582 7574574 7537015 7528115 7546792 7582936 
1524.034 7622759 7655300 7674489 7681774 7683696 7689025 7703628 7728486 
1527.892 7760597 7795612 7831574 7869091 7910357 7956891 8007007 8055375 
1531.749 8094397 8117521 8123496 8119985 8121302 8141457 8188455 8260211 
1535.606 8347955 8439704 8524645 8595037 8645971 8675582 8683695 8673384 
1539.464 8649689 8620926 8598282 8592367 8610347 8652900 8715267 8788058 
1543.321 8862347 8932084 8996655 9060730 9131006 9213308 9308353 9412088 
1547.179 9516728 9614212 9700636 9776032 9845610 9916726 9995990 10085068 
1551.036 10181288 10278243 10370433 10455177 10534539 10614187 10701865 
1554.411 10803521 10920627 11049286 11181314 11306344 11413245 11491489 
1557.787 11535414 11550828 11560050 11593296 11676950 11817785 12004681 
1561.162 12219636 12445880 12670981 12885959 13087520 13275374 13453294 
1564.537 13627013 13801898 13980786 14163036 14344335 14518582 14680013 
1567.912 14824225 14950136 15060373 15160515 15258587 15361179 15472378 
1571.288 15592844 15720079 15849343 15974073 16086632 16176900 16234338 
1574.663 16250849 16223297 16158881 16074667 15992979 15929833 15890308 
1578.038 15867556 15848482 15818758 15766151 15683422 15568082 15422044 
1581.413 15249081 15053992 14840133 14609519 14364301 14107789 13844449 
1584.789 13580107 13319787 13066076 12819884 12580074 12345714 12117409 
1588.164 11897260 11687741 11490740 11306276 11132767 10967961 10810417 
1591.539 10660062 10518211 10386044 10263586 10148658 10038340 9929709 
1594.914 9821682 9715308 9613669 9519471 9433861 9355512 9281171 9207419 
1598.772 9131750 9053389 8973214 8892378 8811252 8729331 8645803 8560398 
1602.629 8475009 8393016 8318299 8253220 8197707 8148344 8100440 8050042 
1606.487 7995499 7938432 7882519 7831675 7787988 7751119 7718502 7687439 
1610.344 7657560 7630413 7609877 7599559 7600975 7611934 7628120 7642958 
1614.201 7649736 7644003 7623601 7590388 7550670 7513618 7489110 7484424 
1618.059 7502493 7541735 7597840 7663967 7731859 7794195 7843955 7877188 
1621.916 7894565 7901617 7907219 7920952 7948859 7992428 8048489 8111884 
1625.774 8178089 8243968 8307931 8369573 8429332 8488355 8548130 8611429 
1629.631 8681700 8761955 8854434 8958906 9072774 9190395 9304765 9408770 
1633.489 9495764 9561606 9606115 9635215 9659573 9692403 9745499 9824054 
1637.346 9926963 10048682 10182204 10320382 10456738 10587772 10712393 
1640.721 10832497 10952125 11075390 11204570 11338483 11472369 11598843 
1644.096 11710444 11800693 11867089 11912619 11946437 11980769 12028423 
1647.472 12099283 12196700 12319125 12460849 12613842 12766957 12904902 
1650.847 13008715 13054773 13022644 12907974 12741059 12583246 12490925 
1654.222 12486083 12551629 12654163 12762214 12855719 12925622 12970648 
1657.597 12995228 13004583 13002739 12990278 12964230 12919751 12852920 
1660.973 12761839 12648227 12516911 12375339 12232210 12095535 11971300 
1664.348 11862731 11769643 11688489 11612183 11531569 11434981 11311785 
1667.723 11154626 10962761 10743537 10511659 10285367 10079981 9903878 
1671.098 9758106 9637213 9532307 9431964 9324636 9198823 9045877 8864174 
1674.956 8662399 8459029 8274327 8122956 8007616 7919940 7846182 7773044 
1678.813 7692532 7604078 7514158 7431537 7362141 7304012 7245419 7166723 
1682.671 7046920 6872076 6648446 6405293 6185634 6021987 5922015 5871265 
1686.528 5846312 5827271 5800239 5759005 5702668 5634488 5558869 5480444 
1690.385 5404684 5336619 5280873 5240090 5212759 5192740 5168597 5126652 
1694.243 5054608 4948658 4818510 4687363 4582339 4518420 4493311 4488590 
1698.100 4480388 4444468 4365675 4244937 4104597 3981222 3903918 3881886 
1701.958 3902848 3946213 3991354 4024662 4038407 4030581 4004730 3967546 
1705.815 3927589 3892116 3865170 3847820 3838895 3835886 3836354 3838460 
1709.673 3841302 3845313 3851263 3860356 3872592 3887502 3902915 3916723 
1713.530 3927221 3933975 3937085 3937619 3935580 3930230 3920300 3906224 
1717.387 3891581 3883892 3891848 3921136 3972461 4041918 4122760 4207430 
1721.245 4290712 4370060 4446142 4522137 4601560 4687764 4782093 4884416 
1725.102 4994038 5110459 5234255 5366608 5508598 5660705 5823073 5995481 
1728.960 6177971 6371365 6576485 6792976 7019239 7252595 7490290 7730813 
1732.817 7977443 8237923 8523361 8840975 9191141 9565162 9950931 10337688 
1736.675 10719695 11095648 11466415 11834196 12201165 12567966 12932381 
1740.050 13290713 13638228 13970043 14282455 14572375 14838007 15078793 
1743.425 15295585 15490095 15663980 15818140 15952073 16063940 16151762 
1746.800 16214045 16250642 16263232 16253188 16221233 16167272 16089899 
1750.176 15989920 15871439 15742959 15615409 15498164 15395198 15303479 
1753.551 15213872 15113168 14986627 14822991 14615893 14367932 14089717 
1756.926 13797827 13507673 13228198 12958529 12689130 12406602 12096149 
1760.301 11747584 11358822 10937276 10498624 10062144 9644971 9256495 
1763.677 8897992 8563912 8245014 7931311 7613553 7285648 6946240 6599798 
1767.534 6255681 5926146 5621699 5346883 5098926 4868567 4643321 4412769 
1771.391 4172871 3928926 3695077 3487639 3316993 3184396 3082238 2998954 
1775.249 2923692 2850211 2776409 2704253 2636210 2573576 2515151 2457900 
1779.106 2398890 2337057 2274367 2215483 2164565 2123408 2090213 2060116 
1782.964 2027392 1987780 1940716 1888965 1838052 1793566 1758899 1735112 
1786.821 1720409 1712159 1707701 1704741 1701048 1693764 1679527 1655147 
1790.678 1618827 1571571 1518933 1469559 1431361 1409354 1403470 1409055 
1794.536 1419160 1428203 1432657 1431893 1427770 1421920 1415936 1410119 
1798.393 1403005 1392501 1377476 1357533 1333636 1308045 1282688 1259559 
1802.251 1239921 1224769 1214003 1208055 1205696 1205730 1206261 1204832 
1806.108 1200015 1191542 1179980 1166491 1152471 1138319 1123503 1107690 
1809.966 1090350 1072181 1055042 1041258 1031892 1026877 1023987 1020035 
1813.823 1012230 998813 980581 959826 940433 925358 916758 914965 918618 
1818.163 925723 934556 943854 952753 960756 967198 971249 971947 968394 
1822.502 960125 947307 930405 910815 890627 872367 858555 851152 850388 
1826.842 854239 859153 860348 853277 835648 808560 777025 747749 727802 
1831.181 720301 724782 736929 751267 763383 770917 773971 774635 775365 
1835.521 777390 780709 784161 786319 786751 786518 787149 790568 797705 
1839.861 807099 816029 821041 818319 805340 781041 746256 704371 661129 
1844.200 622670 595196 582323 584479 598979 621077 645333 666571 682135 
1848.540 691361 695841 698695 702047 707158 713265 718310 720036 717978 
1852.879 712800 706594 701649 699392 699094 699724 699326 697136 693817 
1857.219 690963 690133 692191 696240 700355 702512 701649 697733 692589 
1861.559 687877 684226 681969 680542 679016 678186 679281 684093 693352 
1865.898 705997 718310 725545 723719 711473 691228 669226 651871 644537 
1870.238 648619 661428 678286 694879 708287 717480 723222 727005 729295 
1874.577 730457 729694 726308 720600 714028 708021 704138 703176 705134 
1878.917 709813 717347 727968 742903 762221 784693 807995 828610 843782 
1883.257 851949 854107 852413 850256 850853 854571 860547 866424 869312 
1887.596 867154 859485 846305 829540 811547 793721 778087 765839 757607 
1891.936 752960 750703 748878 745160 738024 727204 713763 700952 690897 
1896.275 685653 685421 688872 693950 699990 706627 715356 727735 744131 
1900.615 762685 780809 794518 800858 799663 792759 782701 773241 765673 
1904.955 759599 753193 744331 731818 716152 699293 683098 669525 659171 
1909.294 650908 644338 638830 634582 632425 632591 634682 637336 639327 
1913.634 638830 634682 626519 612715 591812 561919 522241 474606 424123 
1917.973 378622 346488 332693 336971 352954 371558 382568 379318 361112 
1922.313 332793 302188 277387 262931 258157 258920 259914 256864 249836 
1926.653 240918 232928 228254 226861 226032 223181 216684 206175 193579 
1930.992 181347 169845 158542 145648 128711 107433 83240 57822 33731 12060 
1935.814 -7985 -27765 -47213 -65335 -78851 -84317 -81369 -72424 -63215 
1940.154 -60829 -71894 -97635 -135662 -179350 -220351 -253136 -275654 
1944.011 -288998 -296349 -300024 -299560 -292971 -278799 -256448 -228465 
1947.868 -199288 -172892 -152754 -140134 -133410 -131621 -134569 -142850 
1951.726 -158086 -182198 -213363 -249626 -287541 -323930 -358527 -393818 
1955.583 -433375 -479780 -533064 -589782 -643251 -688641 -721325 -741767 
1959.441 -752682 -758305 -761051 -762605 -762671 -761249 -760522 -764425 
1963.298 -776695 -800575 -835168 -876239 -917208 -952816 -979364 -998009 
1967.156 -1013447 -1029776 -1050270 -1075688 -1103980 -1132171 -1159335 
1970.531 -1185242 -1211412 -1240950 -1274418 -1312772 -1356441 -1404828 
1973.906 -1456909 -1509676 -1556231 -1584128 -1580364 -1531700 -1430324 
1977.281 -1281653 -1101204 -912777 -740212 -601496 -502981 -443107 -412256 
1981.139 -399081 -396896 -400538 -408615 -421426 -437546 -453864 -467038 
1984.996 -474220 -474584 -470182 -463993 -456843 -449826 -441220 -427880 
1988.854 -410303 -390871 -372598 -360713 -357501 -361209 -368625 -374816 
1992.711 -375445 -370876 -363659 -357236 -354853 -357302 -362004 -366440 
1996.568 -369817 -372763 -379152 -394414 -421128 -459491 -506092 -554276 
2000.426 -597757 -633789 -661447 -683580 -703693 -724500 -746629 -769783 
2004.283 -791579 -809901 -823229 -829943 -826669 -811919 -783443 -740312 
2008.141 -686987 -629653 -575852 -532601 -503279 -486334 -476934 -469421 
2011.998 -458829 -444298 -427947 -413448 -404676 -404974 -414342 -432581 
2015.855 -459028 -492225 -530119 -570524 -607584 -635443 -649339 -646262 
2019.713 -628164 -601033 -572179 -548551 -533759 -527041 -523368 -519628 
2023.570 -513472 -505728 -501591 -505165 -518436 -541503 -570458 -599676 
2027.428 -627271 -652052 -673820 -694166 -710905 -719439 -713650 -687748 
2031.285 -639182 -570557 -489908 -405503 -328201 -265057 -218066 -188359 
2035.143 -173620 -168785 -170209 -172925 -171501 -162591 -145036 -119266 
2039.000 -90115 -63513 -43270 -31674 -27069 -23093 -13253 7388 40491 83704 
2043.822 130236 175115 213137 242841 267805 293202 324636 368242 427606 
2048.161 503166 591978 686815 776892 851019 898795 914135 897600 857161 
2052.501 803945 752894 716219 699857 703408 720898 743102 762420 775365 
2056.841 783431 790734 802352 820676 845077 872964 901086 927052 951458 
2061.180 976231 1003728 1035147 1070421 1106827 1142704 1175893 1205431 
2065.038 1231182 1253246 1270326 1282223 1288437 1289235 1287374 1287042 
2068.895 1290996 1301564 1317916 1336694 1353678 1365510 1370363 1369698 
2072.752 1367239 1366208 1369565 1379072 1394130 1414207 1438641 1466700 
2076.610 1497819 1531435 1565252 1597077 1625512 1649725 1671079 1692799 
2080.467 1716849 1744760 1776332 1808305 1837120 1860313 1876386 1885703 
2084.325 1891228 1894422 1896452 1897684 1896253 1890163 1878648 1861411 
2088.182 1838983 1812630 1783119 1751214 1717681 1683918 1652020 1625013 
2092.040 1605691 1595082 1593519 1598973 1608318 1619193 1629636 1638916 
2095.897 1647829 1657475 1667952 1679427 1692067 1705007 1718645 1733748 
2099.754 1749983 1767149 1783950 1798224 1808105 1813063 1813695 1811399 
2103.612 1808505 1806375 1805344 1805211 1805044 1803980 1802283 1799787 
2107.469 1796693 1792534 1786446 1776964 1764355 1749284 1734048 1721673 
2111.327 1714454 1712591 1714920 1718246 1718878 1714720 1705772 1692666 
2115.184 1677398 1661599 1644836 1626477 1605591 1581514 1555509 1530670 
2119.042 1509091 1492766 1481561 1472784 1462943 1448847 1428136 1401143 
2122.899 1370130 1337425 1305420 1276208 1249125 1223008 1196626 1167488 
2126.756 1133170 1091646 1040295 977758 904406 822037 734440 646827 563843 
2131.096 488736 423128 366252 316777 274502 239293 211711 192816 181314 
2135.436 172994 164309 150355 128811 101236 71409 43175 20278 3214 -10867 
2140.257 -25479 -43966 -68913 -98761 -131389 -163452 -193327 -219821 -244394 
2144.597 -267574 -288832 -307507 -322009 -330849 -335352 -337306 -339226 
2148.454 -344093 -353926 -369386 -392725 -426556 -473856 -538293 -621811 
2152.312 -723673 -841352 -970107 -1104905 -1242008 -1379793 -1514431 
2155.687 -1640907 -1748900 -1823673 -1847990 -1809947 -1705369 -1544312 
2159.062 -1348414 -1143539 -953213 -794853 -673953 -588856 -534983 -504371 
2162.920 -489345 -484381 -482395 -475941 -460716 -433177 -393652 -347503 
2166.777 -301613 -262243 -234558 -219755 -215516 -220682 -233697 -254129 
2170.635 -284230 -324327 -370214 -416824 -454692 -474220 -470447 -443107 
2174.492 -396698 -342239 -291647 -253467 -235552 -240618 -266382 -309295 
2178.349 -362931 -419009 -469785 -508309 -529258 -531740 -519826 -498745 
2182.207 -476868 -460219 -450124 -444795 -441121 -433772 -420399 -401994 
2186.064 -380477 -358627 -338762 -318731 -295521 -265984 -227206 -178986 
2189.922 -123771 -64341 -3578 55834 113068 167524 217247 261207 298673 
2194.261 330206 358194 387343 420475 459679 503995 548781 587864 616199 
2198.601 630468 631164 621873 608070 593836 583186 577014 574592 576085 
2202.940 580996 589523 602098 618389 636971 656151 675432 694016 712999 
2207.280 733643 756014 779780 803713 824859 842387 856563 868084 879173 
2211.620 891590 904174 915762 923963 926155 921340 910981 896438 879936 
2215.959 863237 845442 825988 805240 782734 760196 740414 724284 712468 
2220.299 704835 699160 694713 691925 691328 693452 698762 705001 708320 
2224.638 706030 695377 676991 654791 634582 621873 621177 633222 655421 
2228.978 684458 714792 742074 763615 777954 784991 786153 783232 778120 
2233.318 774336 774801 781174 794551 814502 838437 864498 891092 917190 
2237.657 943521 971216 1000308 1030829 1060855 1088623 1112839 1133834 
2241.515 1152538 1171375 1192738 1217691 1246467 1277870 1310006 1340915 
2245.372 1369466 1394728 1415437 1432358 1444592 1452637 1457790 1461414 
2249.229 1464705 1468994 1474380 1479899 1484254 1487047 1487978 1488743 
2253.087 1491735 1498750 1511352 1529673 1551752 1576060 1600037 1621754 
2256.944 1639947 1654049 1662730 1665258 1661300 1650789 1635490 1618295 
2260.802 1602099 1589828 1583443 1582112 1584440 1588697 1592887 1596213 
2264.659 1599472 1602698 1606489 1611012 1614803 1616799 1617165 1615868 
2268.517 1614304 1614670 1617963 1624648 1634459 1645867 1657308 1668052 
2272.374 1677166 1684284 1690138 1694762 1699319 1705772 1716350 1732650 
2276.231 1756470 1787211 1822612 1859381 1893590 1921945 1944044 1961518 
2280.089 1977295 1995269 2017705 2044869 2075298 2106194 2134662 2158837 
2283.946 2178284 2193503 2205958 2216748 2226773 2236498 2246323 2255815 
2287.804 2265074 2273701 2280929 2285792 2287424 2285226 2279630 2272335 
2291.661 2265541 2261411 2261944 2267672 2278031 2292187 2309009 2327097 
2295.519 2346252 2365874 2385230 2403122 2418881 2430976 2439273 2444138 
2299.376 2446204 2447004 2447437 2447937 2448103 2447703 2446071 2443472 
2303.233 2440573 2438207 2437207 2437974 2439773 2441772 2442838 2441639 
2307.091 2437441 2430010 2419248 2405254 2388829 2370505 2351482 2333260 
2310.948 2317437 2305311 2297950 2295052 2295885 2299249 2303113 2305844 
2314.806 2306144 2302980 2295785 2285326 2272668 2259412 2248155 2241060 
2318.663 2239495 2244891 2256348 2272702 2292254 2312740 2331494 2346218 
2322.521 2353547 2349583 2331061 2295185 2240961 2170592 2088315 2000728 
2326.378 1914490 1835989 1768480 1713057 1668019 1630701 1598009 1568811 
2330.235 1542474 1520396 1503638 1493098 1488443 1489208 1494361 1503073 
2334.093 1514976 1529573 1546032 1563557 1580383 1595481 1608252 1619559 
2337.950 1629869 1640712 1652452 1664493 1676201 1686512 1695427 1703776 
2341.808 1713157 1725066 1740535 1759963 1782786 1809836 1842677 1883940 
2345.665 1936922 2003957 2083920 2173556 2266407 2354647 2431043 2489157 
2349.522 2525116 2537580 2528082 2499621 2457533 2407620 2354547 2302114 
2353.380 2252484 2205525 2160302 2115484 2069571 2022066 1973633 1925506 
2357.237 1879846 1839516 1805843 1779925 1761926 1750482 1743795 1740701 
2361.095 1739637 1739736 1741433 1744760 1750083 1758400 1769611 1784084 
2364.952 1802582 1824908 1851095 1881411 1915721 1953563 1995003 2039576 
2368.810 2086650 2135795 2186043 2236498 2286991 2337391 2387762 2438940 
2372.667 2491623 2545346 2600142 2654811 2708088 2758836 2806489 2850645 
2376.524 2891803 2930698 2968228 3005694 3044231 3084507 3126923 3171512 
2380.382 3217508 3263742 3308679 3350749 3388883 3422645 3452636 3479523 
2384.239 3504741 3529059 3553044 3576963 3600283 3622434 3643150 3661761 
2388.097 3677934 3691167 3701259 3707909 3711285 3711920 3710416 3707909 
2391.954 3705136 3702128 3699154 3695612 3690967 3685052 3678268 3670717 
2395.812 3663432 3656950 3651537 3647293 3644787 3643918 3645322 3649699 
2399.669 3656849 3666339 3677500 3688761 3698920 3707675 3714860 3721511 
2403.526 3729398 3739390 3752892 3770573 3792064 3817033 3844845 3874129 
2407.384 3903115 3930364 3953669 3971525 3983629 3990518 3993929 3996270 
2411.241 3999882 4006068 4015666 4027772 4041283 4055497 4070012 4085030 
2415.099 4101687 4120485 4141593 4164641 4188394 4211545 4232958 4251763 
2418.956 4267255 4279134 4287399 4291649 4292586 4291381 4289775 4290143 
2422.813 4294426 4303796 4318186 4336257 4355534 4373742 4389037 4400451 
2426.671 4408283 4413438 4417153 4420534 4424484 4429840 4437003 4446811 
2430.528 4459398 4474965 4492875 4512193 4531511 4550027 4566769 4581536 
2434.386 4594930 4607555 4619845 4632169 4644292 4655880 4666765 4677047 
2438.243 4686827 4696875 4707627 4719283 4732213 4746315 4761155 4776699 
2442.101 4792311 4807286 4821290 4833922 4845246 4855969 4867294 4880195 
2445.958 4895843 4915045 4937297 4961795 4987502 5012841 5036473 5058195 
2449.815 5077001 5092757 5105799 5115890 5123467 5129737 5135403 5142008 
2453.673 5150692 5161891 5175203 5190024 5204644 5217588 5228286 5236401 
2457.530 5242069 5246429 5250453 5254847 5260582 5268128 5277821 5289995 
2461.388 5304518 5320820 5338564 5356745 5374122 5390225 5404583 5416795 
2465.245 5427296 5436322 5444072 5451118 5457795 5464372 5471787 5480545 
2469.103 5490981 5503530 5518061 5533800 5550210 5566253 5581288 5594847 
2472.960 5606729 5617067 5626365 5635663 5646035 5658556 5674736 5694778 
2476.817 5718514 5745105 5772839 5799534 5823779 5844432 5861190 5874153 
2480.675 5884431 5892424 5899276 5905456 5911569 5918723 5928028 5940053 
2484.532 5955572 5974417 5995077 6016209 6036065 6052998 6066740 6077762 
2488.390 6086699 6095100 6104172 6114153 6125309 6137810 6150883 6164965 
2492.247 6180223 6196591 6214707 6234437 6255312 6276759 6298139 6318613 
2496.104 6337878 6356000 6373080 6389287 6405495 6421501 6437408 6453516 
2499.962 6468919 6483549 6497473 6510556 6523203 6536523 6551054 6567032 
2503.819 6585366 6605012 6625299 6645452 6664831 6682698 6699556 6715439 
2507.677 6730750 6745927 6760936 6775744 6790418 6805025 6819161 6833534 
2511.534 6847974 6862650 6877361 6892240 6906682 6921057 6935433 6949675 
2515.392 6964523 6980045 6996375 7013886 7032675 7052679 7073929 7095989 
2519.249 7117814 7138630 7157291 7172853 7184745 7193200 7198455 7201386 
2523.106 7202936 7203576 7203778 7204485 7205934 7209033 7214289 7222475 
2526.964 7233425 7246665 7261288 7275641 7288917 7300406 7309673 7317491 
2530.821 7324264 7330667 7337204 7343910 7350448 7356985 7363422 7369859 
2534.679 7376936 7385295 7395473 7407909 7422941 7439896 7458401 7477446 
2538.536 7495751 7512371 7526732 7538330 7547635 7555491 7562099 7567797 
2542.394 7572619 7575788 7576429 7574372 7569348 7562503 7555457 7549759 
2546.251 7546961 7547837 7552288 7559065 7567493 7575956 7583408 7589309 
2550.108 7593591 7595816 7596423 7595378 7592816 7589376 7585701 7582228 
2553.966 7580070 7579362 7580070 7582059 7584689 7587589 7590994 7595075 
2557.823 7600133 7606809 7615070 7624107 7633212 7641103 7646566 7649635 
2561.681 7650309 7649298 7647881 7647106 7647341 7648690 7650579 7651793 
2565.538 7651624 7649298 7644947 7638877 7632133 7625288 7619420 7614935 
2569.396 7612406 7611900 7613789 7618172 7624647 7632942 7642182 7650984 
2573.253 7658437 7663731 7666362 7667002 7666564 7666092 7666631 7668722 
2577.110 7672331 7677356 7683494 7690171 7697254 7704471 7711554 7717828 
2580.968 7723359 7727845 7731791 7736379 7742315 7750714 7762317 7776418 
2584.825 7792103 7808195 7823477 7837376 7850669 7863591 7877560 7893216 
2588.683 7910660 7929085 7948151 7966981 7985307 8003835 8022904 8043324 
2592.540 8065535 8089097 8113470 8138182 8162491 8185788 8208411 8230055 
2596.397 8250451 8269633 8286924 8302054 8315530 8326912 8336640 8345388 
2600.255 8353393 8360926 8368593 8376701 8385516 8395921 8408319 8422541 
2604.112 8438420 8455143 8471969 8488457 8504405 8520050 8536134 8553639 
2607.970 8572767 8594023 8617107 8641442 8666691 8692111 8717229 8741738 
2611.827 8765371 8788193 8810204 8831981 8853623 8875570 8898060 8920855 
2615.685 8943786 8966652 8989451 9012488 9036473 9062218 9090369 9121396 
2619.542 9155031 9190734 9227827 9265939 9304731 9344407 9385407 9427799 
2623.399 9471855 9517405 9564145 9611975 9660793 9710531 9761494 9813277 
2627.257 9865439 9917404 9968357 10017384 10064314 10109588 10153305 
2630.632 10196417 10239736 10283569 10328560 10375456 10424224 10475270 
2634.007 10528700 10584003 10640604 10697892 10755016 10811436 10867183 
2637.383 10922462 10977441 11032394 11087048 11141164 11194506 11246596 
2640.758 11297502 11347801 11398073 11448555 11499246 11549739 11599047 
2644.133 11646659 11691995 11734954 11776282 11816763 11857554 11899337 
2647.508 11942589 11987309 12033226 12079795 12126301 12172268 12217215 
2650.884 12260907 12303241 12344793 12385839 12427195 12469511 12512750 
2654.259 12556882 12601187 12644577 12686026 12724750 12760167 12792686 
2657.634 12822410 12849951 12875821 12900533 12923880 12945727 12965937 
2661.009 12984406 13000725 13015099 13027493 13037940 13046408 13053271 
2664.385 13058769 13063276 13067271 13070754 13074305 13077686 13080520 
2667.760 13082364 13082740 13081032 13077139 13071096 13063207 13053852 
2671.135 13043574 13032477 13020596 13007861 12993897 12978466 12961772 
2674.510 12943884 12925520 12907530 12890738 12875788 12863022 12852135 
2677.885 12842579 12833569 12824048 12813400 12801013 12786680 12770506 
2681.261 12753172 12735429 12717926 12701618 12686947 12674188 12663510 
2684.636 12654640 12647476 12641984 12638197 12636526 12637584 12641233 
2688.011 12647443 12655630 12664738 12673813 12681830 12688449 12693395 
2691.386 12697046 12699741 12701686 12703255 12704586 12705712 12707349 
2694.762 12710113 12714616 12722225 12732904 12746586 12762589 12779446 
2698.137 12795860 12810636 12823058 12833058 12841078 12847801 12854046 
2701.512 12860838 12868654 12877835 12888723 12901181 12915211 12930571 
2704.887 12947162 12964572 12983041 13002330 13022405 13043096 13064471 
2708.263 13086052 13107770 13129354 13150937 13172898 13195577 13219966 
2711.638 13246097 13274622 13305506 13338340 13373157 13409481 13447108 
2715.013 13485831 13525344 13565339 13605509 13645750 13686167 13727134 
2718.388 13769576 13813869 13861040 13911124 13963815 14018531 14074555 
2721.764 14131098 14188026 14245715 14304712 14365533 14428521 14493162 
2725.139 14558532 14623227 14685874 14745548 14802043 14855768 14907818 
2728.514 14959464 15011528 15064523 15118452 15172455 15225437 15276605 
2731.889 15324862 15369692 15410853 15448172 15481751 15511693 15537895 
2735.265 15560355 15579450 15595420 15608574 15619772 15629217 15637701 
2738.640 15645258 15652128 15658380 15664151 15669407 15674593 15680330 
2742.015 15687099 15695376 15705889 15718497 15733339 15749900 15767526 
2745.390 15785495 15803192 15820201 15836043 15851026 15865013 15878279 
2748.766 15891338 15904227 15917322 15930934 15945507 15961250 15978198 
2752.141 15996246 16015049 16033581 16051251 16066931 16080203 16090758 
2755.516 16099045 16105957 16112285 16119024 16126692 16135804 16146155 
2758.891 16157195 16168751 16180100 16190933 16201044 16210262 16218448 
2762.267 16225843 16232619 16238948 16245380 16252121 16259449 16267395 
2765.642 16276028 16284870 16293608 16301965 16309362 16315727 16321059 
2769.017 16325532 16329557 16333891 16338915 16345795 16354913 16366439 
2772.392 16380031 16394963 16410412 16425071 16438527 16450364 16461067 
2775.768 16471460 16482577 16495036 16509421 16525598 16543187 16561946 
2779.143 16581671 16602566 16625494 16651109 16680066 16712638 16748417 
2782.518 16786402 16825838 16865518 16904788 16943544 16982408 17022136 
2785.893 17064076 17109292 17158788 17213182 17272274 17335376 17401656 
2789.269 17469536 17537598 17605118 17671684 17737052 17802082 17867124 
2792.644 17932554 17998410 18063792 18127836 18189230 18246760 18299912 
2796.019 18348366 18392612 18433056 18470360 18505004 18537404 18567766 
2799.394 18596780 18624586 18651736 18678542 18705074 18731364 18757242 
2802.770 18782152 18805680 18827722 18848068 18866892 18884680 18901568 
2806.145 18918112 18934794 18951926 18969612 18988824 19009212 19030986 
2809.520 19053836 19077688 19102098 19127132 19152930 19179872 19208372 
2812.895 19238850 19271684 19306602 19344084 19383924 19426576 19472698 
2816.271 19522464 19576220 19633936 19694710 19757816 19822250 19887490 
2819.646 19953158 20019840 20088096 20158754 20232100 20308270 20386848 
2823.021 20467456 20549434 20632782 20717780 20804774 20894082 20986468 
2826.396 21081692 21179824 21280692 21383880 21488936 21596076 21704876 
2829.771 21815066 21926850 22040196 22155176 22272488 22392518 22516038 
2833.147 22644232 22777532 22917122 23063814 23218284 23381406 23553442 
2836.522 23734822 23924992 24124038 24331444 24547646 24774058 25012660 
2839.897 25266846 25540896 25839628 26167844 26530224 26932144 27377804 
2843.272 27871900 28418696 29020944 29679476 30392096 31151912 31945762 
2846.648 32754104 33551644 34305932 34982160 35545824 35964460 36214696 
2850.023 36283852 36172628 35894452 35473876 34944484 34340968 33698428 
2853.398 33048474 32415022 31816642 31265770 30769258 30330302 29948940 
2856.773 29623602 29350652 29125458 28942630 28796416 28681114 28591854 
2860.149 28524798 28477104 28447562 28436032 28442504 28467764 28512380 
2863.524 28576850 28661400 28766392 28891984 29038728 29207420 29398228 
2866.899 29611188 29845578 30099556 30370488 30654890 30948872 31247396 
2870.274 31545590 31837680 32117408 32378536 32615748 32824356 33002284 
2873.650 33149992 33270742 33369914 33454220 33530776 33605916 33684572 
2877.025 33770444 33865860 33972512 34091092 34223000 34368940 34529812 
2880.400 34706680 34900068 35110140 35336228 35576464 35827412 36084556 
2883.775 36341088 36589632 36822844 37033232 37214948 37364532 37481008 
2887.151 37566292 37625148 37665112 37694820 37724924 37766524 37829960 
2890.526 37926780 38068252 38266580 38536720 38896132 39365096 39968192 
2893.901 40731608 41680580 42837980 44217432 45818864 47621188 49580596 
2897.276 51625600 53655052 55554452 57197152 58459900 59248996 59503328 
2900.652 59209388 58399780 57149796 55563416 53750928 51826936 49890576 
2904.027 48017356 46266396 44674988 43263996 42043884 41016688 40179672 
2907.402 39527284 39052708 38749244 38610628 38631488 38807248 39132144 
2910.777 39598712 40195340 40904504 41703960 42564132 43450688 44328124 
2914.153 45158584 45906948 46544472 47048356 47405052 47610612 47669516 
2917.528 47593532 47398660 47105076 46733352 46303220 45834148 45343252 
2920.903 44844540 44350328 43869832 43410116 42976564 42573416 42204376 
2924.278 41872796 41581904 41334348 41132288 40976960 40868464 40805488 
2927.654 40785836 40804944 40856740 40933632 41025212 41120012 41206092 
2931.029 41270176 41299804 41283516 41210024 41069820 40854300 40556488 
2934.404 40171932 39699848 39143312 38509204 37809068 37057844 36271276 
2937.779 35467224 34663076 33874280 33115842 32400418 31737432 31134504 
2941.155 30595692 30121858 29710944 29358096 29055838 28794432 28563402 
2944.530 28351242 28145972 27937442 27716368 27475888 27212714 26926434 
2947.905 26620154 26299518 25972114 25646404 25330032 25030596 24752518 
2951.280 24499160 24271348 24067648 23885956 23722642 23573836 23436238 
2954.656 23306864 23183330 23063886 22947650 22833614 22721282 22610374 
2958.031 22500894 22393078 22287694 22185512 22087328 21994184 21906706 
2961.406 21825412 21751382 21685094 21627524 21579884 21543078 21517730 
2964.781 21504326 21502654 21512264 21533086 21564980 21608438 21664544 
2968.156 21734938 21821336 21925594 22049432 22193986 22360564 22549748 
2971.532 22761958 22997432 23254846 23531406 23822528 24120044 24412332 
2974.907 24685982 24924152 25110210 25230148 25273098 25234856 25118566 
2978.282 24934328 24698012 24429226 24149642 23878568 23633170 23426026 
2981.657 23264284 23149988 23080796 23050222 23048860 23065808 23090022 
2985.033 23111198 23120808 23113120 23085200 23036630 22969170 22886628 
2988.408 22793944 22696214 22599206 22507662 22425734 22356098 22299974 
2991.783 22257282 22226906 22207134 22196636 22194160 22199530 22212888 
2995.158 22234718 22265024 22303740 22349644 22401346 22456856 22514362 
2998.534 22572540 22630760 22688986 22748340 22810146 22875452 22945450 
3001.909 23020384 23099248 23181094 23263760 23345742 23425746 23503598 
3005.284 23579504 23654584 23730166 23807020 23885570 23966096 24047826 
3008.659 24130692 24214660 24299766 24386606 24475672 24566966 24660452 
3012.035 24755572 24851728 24947978 25044110 25139666 25234644 25329362 
3015.410 25423928 25518652 25613926 25709678 25805976 25903034 26000538 
3018.785 26098628 26197476 26297054 26397110 26497786 26598524 26698896 
3022.160 26798622 26897386 26995324 27093002 27191338 27291212 27393686 
3025.536 27499148 27607570 27718630 27831554 27945498 28059934 28174396 
3028.911 28288432 28401894 28514326 28625510 28735346 28843896 28951128 
3032.286 29057608 29163620 29269584 29376178 29483754 29593098 29704736 
3035.661 29819068 29935948 30054708 30174314 30293316 30410502 30525696 
3039.037 30639102 30752150 30866616 30983922 31104854 31229272 31356148 
3042.412 31484098 31612084 31739570 31866454 31993266 32120794 32248932 
3045.787 32377928 32507606 32637748 32768182 32899514 33031314 33163830 
3049.162 33296608 33428886 33560196 33690268 33819152 33947472 34075932 
3052.538 34204756 34334120 34463988 34593856 34723912 34854864 34987364 
3055.913 35122528 35261224 35403304 35548236 35695012 35842312 35989080 
3059.288 36134676 36278700 36420644 36560724 36698504 36834276 36968720 
3062.663 37102880 37237908 37375112 37514780 37656948 37800972 37945768 
3066.039 38090464 38235172 38379784 38525136 38671620 38819092 38966948 
3069.414 39114160 39259972 39403804 39545684 39686124 39825484 39964524 
3072.789 40103752 40243720 40385036 40528916 40675892 40826784 40981148 
3076.164 41138476 41297544 41457288 41616944 41776516 41936616 42097836 
3079.540 42260324 42423888 42587448 42749972 42910652 43069452 43226812 
3082.915 43383568 43540088 43696260 43851576 44005036 44156316 44305848 
3086.290 44455108 44605844 44759796 44917692 45079436 45244216 45410716 
3089.665 45577756 45744864 45912036 46079192 46246492 46413524 46579512 
3093.041 46744460 46908840 47073396 47239968 47410044 47584252 47762264 
3096.416 47942868 48124140 48303964 48481424 48655804 48827508 48997464 
3099.791 49166264 49334976 49504204 49674200 49845420 50018304 50192856 
3103.166 50369000 50546860 50725568 50904760 51083844 51262108 51438988 
3106.542 51614444 51788260 51960796 52132916 52305596 52479680 52656276 
3109.917 52835032 53014912 53194604 53372160 53546004 53716244 53883544 
3113.292 54049712 54216960 54386672 54559532 54735468 54913616 55093080 
3116.667 55273408 55454980 55638136 55823624 56011568 56201632 56393288 
3120.042 56585896 56778664 56971596 57164572 57357524 57550560 57743156 
3123.418 57935072 58126056 58316252 58505544 58694500 58883084 59071372 
3126.793 59259324 59447052 59634900 59823284 60013124 60204224 60396436 
3130.168 60588616 60779744 60968284 61153968 61336792 61517060 61695720 
3133.543 61873044 62049524 62225344 62400932 62577128 62755004 62936088 
3136.919 63120516 63308196 63497796 63687360 63875252 64060456 64242972 
3140.294 64424032 64604932 64786792 64970152 65154976 65340340 65525980 
3143.669 65711728 65897800 66084556 66272020 66459520 66646256 66831372 
3147.044 67014092 67194176 67372632 67549392 67724824 67899048 68071512 
3150.420 68242080 68411504 68580840 68752264 68927408 69107048 69290648 
3153.795 69477088 69663840 69848768 70030464 70208144 70381960 70552808 
3157.170 70721280 70887920 71053352 71217752 71381552 71545296 71708904 
3160.545 71872216 72035048 72196536 72356712 72515376 72673160 72830456 
3163.921 72988080 73145568 73301968 73456432 73607536 73754648 73898072 
3167.296 74038400 74176688 74314248 74451760 74589560 74728376 74868232 
3170.671 75009704 75152952 75297992 75443976 75590088 75734952 75877816 
3174.046 76017800 76155104 76289368 76419936 76546464 76667840 76783688 
3177.422 76894488 77001736 77107736 77215064 77325232 77438440 77553736 
3180.797 77668896 77781960 77891520 77997464 78100208 78201000 78300384 
3184.172 78398728 78495776 78591384 78685264 78777768 78869536 78960296 
3187.547 79050080 79137896 79222744 79303992 79381992 79457056 79530160 
3190.923 79602264 79672400 79739952 79803544 79862272 79916480 79967536 
3194.298 80016816 80066016 80116136 80166512 80216448 80265152 80312112 
3197.673 80357832 80403568 80449784 80496448 80542872 80587264 80628232 
3201.048 80665296 80699048 80730688 80762536 80795664 80830496 80867144 
3204.424 80904344 80941264 80977880 81013656 81048392 81082184 81114168 
3207.799 81143760 81170960 81196168 81220456 81245504 81272112 81300120 
3211.174 81328688 81355984 81380360 81401096 81418600 81434112 81449944 
3214.549 81467368 81486832 81508056 81529800 81550952 81570784 81589456 
3217.925 81607208 81625272 81644312 81664784 81687136 81711696 81738328 
3221.300 81767248 81797888 81830008 81863016 81896624 81930952 81966208 
3224.675 82003064 82041408 82080624 82119256 82155088 82186512 82212776 
3228.050 82234520 82253536 82272680 82294264 82319936 82350656 82386384 
3231.426 82426600 82471352 82520792 82575080 82633992 82696968 82762584 
3234.801 82829904 82898112 82966896 83036928 83108784 83181616 83254568 
3238.176 83325016 83390856 83450720 83505208 83556328 83607544 83662256 
3241.551 83721792 83786488 83854088 83921576 83986456 84047368 84104304 
3244.927 84158840 84213464 84269824 84329240 84392136 84457816 84525192 
3248.302 84593624 84661704 84728632 84793728 84856432 84916144 84972952 
3251.677 85026792 85077496 85125496 85170848 85213704 85254704 85294264 
3255.052 85333336 85372464 85411784 85450792 85488384 85523328 85554272 
3258.427 85580544 85602088 85618760 85630864 85637928 85639168 85633928 
3261.803 85621904 85603824 85581264 85556656 85531400 85506664 85481968 
3265.178 85455712 85425576 85389800 85347216 85297328 85240512 85177376 
3268.553 85108728 85035336 84958448 84879560 84800328 84722152 84645320 
3271.928 84569064 84491344 84409520 84322200 84229032 84131616 84033216 
3275.304 83936848 83844360 83756192 83670368 83583560 83492840 83396152 
3278.679 83292664 83183248 83069504 82953096 82835432 82717688 82600416 
3282.054 82484728 82371560 82261664 82155680 82053656 81955120 81859488 
3285.429 81766808 81676864 81590008 81506816 81426480 81348192 81270552 
3288.805 81192016 81112216 81032104 80953200 80877400 80807272 80743416 
3292.180 80686088 80635416 80590816 80552008 80520128 80494888 80476544 
3295.555 80464456 80457200 80453216 80451456 80451376 80453288 80458320 
3298.930 80466888 80479576 80496008 80515664 80537800 80562648 80590016 
3302.306 80620136 80653768 80690904 80731488 80776184 80825392 80879872 
3305.681 80940752 81008104 81080984 81158016 81237032 81316096 81394544 
3309.056 81472800 81551672 81632432 81715576 81800168 81884744 81968448 
3312.431 82050368 82131704 82214256 82299632 82388672 82480448 82572400 
3315.807 82660928 82743064 82817072 82882992 82942272 82996936 83048488 
3319.182 83097864 83144968 83189232 83230488 83268656 83304016 83336648 
3322.557 83366320 83392016 83413616 83430400 83442928 83452000 83458704 
3325.932 83463208 83464888 83462080 83452488 83434376 83407072 83370616 
3329.308 83326576 83276288 83220496 83159664 83093208 83020040 82939376 
3332.683 82850752 82753640 82647944 82534056 82411904 82282608 82147840 
3336.058 82009512 81869896 81730576 81591736 81452096 81309464 81160616 
3339.433 81002992 80835448 80657712 80470320 80275080 80072752 79864184 
3342.809 79650224 79431128 79207672 78981040 78751512 78519920 78286376 
3346.184 78050992 77813944 77576080 77338696 77103064 76870808 76642544 
3349.559 76418000 76197000 75978920 75764104 75553896 75349808 75153304 
3352.934 74965368 74785728 74613400 74447120 74286216 74130200 73979664 
3356.310 73835104 73696808 73564280 73436656 73312760 73192424 73076200 
3359.685 72965032 72860272 72762824 72672304 72587696 72507304 72429672 
3363.060 72353656 72279408 72206864 72136200 72067160 71999224 71931768 
3366.435 71865336 71800520 71738840 71681616 71629608 71581584 71535952 
3369.811 71489504 71439240 71382568 71317896 71244104 71160800 71067360 
3373.186 70962832 70846384 70717416 70575144 70419648 70250288 70065968 
3376.561 69864608 69643616 69399912 69131256 68836976 68516936 68173184 
3379.936 67807816 67422600 67018880 66597044 66156136 65694848 65212876 
3383.312 64709520 64186044 63645044 63090012 62525196 61955428 61383920 
3386.687 60813128 60244112 59676604 59109716 58542816 57975776 57408988 
3390.062 56844036 56281928 55723976 55171252 54624420 54084236 53551588 
3393.437 53026968 52510344 52001352 51498408 50999364 50502340 50005736 
3396.813 49509292 49014116 48522028 48034420 47552640 47076496 46604852 
3400.188 46136156 45669216 45202852 44737500 44273856 43812464 43354276 
3403.563 42899496 42447964 41999424 41553352 41109484 40667236 40226344 
3406.938 39786264 39346956 38909248 38473904 38043260 37619332 37203612 
3410.313 36797096 36399816 36010680 35628328 35252096 34881400 34516360 
3413.689 34157684 33806044 33461594 33124528 32794874 32472540 32157652 
3417.064 31850408 31550438 31257010 30969296 30685506 30404638 30126334 
3420.439 29850726 29579050 29312544 29052330 28798434 28550594 28307386 
3423.814 28067814 27830954 27596342 27364006 27134372 26907220 26682864 
3427.190 26461162 26242034 26025236 25811180 25599656 25390588 25183728 
3430.565 24978618 24775074 24573908 24375636 24181764 23993616 23811256 
3433.940 23633800 23460020 23287566 23114378 22940140 22764716 22589642 
3437.315 22416872 22247866 22083668 21923818 21767336 21611956 21456456 
3440.691 21299586 21140998 20981704 20822712 20665758 20512334 20362888 
3444.066 20217000 20073556 19929810 19783998 19634248 19480462 19323818 
3447.441 19167092 19013678 18866374 18726696 18594704 18468284 18345186 
3450.816 18223056 18099854 17975650 17851138 17727524 17606360 17488336 
3454.192 17373758 17262070 17152892 17045398 16939168 16833760 16728409 
3457.567 16622087 16514171 16403841 16290992 16176179 16060708 15945543 
3460.942 15832571 15722483 15615822 15512827 15413530 15317654 15225711 
3464.317 15137562 15052929 14971639 14893074 14816682 14742189 14669423 
3467.693 14598073 14528244 14459967 14391975 14323787 14254549 14183405 
3471.068 14110321 14035539 13958922 13881086 13802821 13724159 13646058 
3474.443 13569510 13495538 13425168 13359695 13298844 13242373 13189839 
3477.818 13140282 13093120 13048457 13006393 12967030 12930708 12896642 
3481.194 12863671 12831624 12799545 12767298 12735975 12706257 12679305 
3484.569 12655868 12636117 12619573 12606543 12596924 12590307 12587544 
3487.944 12588021 12591671 12598288 12607532 12619402 12634582 12654026 
3491.319 12678725 12709396 12746347 12788933 12836709 12888621 12944055 
3494.695 13003013 13065836 13133042 13205243 13283230 13367622 13459685 
3498.070 13560997 13672558 13794988 13928094 14069968 14218222 14370466 
3501.445 14524578 14680116 14838350 15001820 15173210 15355651 15550052 
3504.820 15756633 15974553 16202420 16438527 16681718 16930730 17184364 
3508.196 17441804 17702330 17965706 18232836 18505038 18783330 19068548 
3511.571 19360090 19655604 19952706 20248382 20540160 20827474 21110422 
3514.946 21389692 21665728 21938210 22205494 22465056 22714402 22950586 
3518.321 23171518 23375288 23559740 23722572 23861382 23973274 24055810 
3521.697 24107504 24126804 24113528 24068698 23993162 23888512 23756518 
3525.072 23598360 23414976 23207028 22974584 22717650 22437490 22135232 
3528.447 21813880 21476438 21125798 20764282 20393932 20015710 19630088 
3531.822 19238400 18841562 18440904 18037782 17632860 17226836 16820428 
3535.198 16414611 16010890 15612250 15221387 14841230 14473395 14119221 
3538.573 13778297 13450389 13134783 12830566 12536725 12252626 11976511 
3541.948 11706632 11441240 11178595 10917603 10657718 10399042 10141773 
3545.323 9886827 9635384 9389741 9152628 8926773 8714558 8516772 8332553 
3549.181 8158743 7991382 7826445 7660662 7493324 7325612 7159884 6999877 
3553.038 6847570 6703897 6568479 6439829 6316394 6196994 6081457 5969210 
3556.896 5860249 5753868 5648888 5544002 5438134 5330581 5222115 5113744 
3560.753 5006909 4903517 4805444 4713455 4628318 4549692 4475634 4403865 
3564.610 4330869 4252967 4167318 4073558 3973330 3871188 3773447 3685052 
3568.468 3609270 3546396 3493785 3447693 3404011 3359765 3312853 3263075 
3572.325 3210465 3155825 3100492 3044932 2989546 2934934 2880963 2827266 
3576.183 2773675 2719524 2664012 2607842 2551278 2495322 2441672 2391261 
3580.040 2345053 2303313 2265907 2232201 2202328 2175887 2152410 2130867 
3583.897 2109557 2085418 2055689 2017638 1969373 1912327 1849698 1786546 
3587.755 1728991 1681756 1646898 1624282 1611278 1603862 1598241 1590859 
3591.612 1578687 1560165 1534294 1501477 1463275 1422285 1381565 1344105 
3595.470 1312598 1287872 1269529 1256336 1246301 1237296 1227859 1217292 
3599.327 1205829 1194233 1183967 1175827 1170677 1168053 1166624 1164764 
3603.185 1160511 1152206 1138817 1120114 1096164 1067564 1034815 997584 
3607.042 957103 913737 868980 825523 786352 753591 728300 709979 696107 
3611.382 683994 671217 656583 640787 626287 615138 609099 608601 611820 
3615.721 615602 616664 611919 599377 578640 550838 518194 483927 450923 
3620.061 422001 398984 382468 372354 367711 367545 370530 376167 383894 
3624.400 393313 403660 412847 417092 412350 392948 355408 299834 232132 
3628.740 163911 108991 78037 73563 91194 121420 154398 182805 201998 211214 
3633.562 212606 209855 206275 204551 205148 206606 207236 204949 198783 
3637.901 188772 175811 160663 144819 129374 115056 102992 94475 89935 90233 
3642.723 95469 104848 116912 130136 142035 150620 153901 150056 137992 
3647.063 117177 88178 52487 13088 -26042 -60631 -85676 -97999 -95548 -78984 
3651.885 -50692 -15638 21769 55801 81815 96994 100109 92155 76645 59148 
3656.706 43871 33731 28960 27435 26673 24751 20543 14612 8316 2617 -1557 
3662.010 -3942 -5500 -6825 -8117 -9012 -8548 -5135 1722 11994 23956 34924 
3667.314 40292 36217 18986 -13319 -57450 -106479 -150336 -178953 -186802 
3671.654 -174912 -148978 -119796 -98661 -94719 -113933 -155304 -209820 
3675.511 -262441 -298633 -310321 -299296 -274031 -244559 -218894 -201077 
3679.369 -190478 -183788 -177628 -168321 -155172 -138776 -120856 -102869 
3683.226 -85510 -68018 -49433 -30382 -12623 530 4837 -3412 -25214 -59173 
3688.048 -100119 -140863 -175276 -199321 -212834 -217801 -217073 -212834 
3691.905 -206276 -197202 -185908 -172660 -158649 -145202 -133708 -125261 
3695.763 -119564 -115887 -112740 -109229 -104425 -99324 -94719 -92831 -95415 
3700.102 -103597 -117543 -135530 -154310 -169944 -178986 -179251 -170143 
3703.960 -153217 -131058 -106314 -81733 -59007 -39096 -22795 -10503 -3147 
3708.299 -2485 -10039 -26705 -52282 -84682 -119067 -150932 -174680 -186603 
3712.639 -185974 -174283 -154443 -130561 -106181 -83920 -65964 -53640 -47511 
3716.979 -47511 -52944 -61658 -71762 -81634 -89518 -94951 -98297 -100119 
3721.318 -101113 -101709 -101709 -100682 -98198 -94322 -89750 -85311 -81700 
3725.658 -78884 -76566 -72723 -65732 -54667 -39593 -22000 -4506 10205 19582 
3730.479 22432 19019 10967 629 -10304 -21172 -33795 -50460 -73518 -102802 
3735.301 -135530 -165804 -187001 -193724 -184418 -160736 -126719 -86769 
3739.159 -44430 -2319 37741 73795 101899 117442 113366 83240 23857 -61094 
3743.980 -157358 -243102 -296249 -306282 -276746 -221742 -158351 -100483 
3747.838 -58709 -38102 -38864 -55959 -81999 -108599 -128938 -139770 -139703 
3752.177 -128375 -106479 -74909 -35783 7355 50002 87847 117111 135671 143195 
3756.999 141074 132059 119265 105014 91227 79263 70183 65544 66438 73431 
3761.821 85328 100507 115752 128579 137229 141704 143030 143891 145880 
3766.161 149692 154398 157547 156719 150388 138190 121950 104351 89073 78601 
3770.982 74723 77474 85792 98220 113167 128711 143726 156884 167392 174684 
3775.804 179192 180816 180220 177469 172762 166596 160000 154398 151780 
3780.144 153736 160729 171999 185424 198551 209192 215955 219038 219402 
3784.483 218872 218772 219435 220330 220098 218076 213932 208662 203590 
3788.823 200242 199479 201037 204319 208396 212175 215723 219170 222850 
3793.163 226132 228386 228287 224905 218341 209888 202098 198054 199280 
3797.502 205479 213833 219800 218341 205081 177833 138157 91824 47748 15672 
3802.324 1855 6792 26110 52620 78335 96927 104119 99048 84500 66240 51360 
3807.628 45727 52023 68460 91128 116514 141240 164342 186584 209092 232729 
3812.450 257328 280271 297645 305868 301723 285609 261771 238133 223480 
3816.789 223679 239260 265020 292937 312931 316611 298839 259284 203789 
3821.129 144786 96729 69918 68460 88443 122281 160365 194871 220927 236442 
3825.951 243139 244167 244266 246520 252156 260113 268336 274005 275862 
3830.290 274038 270325 267573 268866 276094 289820 308720 329908 349605 
3834.630 363964 369071 362306 342608 311273 272281 231768 196595 172596 
3838.969 162453 166066 179491 198054 216982 232663 243073 248410 249670 
3843.309 248874 248112 248874 252190 258655 268104 280139 294661 311571 
3847.649 330704 352821 377129 403262 428899 450492 461802 456064 425749 
3851.988 365522 276890 169414 62892 -20807 -66528 -70768 -40587 12458 75585 
3856.810 140444 200540 252223 294164 325929 347549 359951 364096 361377 
3861.150 353816 343238 331168 318468 305338 291876 279078 268435 262832 
3865.489 264622 274569 290715 309151 324205 329974 323210 303216 274635 
3869.829 245161 223878 216153 222817 239691 260876 280139 293932 301326 
3874.168 304741 307725 313726 324801 340320 357928 374012 385155 388604 
3878.508 383264 370298 352225 334119 321452 318435 327355 347516 374974 
3882.848 403627 427341 440077 438584 423792 400941 378224 364163 364428 
3887.187 379252 404489 432813 456628 470095 469597 455367 430657 402002 
3891.527 375571 357000 349074 352026 363964 382667 405517 430193 455201 
3895.866 478652 498953 514611 524331 527316 523767 514312 500214 483794 
3900.206 466280 449132 433012 418021 403660 389831 376632 364826 355574 
3904.546 350235 350003 355275 365522 379716 396663 414704 433045 450923 
3908.885 468270 484789 501110 516767 531596 545496 558070 569317 579304 
3913.225 587996 595163 600273 602164 600173 593571 582754 568786 553591 
3917.564 539127 527117 518459 513483 511758 512620 515739 519753 524132 
3921.904 527549 528809 527250 522705 516303 510033 506417 507910 515540 
3926.244 528876 545828 563412 579403 591779 599841 604221 605648 605217 
3930.583 603392 600306 595959 590717 585641 581958 580929 583484 589191 
3934.923 596723 604453 610891 615370 618323 620878 624362 630169 637900 
3939.262 647125 655952 662821 666339 666173 663054 658176 653364 649714 
3943.602 648220 648851 651340 654857 658872 662655 666239 669624 673341 
3947.942 677622 682998 689304 695941 702512 708220 712800 716385 719538 
3952.281 723321 728565 735734 744430 754321 764345 773473 781506 788609 
3956.621 795082 801954 809356 817423 825523 833258 839665 844844 848695 
3960.960 851384 853310 854771 855733 856364 856829 857460 859053 862241 
3965.300 867486 875089 884917 896073 907893 919315 929642 937943 943820 
3969.640 947207 948502 948270 947473 947506 949200 953351 959760 967962 
3973.979 976829 984599 990810 994695 996422 996688 996920 998182 1001271 
3978.319 1006618 1014190 1023223 1032921 1041889 1049130 1053514 1054444 
3982.176 1051920 1046572 1039398 1031327 1023556 1016714 1011068 1006784 
3986.034 1003629 1001636 1001038 1001869 1004359 1008378 1013559 1019072 
3989.891 1024153 1028039 1030298 1030929 1029633 1026910 1023190 1018773 
3993.749 1014024 1009607 1005854 1002898 1001238 1000507 1000308 1000474 
3997.606 1000440 1000042 999245 998448 997850 997750 997950 
##END=
