##TITLE=888_2_a
##JCAMP-DX=5.01  $$ Nicolet v. 1
##DATATYPE=INFRARED SPECTRUM
##ORIGIN=UniL
##OWNER=Nicolet
##LONGDATE=2011/09/28
##TIME=16:19:06
##SPECTROMETER/DATA SYSTEM=Nicolet iS5
##DATA PROCESSING=
Ratio against background
%Transmittance->Absorbance
Truncated
ElementMultiply or ElementDivide
##COMMENTS=
Number of sample scans: 32
Collection length: 51.19 sec
Sample gain: 2.0
Background collected on: Mer Sep 28 16:16:09 2011 (GMT+02:00);
Number of background scans: 32
Background gain: 2.0
Sample spacing:  1.000
Number of scan points: 12415
Resolution points: 8192
Number of FFT points: 65536
Apodization: N-B fort;
Phase correction: Mertz;
Laser frequency: 15798.0 cm-1
Number of rejected sample scans: 0
Number of rejected background scans: 0
Bench serial number: ASB1000141;
##RESOLUTION=4.000
##XUNITS=1/CM
##YUNITS=ABSORBANCE
##FIRSTX=649.893372
##LASTX=4000.122314
##FIRSTY=0.116301
##MAXX=4000.122314
##MINX=649.893372
##MAXY=0.258541
##MINY=-0.004960
##XFACTOR=1.000000
##YFACTOR=1.000000E-009
##NPOINTS=6950
##DELTAX=0.482117
##ZPD=6100
##XYDATA=(X++(Y..Y))
649.893 116301144 115142576 114045608 113049344 112164480 111389360 
652.786 110723136 110176120 109768592 109519256 109431392 109486040 
655.679 109643688 109861216 110106568 110369648 110661576 111001704 
658.571 111402424 111858856 112350736 112852904 113352752 113855896 
661.464 114384976 114964832 115610568 116315224 117053728 117792184 
664.357 118503904 119175600 119803096 120384112 120906544 121346840 
667.250 121680440 121911008 122091096 122297216 122594544 123000880 
670.142 123486664 123996632 124471400 124870128 125175592 125400168 
673.035 125573384 125723440 125857040 125953112 125970216 125870096 
675.928 125637544 125289576 124866160 124410944 123951664 123488168 
678.820 122999296 122458968 121854112 121193424 120501640 119803656 
681.713 119111512 118417848 117703232 116949480 116154176 115333192 
684.606 114515392 113727368 112979368 112263080 111558968 110850016 
687.498 110134320 109428704 108761952 108162264 107643968 107202760 
690.391 106820680 106478816 106166712 105888064 105657008 105490704 
693.284 105400776 105390984 105460584 105612344 105856648 106213464 
696.177 106703952 107341168 108122864 109031160 110039920 111123264 
699.069 112266208 113467880 114734600 116070936 117471232 118914752 
701.962 120372832 121818056 123232464 124612328 125962200 127283872 
704.855 128567992 129790280 130918040 131924672 132798536 133548736 
707.747 134198088 134772896 135289040 135748960 136146768 136478464 
710.640 136752400 136991984 137227696 137484400 137773216 138086656 
713.533 138406672 138717040 139015152 139315072 139640592 140010784 
716.425 140429280 140878864 141330592 141753504 142130144 142462576 
719.318 142768256 143068112 143374624 143686064 143990496 144275360 
722.211 144536320 144780976 145023824 145277232 145541888 145805744 
725.104 146050096 146261312 146439392 146601248 146771392 146972080 
727.996 147212672 147485776 147773728 148059360 148336672 148612832 
730.889 148903152 149220496 149566816 149931248 150296800 150650400 
733.782 150992048 151335376 151700592 152102192 152539120 152993184 
736.674 153438192 153851376 154225184 154569808 154907072 155258496 
739.567 155633376 156025568 156418592 156797424 157156704 157504032 
742.460 157854368 158220288 158602096 158987936 159357792 159695504 
745.352 159997984 160275840 160546384 160823472 161108464 161388624 
748.245 161644928 161861376 162035392 162178512 162310384 162446256 
751.138 162590928 162735152 162865200 162970016 163050752 163118624 
754.031 163190016 163273776 163365728 163448608 163501760 163512768 
756.923 163484464 163434464 163384800 163351152 163332176 163310608 
759.816 163261376 163165568 163018880 162833920 162630864 162426864 
762.709 162226848 162021904 161795488 161534048 161235920 160910784 
765.601 160574336 160237216 159899776 159551168 159178064 158772320 
768.494 158338256 157890736 157448816 157024304 156617616 156218528 
771.387 155815488 155405088 154998112 154616256 154283312 154014016 
774.279 153804480 153631888 153458528 153243280 152940688 152501936 
777.172 151870864 150972528 149717920 148020032 145802832 143029232 
780.065 139710672 135905584 131706000 127217784 122553376 117813560 
782.958 113089448 108466960 104017624 99800032 95855888 92203080 88839832 
786.332 85749200 82908336 80293856 77887032 75674368 73642984 71778320 
789.707 70062464 68474960 66995800 65610520 64308980 63085796 61936780 
793.082 60855588 59832604 58856640 57917168 57008056 56128744 55282816 
796.457 54474108 53704620 52971528 52268968 51590188 50930396 50288340 
799.832 49665736 49064752 48485128 47923704 47374752 46832916 46295220 
803.206 45762608 45239400 44730704 44239732 43766988 43310420 42867164 
806.581 42435764 42016908 41612896 41225328 40853172 40492652 40137660 
809.956 39782272 39423248 39061228 38699728 38343228 37994872 37655720 
813.331 37324452 36999492 36680516 36369444 36069936 35785060 35515728 
816.706 35259496 35010996 34764468 34515788 34263480 34009420 33757552 
820.081 33511378 33273068 33043254 32821462 32607284 32401382 32204610 
823.455 32017450 31839036 31666536 31496104 31324312 31149918 30974314 
826.830 30801412 30635192 30478810 30333394 30197544 30068874 29945568 
830.205 29826910 29713358 29606292 29506274 29412660 29324384 29239776 
833.580 29158552 29081204 29009254 28943408 28883026 28825378 28766994 
836.955 28705008 28638570 28569986 28503640 28445016 28398110 28364542 
840.329 28342860 28329808 28321852 28316228 28311878 28308942 28308376 
843.704 28311206 28318490 28331614 28352198 28382722 28425134 28480146 
847.079 28546488 28620486 28698140 28775172 28849704 28922264 28995722 
850.454 29073126 29156710 29246688 29341152 29437728 29534680 29632186 
853.829 29732836 29840750 29960406 30095686 30249584 30423758 30619690 
857.204 30838582 31080756 31346250 31634178 31943298 32273274 32624998 
860.578 33002462 33411708 33860128 34354236 34899388 35498900 36155524 
863.953 36873448 37659548 38524988 39484648 40554452 41751420 43092976 
867.328 44595780 46279776 48169448 50292060 52680212 55366820 58378516 
870.703 61731584 65423920 69429456 73685304 78087240 82489464 86686392 
874.078 90436600 93485520 95577256 96517968 96201736 94629512 91909416 
877.452 88236528 83868272 79066416 74087680 69160000 64451472 60086784 
880.827 56141260 52644640 49597088 46977136 44753184 42888780 41348780 
884.202 40102588 39121412 38378880 37851040 37513480 37344960 37327664 
887.577 37448136 37699232 38078560 38587524 39229364 40008700 40931992 
890.952 42008112 43250676 44678920 46316008 48190808 50334100 52774748 
894.327 55539580 58645048 62089048 65836720 69806080 73862056 77794128 
897.701 81342832 84226736 86162024 86937208 86440784 84684904 81800928 
901.076 78018520 73635912 68950984 64249852 59774236 55688340 52099444 
904.451 49054104 46551368 44561012 43034840 41922496 41172648 40742416 
907.826 40599304 40719164 41087084 41695864 42542676 43626720 44944664 
911.201 46484028 48217656 50094528 52031308 53920756 55628908 57007980 
914.575 57927992 58282752 58013532 57118656 55652484 53719128 51448088 
917.950 48989788 46488048 44059676 41798660 39762732 37977876 36447884 
921.325 35159140 34089264 33211042 32498394 31926896 31473872 31120514 
924.700 30849894 30647246 30500778 30400802 30339362 30311008 30311008 
928.075 30335384 30380900 30444158 30522566 30614500 30718722 30835098 
931.450 30963174 31102468 31251848 31409968 31575378 31746984 31924114 
934.824 32106418 32293796 32485858 32682150 32882358 33086446 33295390 
938.199 33510302 33732844 33963984 34204004 34452292 34708084 34971172 
941.574 35242216 35523028 35815396 36120920 36439992 36771632 37114172 
944.949 37466524 37828300 38201196 38587704 38990760 39412876 39854576 
948.324 40315084 40791660 41280312 41774364 42265432 42742912 43193980 
951.698 43605692 43967896 44274772 44527312 44732284 44902260 45052236 
955.073 45196196 45347412 45515680 45708048 45929712 46183840 46471892 
958.448 46793352 47146112 47526360 47930288 48355148 48799588 49264012 
961.823 49749620 50257352 50786904 51337352 51907356 52496844 53107276 
965.198 53741928 54404660 55098688 55825848 56586160 57379532 58206480 
968.573 59069740 59972948 60920928 61917100 62963248 64059800 65207220 
971.947 66407480 67665768 68989616 70387304 71866152 73430496 75081576 
975.322 76819424 78644832 80560936 82574120 84692152 86923680 89277008 
978.697 91761104 94388968 97180264 100162672 103372736 106849240 110629472 
982.072 114743568 119207552 124020344 129156176 134562992 140148176 
984.964 145765136 151224224 156273168 160620368 163985024 166106576 
987.857 166803232 166003632 163753232 160213648 155630096 150326672 
990.750 144648272 138924992 133469480 128523040 124256176 120774944 
993.643 118116576 116270352 115193600 114829760 115118392 116001728 
996.535 117432280 119365408 121758800 124573840 127768040 131295784 
999.428 135108336 139138880 143298656 147473760 151508640 155222912 
1002.321 158431264 160950576 162642192 163428864 163306352 162346240 
1005.213 160689536 158540656 156126432 153690144 151469200 149653936 
1008.106 148396400 147797664 147906256 148735680 150273568 152497120 
1010.999 155378784 158892192 163014720 167719376 172975776 178749856 
1013.891 184995824 191657616 198659712 205881472 213151536 220227984 
1016.784 226780336 232441360 236827648 239597984 240541904 239610752 
1019.677 236954496 232888560 227884896 222506208 217296768 212783728 
1022.570 209390192 207388432 206922656 207990448 210475296 214160672 
1025.462 218776368 224035840 229629936 235273808 240706160 245678528 
1028.355 249989312 253483200 256066352 257722016 258506800 258541024 
1031.249 257972304 256964240 255670368 254208352 252665728 251084752 
1034.142 249460016 247734688 245804720 243539760 240790896 237431712 
1037.035 233385584 228634496 223226256 217257152 210857760 204162384 
1039.928 197298768 190387008 183525920 176802832 170294048 164058592 
1042.821 158148320 152609520 147484416 142822720 138680928 135114800 
1045.714 132181864 129927712 128378376 127541320 127404048 127940160 
1048.607 129112944 130882608 133208736 136045776 139345664 143055152 
1051.500 147112192 151456416 156027984 160767104 165616352 170506448 
1054.393 175342576 180006320 184340832 188162592 191293216 193563424 
1057.286 194846384 195077280 194256640 192459360 189824224 186563280 
1060.179 182934928 179215664 175702592 172658704 170299632 168794624 
1063.072 168243440 168688880 170119984 172480240 175668528 179536352 
1065.965 183908560 188569040 193276400 197802000 201923456 205454816 
1068.858 208264272 210257824 211381632 211611040 210943408 209398240 
1071.751 207017952 203871616 200049584 195656160 190814416 185653136 
1074.645 180313152 174958928 169761680 164905616 160581472 156953072 
1077.538 154162608 152314336 151459248 151596896 152663472 154537072 
1080.431 157020448 159850400 162731584 165328640 167330944 168505600 
1083.324 168717120 167970720 166400640 164259696 161858672 159522432 
1086.217 157571280 156257600 155765008 156199536 157577568 159832400 
1089.110 162813568 166316720 170079104 173808304 177232224 180092400 
1092.003 182180704 183356928 183535984 182695360 180866464 178131008 
1094.896 174608048 170435168 165764784 160735248 155462272 150044080 
1097.789 144555136 139058544 133616744 128287640 123129504 118197656 
1100.682 113535304 109177944 105153896 101484488 98192080 95300696 92833344 
1104.057 90814824 89266792 88205384 87643664 87590720 88052448 89033184 
1107.433 90533936 92550120 95067904 98061664 101491888 105299888 109414000 
1110.808 113743728 118174992 122579872 126806248 130682232 134042768 
1113.701 136729840 138618032 139634976 139760032 139027008 137508832 
1116.594 135313264 132565528 129391816 125922648 122273240 118535336 
1119.487 114780256 111051624 107371968 103753352 100205656 96744912 93399768 
1122.862 90207424 87213664 84469080 82019392 79909192 78178312 76858112 
1126.238 75975208 75547584 75583104 76078904 77020008 78380832 80122552 
1129.613 82195760 84541816 87084640 89735528 92393592 94941064 97264736 
1132.988 99266600 100877528 102076904 102895736 103416504 103750448 
1135.881 104027680 104375160 104887248 105622568 106588704 107744136 
1138.774 108997688 110220792 111273288 112004416 112283840 112017112 
1141.667 111144320 109646504 107537296 104855696 101657552 98011920 94003800 
1145.042 89724488 85272128 80750000 76249800 71855288 67638664 63653296 
1148.418 59941456 56533472 53446012 50686692 48252976 46135200 44317076 
1151.793 42779332 41502420 40466972 39656280 39056664 38656912 38448092 
1155.168 38423512 38578328 38910192 39419660 40110332 40988248 42061184 
1158.543 43337288 44822720 46521128 48432080 50550880 52866316 55358844 
1161.919 58000276 60747084 63540556 66311704 68975680 71443376 73629400 
1165.294 75449728 76833712 77727464 78093472 77917848 77210864 76007456 
1168.669 74360720 72336904 70010768 67451504 64725520 61893716 59006880 
1172.044 56112304 53251648 50457864 47760008 45180164 42733076 40430056 
1175.420 38278016 36280064 34436616 32744922 31199260 29791846 28513512 
1178.795 27354904 26307226 25363294 24518056 23767192 23107738 22536242 
1182.170 22048700 21640060 21304632 21036406 20830082 20681082 20585946 
1185.545 20542278 20548080 20601824 20702212 20848192 21039362 21275890 
1188.921 21558920 21889980 22271442 22706340 23198498 23753158 24376968 
1192.296 25077912 25864842 26747206 27733532 28831608 30048138 31388346 
1195.671 32855376 34448452 36161068 37976252 39863800 41780744 43665408 
1199.046 45442684 47031628 48342112 49290324 49808404 49847684 49393708 
1202.422 48466940 47126240 45456076 43559064 41547044 39519412 37563548 
1205.797 35749156 34121808 32710016 31525496 30566930 29823716 29278694 
1209.172 28912562 28704086 28632908 28682352 28837628 29087404 29423048 
1212.547 29836352 30319288 30863414 31458948 32095716 32763216 33449282 
1215.923 34140876 34822948 35477580 36086820 36632100 37095948 37464248 
1219.298 37724744 37867124 37883612 37767936 37517056 37132040 36619804 
1222.673 35993256 35270136 34473776 33629972 32764788 31906034 31078514 
1226.048 30303832 29600084 28979500 28448730 28009286 27658346 27390226 
1229.424 27197652 27073712 27011718 27005902 27050544 27140016 27267644 
1232.799 27426932 27611946 27818166 28043638 28288466 28554840 28845490 
1236.174 29163514 29511664 29892038 30307066 30758624 31248712 31778320 
1239.549 32347120 32952520 33589228 34249676 34923480 35596928 36254244 
1242.925 36876732 37444524 37940232 38350504 38670532 38905516 39070944 
1246.300 39189728 39287284 39390668 39522496 39699996 39935644 40236340 
1249.675 40604728 41039556 41536472 42087796 42683504 43312832 43965880 
1253.050 44634300 45313424 46001060 46696640 47401100 48115440 48840484 
1256.426 49575804 50318252 51058092 51777172 52443304 53012104 53430872 
1259.801 53640468 53589220 53240560 52577056 51605600 50355008 48875008 
1263.176 47225116 45473548 43690400 41935740 40260808 38703096 37283144 
1266.551 36010032 34882152 33891976 33028346 32278910 31631894 31075382 
1269.927 30597648 30187918 29834788 29528332 29260050 29022786 28810966 
1273.302 28620060 28445758 28283692 28129532 27979494 27831026 27683206 
1276.677 27536534 27392310 27251450 27113880 26977976 26840740 26698404 
1280.052 26547096 26383166 26203320 26004866 25785652 25544832 25283424 
1283.427 25005712 24718916 24433292 24162218 23919844 23720228 23577616 
1286.803 23504506 23512552 23613370 23817312 24134756 24575450 25147354 
1290.178 25856612 26705416 27690588 28800380 30011566 31289164 32581032 
1293.553 33823168 34946712 35880060 36565552 36966916 37073828 36903856 
1296.928 36497940 35916120 35222232 34480416 33748420 33068892 32471970 
1300.304 31974364 31579976 31283322 31071502 30928022 30833710 30769580 
1303.679 30719290 30667728 30602838 30515742 30399452 30250472 30068874 
1307.054 29858212 29625696 29381000 29135768 28901512 28689186 28508698 
1310.429 28368468 28275912 28237968 28260140 28347492 28503392 28729894 
1313.805 29028064 29397982 29840432 30356312 30947164 31614718 32360184 
1317.180 33184934 34089660 35075724 36144036 37295024 38526040 39829912 
1320.555 41192464 42589752 43990112 45350980 46619760 47741516 48658952 
1323.930 49322764 49704368 49802608 49652548 49318796 48895216 48485092 
1327.306 48179704 48053332 48146384 48464084 48981664 49654400 50430400 
1330.681 51256888 52093168 52912200 53701468 54464228 55216628 55985448 
1334.056 56800684 57691196 58677588 59765640 60944492 62185236 63447864 
1337.431 64680412 65825648 66828088 67630576 68183424 68450448 68411504 
1340.807 68068568 67442376 66569008 65490684 64250728 62892772 61454684 
1344.182 59970708 58471048 56976584 55500612 54047876 52617412 51207004 
1347.557 49819144 48463900 47162952 45947648 44853136 43919136 43182344 
1350.932 42673780 42420528 42443548 42757468 43372508 44291800 45509312 
1354.308 47004160 48738828 50654412 52667080 54680444 56586272 58272484 
1357.683 59642848 60616200 61137640 61187188 60781492 59976372 58855732 
1361.058 57535772 56147596 54817860 53666600 52781036 52204020 51933012 
1364.433 51922148 52096492 52358180 52607684 52751704 52710440 52436912 
1367.809 51921472 51196416 50325544 49392668 48484352 47668148 46993604 
1371.184 46487568 46158820 46005440 46019880 46192500 46510432 46957088 
1374.559 47511832 48149348 48844044 49572760 50315128 51054404 51775680 
1377.934 52462856 53101096 53676720 54179048 54601800 54940800 55192360 
1381.310 55352028 55414772 55378188 55245040 55024288 54729040 54371612 
1384.685 53960976 53502228 52999600 52463868 51917888 51395796 50939448 
1388.060 50584492 50351068 50240204 50235964 50311368 50432744 50566664 
1391.435 50677832 50727096 50674220 50475056 50089244 49492876 48687456 
1394.811 47705312 46597144 45417300 44203672 42971516 41721360 40453660 
1398.186 39182580 37946524 36800664 35800136 34984744 34365568 33929052 
1401.561 33648052 33495844 33453110 33510480 33666060 33920060 34269932 
1404.936 34708584 35225504 35809852 36453364 37150340 37895832 38683900 
1408.312 39505656 40349696 41204780 42060932 42911856 43754852 44588400 
1411.687 45409724 46213800 46992788 47739740 48451896 49131828 49788080 
1415.062 50431068 51069052 51704644 52333696 52947944 53540568 54110812 
1418.437 54667820 55224192 55792012 56371180 56946512 57492684 57981120 
1421.813 58387688 58692720 58884984 58961452 58928092 58798404 58591236 
1425.188 58326976 58021712 57685140 57321148 56928644 56505812 56053676 
1428.563 55578440 55093684 54619120 54176120 53785088 53461228 53211156 
1431.938 53033256 52917664 52848540 52803900 52757952 52682572 52547324 
1435.313 52327348 52011288 51611872 51165732 50720656 50314344 49958264 
1438.689 49637648 49320056 48970648 48559824 48071316 47505696 46876836 
1442.064 46205728 45510896 44804608 44091364 43370240 42638840 41894904 
1445.439 41136656 40362168 39570980 38767248 37965076 37190296 36478084 
1448.814 35866960 35387704 35061712 34901252 34911412 35093576 35442020 
1452.190 35940952 36559532 37248884 37950068 38586292 39067284 39296460 
1455.565 39175472 38643696 37718056 36520068 35231468 34013756 32956454 
1458.940 32071206 31329084 30694788 30144020 29665852 29256790 28912668 
1462.315 28625616 28385622 28185816 28028758 27930162 27912180 27994972 
1465.691 28183588 28463590 28803354 29161528 29496734 29766334 29930978 
1469.066 29953556 29792594 29405178 28750780 27803788 26573796 25122848 
1472.441 23566666 22035872 20634936 19410430 18354000 17427112 16589038 
1475.816 15815940 15102567 14456199 13883652 13384024 12945557 12550878 
1479.192 12183036 11831473 11493224 11170844 10868304 10587432 10327101 
1482.567 10084526 9857473 9645548 9449640 9269121 9101027 8938983 8775885 
1486.424 8605920 8428385 8247176 8068776 7898311 7736851 7581250 7428570 
1490.282 7278842 7138057 7015434 6919138 6851172 6806102 6772042 6734923 
1494.139 6682429 6607468 6509884 6396987 6279851 6168258 6067009 5975895 
1497.997 5892525 5815652 5746515 5688030 5642645 5610254 5588001 5571824 
1501.854 5558231 5545747 5534203 5522893 5509068 5485108 5439845 5361911 
1505.711 5247167 5106369 4966018 4857945 4800284 4791540 4815227 4852182 
1509.569 4886192 4908309 4916754 4914308 4906164 4896648 4888337 4881066 
1513.426 4873158 4862637 4847793 4827254 4800653 4768391 4732682 4697980 
1517.284 4669779 4652464 4647005 4649249 4650387 4638532 4603838 4543699 
1521.141 4467834 4395330 4347468 4335989 4358881 4403463 4452937 4493679 
1524.999 4518119 4526925 4527427 4529770 4541087 4563085 4592485 4624734 
1528.856 4656885 4689071 4723839 4763199 4805912 4847424 4880094 4897217 
1532.713 4897452 4888036 4883880 4899362 4942927 5012305 5098323 5188112 
1536.571 5269604 5334371 5376538 5393982 5387272 5360737 5321860 5281678 
1540.428 5253639 5249246 5275070 5330581 5408475 5497524 5585886 5665740 
1544.286 5734998 5798224 5863238 5937869 6025044 6122319 6222841 6318815 
1548.143 6405259 6481262 6550953 6621161 6698547 6785874 6881333 6979809 
1552.000 7076017 7167026 7253438 7339192 7429918 7529935 7640327 7757932 
1555.858 7875839 7985712 8077923 8143482 8177921 8187847 8196052 8233128 
1559.715 8324750 8476902 8677441 8907157 9147553 9385136 9609638 9816327 
1563.573 10005550 10182034 10353093 10526765 10708080 10897115 11089563 
1566.948 11277846 11454644 11613953 11753166 11874410 11983937 12090902 
1570.323 12203073 12325875 12460508 12604530 12752626 12897530 13030668 
1573.698 13141101 13217745 13251870 13240632 13191786 13122626 13055900 
1577.074 13007212 12980754 12968360 12956652 12930810 12878962 12794904 
1580.449 12677565 12530177 12357884 12165895 11957438 11734204 11497647 
1583.824 11250234 10996370 10741567 10490885 10246555 10009144 9776811 
1587.199 9548294 9323723 9105289 8896301 8699379 8515860 8344983 8185078 
1591.057 8035157 7894937 7765151 7646161 7536914 7434941 7336362 7238310 
1594.914 7139539 7040825 6944827 6853596 6767431 6684481 6601648 6516341 
1598.772 6427756 6337575 6248589 6163688 6083742 6007104 5930950 5852928 
1602.629 5772772 5692831 5617269 5549808 5491954 5442428 5397437 5353290 
1606.487 5307738 5261185 5215643 5174096 5137951 5106637 5078443 5051557 
1610.344 5026115 5004629 4990921 4988273 4997490 5016159 5038651 5058429 
1614.201 5068251 5063458 5041199 5003490 4955964 4909013 4873995 4859856 
1618.059 4871282 4907974 4965549 5036406 5111163 5180836 5236468 5273158 
1621.916 5290800 5295597 5297878 5308711 5335914 5381167 5441153 5509672 
1625.774 5581456 5652245 5720159 5784389 5845540 5904280 5962122 6021786 
1629.631 6086733 6160495 6245833 6342853 6449312 6559834 6667355 6764369 
1633.489 6844103 6902373 6939709 6962839 6983614 7016108 7072448 7156516 
1637.346 7266375 7394967 7533812 7674691 7810320 7936711 8053045 8162389 
1641.203 8270511 8383726 8506094 8637386 8772876 8904418 9022805 9118994 
1645.061 9188196 9231043 9255683 9275247 9304562 9356764 9438906 9551444 
1648.918 9689828 9845983 10008094 10158766 10277021 10335211 10307760 
1652.293 10186139 9999142 9812192 9689828 9660793 9710158 9803482 9906386 
1656.151 9995854 10061601 10101855 10121457 10127020 10123595 10111927 
1659.526 10088493 10046715 9980223 9884928 9760986 9613026 9450013 9283236 
1663.384 9123629 8979776 8856565 8753672 8666861 8587670 8505419 8407339 
1667.241 8281554 8120020 7921728 7694151 7452300 7215097 6998800 6812766 
1671.098 6659078 6533025 6426209 6327186 6223412 6101652 5950735 5766963 
1674.956 5557594 5341751 5142343 4977246 4851278 4757102 4679726 4603670 
1678.813 4518990 4423680 4324076 4230616 4151929 4088107 4029009 3954237 
1682.671 3840433 3670082 3445055 3192206 2955717 2772274 2653445 2588042 
1686.528 2553811 2530548 2503553 2465597 2414883 2352948 2282894 2207623 
1690.385 2131533 2059517 1997100 1948704 1914756 1890462 1864572 1822246 
1694.243 1748652 1637120 1495193 1347628 1225234 1148850 1120048 1122340 
1698.100 1130446 1116593 1059393 952653 812344 673109 568687 515606 508076 
1702.440 528743 557904 580365 587001 573862 542577 499186 452084 408734 
1706.780 374178 350301 336275 329676 327454 327189 327321 327719 329278 
1711.119 333555 341447 352623 365688 378423 388770 395535 398686 398321 
1715.459 393711 383132 363831 334782 299038 264622 242807 242542 268037 
1719.798 316711 382203 455898 529838 599410 662888 721728 779415 839831 
1724.138 905735 978256 1057666 1143900 1237960 1340516 1452670 1574663 
1727.995 1706171 1846370 1995469 2154608 2325398 2509186 2705187 2910750 
1731.853 3120582 3328712 3531197 3729799 3933206 4153133 4400719 4679224 
1735.710 4983480 5304284 5632575 5961585 6286407 6604878 6916715 7222610 
1739.568 7524406 7822600 8116947 8405211 8684336 8950043 9199567 9430678 
1743.425 9643142 9837612 10015112 10175861 10319161 10442958 10545063 
1746.800 10624645 10681625 10717114 10732023 10725842 10696703 10642098 
1750.176 10561630 10459182 10343864 10228406 10124205 10037119 9965543 
1753.551 9900996 9830121 9737774 9611501 9444155 9236965 8999633 8747857 
1757.408 8497647 8257914 8029284 7803708 7568235 7308696 7014794 6683371 
1761.266 6319992 5938306 5556016 5189286 4847760 4533654 4242461 3966141 
1765.123 3695044 3419907 3134699 2837238 2531681 2227006 1935790 1669183 
1768.980 1432491 1223506 1032623 847301 654923 448402 231105 15208 -183026 
1773.320 -350780 -483653 -586837 -669520 -741866 -811092 -879348 -946039 
1777.177 -1009017 -1066731 -1119976 -1171363 -1223868 -1279142 -1336358 
1780.553 -1391980 -1441949 -1483888 -1517568 -1545501 -1571385 -1598191 
1783.928 -1627538 -1658963 -1690781 -1721112 -1748999 -1773914 -1795989 
1787.303 -1814368 -1827897 -1835122 -1836343 -1833506 -1830833 -1834232 
1790.678 -1849013 -1877221 -1916875 -1960813 -2000821 -2029481 -2044058 
1794.054 -2046433 -2041387 -2033967 -2028030 -2026018 -2028426 -2035253 
1797.429 -2046466 -2062394 -2083532 -2109647 -2139125 -2169457 -2197381 
1800.804 -2220193 -2236643 -2247092 -2252992 -2256190 -2257739 -2258167 
1804.179 -2257442 -2255728 -2253882 -2252861 -2253882 -2257377 -2263244 
1807.555 -2270660 -2278702 -2287041 -2295974 -2306092 -2318352 -2332623 
1810.930 -2347914 -2362382 -2374739 -2384361 -2392501 -2400805 -2411316 
1814.305 -2425155 -2441662 -2458729 -2473292 -2482385 -2484098 -2478266 
1817.680 -2466274 -2450361 -2433326 -2417280 -2404034 -2394676 -2389469 
1821.056 -2388118 -2390392 -2395203 -2401925 -2410426 -2420608 -2432503 
1824.431 -2445781 -2459026 -2469733 -2475762 -2475334 -2468745 -2458499 
1827.806 -2449207 -2445682 -2452173 -2469338 -2494245 -2521093 -2542769 
1831.181 -2554463 -2555088 -2546886 -2534270 -2521456 -2511672 -2505676 
1834.557 -2502876 -2501789 -2501426 -2501295 -2501920 -2503699 -2506862 
1837.932 -2510453 -2512825 -2512759 -2509432 -2503436 -2496254 -2489863 
1841.307 -2485811 -2485547 -2489896 -2499087 -2512265 -2528209 -2544152 
1844.682 -2557197 -2564443 -2564443 -2557230 -2544679 -2529856 -2516053 
1848.058 -2505511 -2499186 -2496485 -2495925 -2495727 -2495266 -2495002 
1851.433 -2495793 -2498132 -2501789 -2504852 -2505050 -2500866 -2492235 
1854.808 -2480605 -2468745 -2459125 -2452897 -2449438 -2447428 -2445122 
1858.183 -2442750 -2441728 -2444496 -2453458 -2469107 -2489336 -2510618 
1861.559 -2528571 -2540167 -2544317 -2542406 -2536510 -2528670 -2519973 
1864.934 -2510090 -2498923 -2486964 -2475696 -2467921 -2466604 -2472567 
1868.309 -2484493 -2498560 -2509992 -2514966 -2512495 -2503765 -2491543 
1871.684 -2478431 -2465977 -2454281 -2442914 -2431284 -2419652 -2408878 
1875.060 -2400179 -2394214 -2390721 -2388283 -2385449 -2381791 -2376947 
1878.435 -2372004 -2367852 -2364458 -2360470 -2354407 -2344421 -2329986 
1881.810 -2312486 -2294260 -2277615 -2264232 -2253817 -2244389 -2233841 
1885.185 -2220754 -2205194 -2189403 -2176578 -2169160 -2169160 -2176348 
1888.561 -2189337 -2205326 -2222105 -2237599 -2250883 -2261596 -2269803 
1891.936 -2275769 -2280186 -2284174 -2288689 -2294688 -2302335 -2310574 
1895.311 -2317759 -2321615 -2321055 -2316144 -2308432 -2300028 -2292447 
1898.686 -2286217 -2280878 -2274747 -2267067 -2257805 -2248312 -2240631 
1902.062 -2236873 -2237467 -2242181 -2248839 -2255728 -2261596 -2265485 
1905.437 -2267430 -2267430 -2264694 -2258167 -2246927 -2231204 -2212579 
1908.812 -2194183 -2179051 -2169886 -2167083 -2169820 -2175425 -2182183 
1912.187 -2188678 -2194645 -2201040 -2207732 -2214952 -2222501 -2230149 
1915.563 -2239115 -2251773 -2270660 -2297028 -2329854 -2364556 -2394247 
1918.938 -2414084 -2421399 -2418862 -2412601 -2410064 -2417115 -2435699 
1922.313 -2462584 -2490423 -2512166 -2521785 -2518162 -2504490 -2486371 
1925.688 -2469074 -2456555 -2449504 -2447132 -2447560 -2448845 -2450031 
1929.063 -2450492 -2450229 -2447856 -2442980 -2434974 -2424727 -2413985 
1932.439 -2405286 -2399783 -2398597 -2401002 -2405879 -2412832 -2422058 
1935.814 -2434611 -2451711 -2473127 -2497012 -2519710 -2537333 -2547051 
1939.189 -2549093 -2545766 -2540397 -2536609 -2535456 -2535917 -2535423 
1942.564 -2531931 -2524618 -2514768 -2505248 -2498363 -2494278 -2491675 
1945.940 -2487689 -2479683 -2466373 -2448581 -2428153 -2406736 -2386470 
1949.315 -2366929 -2348705 -2332689 -2320890 -2316045 -2320824 -2335556 
1952.690 -2358427 -2386009 -2414183 -2440970 -2467526 -2496979 -2533809 
1956.065 -2580155 -2634894 -2691536 -2741849 -2776123 -2787087 -2772930 
1959.441 -2735264 -2680011 -2615068 -2547216 -2483735 -2430954 -2392962 
1962.816 -2372268 -2368709 -2378199 -2393753 -2408218 -2415929 -2414446 
1966.191 -2406208 -2396158 -2389897 -2390820 -2398004 -2408680 -2420114 
1969.566 -2430855 -2443442 -2461200 -2487689 -2522642 -2562137 -2597578 
1972.942 -2621193 -2629130 -2620897 -2600115 -2571196 -2534698 -2485119 
1976.317 -2414347 -2314134 -2182447 -2026942 -1864222 -1713059 -1591457 
1979.692 -1509214 -1467113 -1458758 -1473882 -1503271 -1540647 -1582973 
1983.067 -1630047 -1681309 -1735138 -1787740 -1834990 -1873559 -1901436 
1986.443 -1919448 -1928684 -1931356 -1929014 -1923571 -1916809 -1911003 
1989.818 -1907704 -1907902 -1910574 -1912850 -1911399 -1903679 -1890021 
1993.193 -1873823 -1861088 -1857129 -1865872 -1886096 -1914236 -1943924 
1996.568 -1969290 -1987265 -1997721 -2003592 -2008341 -2015828 -2027404 
1999.944 -2043761 -2064966 -2090160 -2119737 -2153698 -2191051 -2228039 
2003.319 -2260310 -2281999 -2287404 -2274220 -2241159 -2191051 -2128310 
2006.694 -2057447 -1983868 -1913312 -1849079 -1793811 -1748801 -1712399 
2010.069 -1680219 -1648995 -1614862 -1577426 -1538930 -1503040 -1474014 
2013.445 -1454729 -1443964 -1438283 -1434915 -1430490 -1425932 -1424743 
2016.820 -1432339 -1451889 -1484812 -1526846 -1571583 -1612387 -1643449 
2020.195 -1662330 -1669789 -1668139 -1658765 -1643020 -1621200 -1593570 
2023.570 -1562207 -1530742 -1502940 -1482534 -1471967 -1470415 -1475566 
2026.946 -1484977 -1495148 -1504624 -1511492 -1513540 -1508224 -1492308 
2030.321 -1464603 -1426295 -1382600 -1340520 -1308379 -1291432 -1291035 
2033.696 -1303787 -1325160 -1347820 -1367374 -1381610 -1390131 -1393434 
2037.071 -1391815 -1384979 -1371866 -1353699 -1333055 -1313631 -1299756 
2040.447 -1294140 -1295726 -1301970 -1307949 -1308775 -1302631 -1289053 
2043.822 -1270487 -1249177 -1227701 -1205597 -1181574 -1152263 -1113597 
2047.197 -1063194 -999397 -922994 -838309 -753542 -678617 -625021 -601893 
2051.054 -612448 -653342 -714576 -781557 -838309 -873792 -883316 -870618 
2054.912 -846577 -823725 -812977 -819658 -842642 -875413 -911322 -942567 
2058.769 -965413 -979099 -984091 -981480 -972686 -957610 -937343 -913141 
2062.627 -887350 -862219 -838938 -816979 -794655 -770444 -744049 -716462 
2066.484 -691321 -672199 -661282 -659132 -663664 -672001 -681264 -690560 
2070.342 -699558 -709879 -722185 -735615 -748250 -757181 -760125 -756652 
2074.199 -748118 -736772 -724831 -713154 -700517 -685168 -665318 -640273 
2078.056 -611257 -580815 -551232 -524658 -501988 -483090 -467302 -454096 
2081.914 -443140 -434501 -427384 -421161 -415004 -408085 -400736 -394513 
2085.771 -391434 -393917 -402789 -418016 -438076 -460981 -485970 -513075 
2089.629 -543720 -579558 -621447 -668064 -716297 -760852 -796209 -817739 
2093.486 -822865 -811092 -783806 -744976 -698930 -650794 -605665 -567116 
2097.344 -537565 -517047 -503180 -492688 -482097 -469520 -455155 -441584 
2101.201 -431985 -429138 -434037 -445027 -458597 -471705 -481104 -486499 
2105.058 -489379 -491596 -494873 -500036 -505993 -511255 -514564 -515855 
2108.916 -515690 -516054 -517874 -521481 -527041 -533594 -541205 -550769 
2112.773 -564005 -582139 -606194 -635542 -668395 -702238 -735019 -764888 
2116.631 -791380 -814267 -833779 -850082 -863640 -874520 -884671 -895649 
2120.488 -909570 -926961 -947163 -967925 -986372 -1000422 -1009480 -1015000 
2124.345 -1019992 -1027297 -1038867 -1055328 -1076448 -1101501 -1131609 
2127.721 -1168984 -1217227 -1278812 -1354657 -1441949 -1535464 -1627671 
2131.096 -1711211 -1780216 -1831592 -1863200 -1875110 -1867588 -1842018 
2134.471 -1801797 -1752299 -1701409 -1657940 -1629552 -1619979 -1629255 
2137.846 -1652724 -1683652 -1716426 -1746689 -1772891 -1795263 -1814335 
2141.222 -1828919 -1836310 -1833935 -1819219 -1792789 -1758701 -1720683 
2144.597 -1684444 -1653550 -1628397 -1608458 -1592018 -1577723 -1564815 
2147.972 -1554118 -1546359 -1542793 -1545368 -1555438 -1576172 -1610538 
2151.347 -1660052 -1724709 -1802952 -1889890 -1982054 -2076409 -2173644 
2154.723 -2274582 -2380835 -2485811 -2576169 -2631601 -2626133 -2538190 
2158.098 -2361459 -2106647 -1803183 -1490657 -1209297 -987463 -839202 
2161.473 -764061 -749937 -780499 -836921 -903816 -968256 -1020355 -1054567 
2165.331 -1068615 -1065078 -1048981 -1028686 -1011728 -1003463 -1006637 
2168.706 -1020223 -1041809 -1068714 -1098659 -1130783 -1164821 -1200211 
2172.081 -1235234 -1267018 -1292489 -1308940 -1315151 -1310889 -1298303 
2175.456 -1279307 -1257106 -1235135 -1217987 -1210189 -1216864 -1239629 
2178.832 -1278382 -1328496 -1381907 -1431249 -1469292 -1492770 -1503040 
2182.207 -1503964 -1500233 -1495346 -1490492 -1483161 -1472033 -1455357 
2185.582 -1433924 -1409221 -1384516 -1360966 -1338274 -1315745 -1291564 
2188.957 -1265168 -1238076 -1211379 -1187357 -1166803 -1148231 -1128866 
2192.333 -1106921 -1080282 -1049081 -1015265 -980951 -948353 -919853 -895451 
2196.190 -875909 -862086 -853918 -851537 -854943 -862384 -872139 -882489 
2200.047 -893434 -905933 -922200 -943923 -970405 -999761 -1027198 -1047626 
2203.905 -1057906 -1057344 -1047163 -1031561 -1013348 -993546 -971793 
2207.280 -945939 -913802 -875876 -835366 -796044 -763267 -740312 -727808 
2211.137 -724963 -729330 -738724 -752252 -769220 -788999 -810001 -829314 
2214.995 -843700 -850248 -848297 -839335 -827198 -816879 -812282 -815689 
2218.852 -827727 -846841 -871015 -898824 -929408 -962371 -997943 -1036321 
2222.710 -1077341 -1120604 -1165415 -1210024 -1252580 -1289945 -1318124 
2226.085 -1334376 -1336457 -1325193 -1304084 -1278349 -1254034 -1235333 
2229.460 -1224298 -1220036 -1219937 -1221225 -1221919 -1221655 -1221390 
2232.835 -1221853 -1222646 -1222679 -1219441 -1210718 -1196510 -1177344 
2236.211 -1156328 -1136929 -1121066 -1110755 -1105368 -1103782 -1104641 
2239.586 -1107483 -1111482 -1116638 -1122785 -1128040 -1130353 -1127841 
2242.961 -1118224 -1100311 -1075126 -1042668 -1005381 -965313 -925408 
2246.336 -888805 -858449 -837086 -826173 -825842 -834738 -849884 -869196 
2250.194 -890127 -910992 -930962 -948783 -962735 -970504 -969380 -957544 
2254.051 -935558 -906098 -874123 -845287 -824420 -813705 -813076 -819823 
2257.909 -830571 -842146 -852728 -861656 -869427 -877099 -884804 -892872 
2261.766 -900940 -908644 -916083 -923622 -931094 -938534 -945212 -950271 
2265.624 -953114 -953478 -952089 -949609 -946898 -944187 -941013 -937046 
2269.481 -932020 -925870 -919621 -914364 -910760 -909305 -909504 -910231 
2273.338 -910066 -908214 -903916 -897203 -888474 -877826 -865592 -851703 
2277.196 -835995 -818269 -798557 -776596 -752484 -726286 -698202 -669189 
2281.053 -640935 -614400 -591139 -571947 -556361 -543621 -532832 -523136 
2284.911 -514730 -508376 -504901 -504901 -508475 -514399 -521250 -527901 
2288.768 -533229 -537201 -540510 -543323 -545176 -545011 -541337 -532965 
2292.625 -520058 -503511 -485804 -469686 -457009 -448171 -442312 -437447 
2296.483 -431257 -422551 -411329 -399015 -387693 -379483 -375743 -376636 
2300.340 -381437 -388488 -396598 -403981 -409310 -411925 -411329 -407556 
2304.198 -401200 -393387 -385641 -379417 -376107 -376107 -379285 -384648 
2308.055 -390805 -396036 -399280 -399843 -397227 -391997 -384747 -376471 
2311.913 -368261 -361077 -355780 -352734 -351840 -352436 -353628 -354389 
2315.770 -353760 -351476 -347238 -341510 -334624 -326777 -317871 -307375 
2319.627 -293865 -275654 -251116 -219391 -180841 -138941 -99092 -68946 
2323.485 -56390 -68648 -108931 -176336 -265719 -368294 -474319 -573966 
2327.342 -660720 -731281 -785923 -827297 -858812 -883249 -901601 -913339 
2331.200 -917505 -913372 -901502 -884142 -863839 -843634 -825908 -811588 
2335.057 -800906 -793497 -788271 -784468 -781094 -777588 -773256 -767401 
2338.915 -759463 -748912 -735879 -720432 -702866 -684241 -665649 -648875 
2342.772 -635608 -627271 -624293 -625782 -628462 -627965 -619264 -597856 
2346.629 -561457 -510494 -447642 -377299 -304726 -235088 -172627 -120723 
2350.487 -81700 -55860 -42873 -40421 -46186 -57218 -70669 -84649 -97800 
2354.826 -109427 -119431 -128110 -135762 -143281 -151396 -161200 -173355 
2358.684 -188094 -204985 -222934 -240354 -255885 -268567 -277971 -284660 
2362.541 -289561 -292574 -294064 -293203 -288832 -280289 -267375 -250818 
2366.399 -232141 -213562 -196374 -181669 -169480 -158749 -148249 -136557 
2370.256 -122280 -104724 -83589 -58742 -31012 -1557 28330 56894 82544 104683 
2375.078 122845 137627 150255 162121 174187 187347 202032 218010 235481 
2379.417 254079 273276 292771 311737 329410 345128 358459 369701 379218 
2383.757 388007 396430 404987 413543 421404 428302 434272 439745 445815 
2388.097 453609 463892 476695 491523 507014 521975 535378 546857 556245 
2392.436 564208 571208 577711 583949 589755 595097 599742 603392 605615 
2396.776 606378 605648 603657 601268 599477 599410 602363 608833 618555 
2401.115 630998 644902 658939 672047 683761 694282 703939 713730 724616 
2405.455 737626 753591 772909 795414 820211 846139 871437 894612 914666 
2409.795 931534 946211 959693 973640 989182 1006385 1024917 1043683 1061652 
2414.134 1077861 1092144 1104833 1116161 1126891 1137422 1147887 1158684 
2417.992 1169913 1181575 1194233 1207690 1221579 1235468 1248062 1258596 
2421.849 1266139 1270193 1270924 1268631 1264378 1259061 1254342 1251551 
2425.707 1251684 1256004 1265242 1279132 1297709 1319810 1344670 1370762 
2429.564 1396722 1421122 1443029 1461646 1476740 1488776 1498883 1508193 
2433.421 1518002 1529273 1542275 1556474 1571039 1585006 1597876 1609382 
2437.279 1620124 1630368 1640811 1651122 1660768 1669548 1677032 1683652 
2441.136 1690371 1698387 1709098 1723037 1740435 1760429 1782187 1804446 
2444.994 1826406 1847535 1867501 1886469 1904406 1921679 1938819 1956459 
2448.851 1975297 1995735 2017638 2039875 2061082 2079626 2093975 2103830 
2452.708 2109790 2113686 2117448 2123009 2131333 2142088 2154142 2165497 
2456.566 2174821 2181081 2184278 2185344 2185777 2187309 2190939 2197199 
2460.423 2205958 2216615 2227972 2239295 2250053 2260112 2269671 2279363 
2464.281 2289356 2300148 2311874 2324232 2337424 2351249 2365641 2380633 
2468.138 2395958 2410952 2425212 2437940 2448736 2458067 2466597 2475661 
2471.996 2486291 2499388 2514484 2531048 2547812 2564144 2579976 2596475 
2475.853 2614908 2637243 2664379 2695851 2730293 2764771 2796318 2822463 
2479.710 2841707 2853747 2859650 2861184 2860517 2859684 2860384 2863986 
2483.568 2871257 2882831 2898041 2916387 2937369 2959387 2981505 3002524 
2487.425 3021475 3037791 3051072 3061549 3070025 3077566 3085341 3094351 
2491.283 3105364 3118379 3132730 3147715 3162600 3176952 3191438 3206526 
2495.140 3223583 3242978 3264510 3287245 3309647 3330148 3347644 3361769 
2498.998 3373489 3383507 3393325 3404245 3416835 3431596 3448762 3468067 
2502.855 3489577 3512925 3537644 3562665 3587320 3610673 3632525 3652973 
2506.712 3672721 3692537 3712788 3733475 3754229 3774216 3792800 3809613 
2510.570 3824788 3838694 3852099 3865939 3880448 3895660 3911774 3928291 
2514.427 3944775 3960925 3976239 3990151 4002523 4013358 4022722 4031283 
2518.285 4039744 4049008 4059744 4072320 4086903 4102891 4119515 4135170 
2522.142 4148785 4159054 4165143 4167385 4166782 4165110 4164876 4167920 
2526.000 4175648 4187892 4203616 4220478 4236472 4249989 4260429 4268024 
2529.857 4273880 4278598 4282848 4286797 4289909 4292251 4294359 4297036 
2533.714 4301755 4309652 4321633 4337228 4356003 4376185 4396635 4416283 
2537.572 4434560 4450829 4464922 4476739 4486247 4493880 4500509 4507338 
2541.429 4515373 4525251 4536701 4548788 4559972 4568745 4574504 4577551 
2545.287 4579058 4580665 4583578 4587931 4592988 4596805 4598112 4595901 
2549.144 4590577 4583511 4576814 4572964 4572964 4577015 4584181 4592754 
2553.001 4600623 4606416 4609430 4609731 4607890 4604976 4602063 4600154 
2556.859 4599652 4601125 4604842 4610669 4618204 4627045 4636288 4644660 
2560.716 4651124 4654775 4655177 4652899 4648847 4644493 4641110 4639369 
2564.574 4638833 4638967 4637828 4634546 4628485 4620582 4612209 4605646 
2568.431 4602766 4604072 4609296 4616965 4625203 4632705 4638867 4643890 
2572.289 4648579 4653904 4659832 4665994 4671253 4674501 4674903 4672425 
2576.146 4667468 4661306 4655210 4649918 4646234 4644828 4645866 4650052 
2580.003 4657320 4667970 4681200 4696037 4711144 4725413 4738176 4748895 
2583.861 4758174 4766515 4774321 4781523 4788425 4794924 4801624 4809397 
2587.718 4819481 4833051 4850809 4872622 4897519 4924093 4950870 4977213 
2591.576 5002517 5027154 5051423 5075459 5098691 5120584 5140265 5156861 
2595.433 5170307 5181104 5189923 5197904 5205818 5214235 5223625 5233987 
2599.291 5245590 5258469 5272756 5288587 5305625 5323235 5341046 5358121 
2603.148 5374189 5389252 5403477 5417567 5432497 5448971 5467593 5488564 
2607.005 5511584 5535847 5560547 5584778 5607804 5629487 5650164 5670406 
2610.863 5691287 5713511 5737718 5763706 5791273 5819413 5847454 5874758 
2614.720 5900787 5925542 5949391 5972536 5995682 6019468 6044195 6070403 
2618.578 6098393 6128233 6160125 6193969 6229833 6267447 6306947 6348165 
2622.435 6390969 6435154 6480253 6526264 6573020 6620387 6668735 6718434 
2626.292 6769552 6822224 6876048 6930148 6984018 7036817 7088310 7138630 
2630.150 7188282 7238209 7289321 7342191 7396652 7452637 7509472 7566280 
2634.007 7622489 7677794 7732027 7785559 7838827 7892270 7946396 8001304 
2637.865 8057130 8113571 8170358 8227050 8283242 8338801 8393523 8447237 
2641.722 8500046 8551950 8603081 8653205 8702490 8750934 8798472 8845303 
2645.580 8891329 8936954 8982144 9027001 9071522 9115677 9159295 9202308 
2649.437 9244649 9286722 9328800 9371424 9414898 9459664 9505416 9551885 
2653.294 9597985 9642871 9685797 9726049 9763663 9798975 9832121 9864184 
2657.152 9895369 9925946 9955948 9984970 10012705 10038712 10062449 10083712 
2661.009 10102194 10117794 10131022 10141909 10151236 10159580 10167178 
2664.385 10174470 10181017 10186682 10191227 10194111 10195603 10195807 
2667.760 10194958 10193466 10191430 10188784 10185155 10180305 10174030 
2671.135 10166126 10156697 10146047 10134311 10121899 10108807 10095208 
2674.510 10081303 10067366 10053801 10040713 10028539 10016909 10005889 
2677.885 9994870 9983377 9970900 9957339 9942455 9926556 9910250 9894115 
2681.743 9878658 9864727 9852694 9843068 9835951 9831206 9828663 9827918 
2685.600 9828562 9830290 9832663 9835408 9838222 9841137 9843746 9846288 
2689.458 9848830 9851711 9855236 9859575 9864761 9870624 9876624 9882488 
2693.315 9887844 9892725 9897403 9902183 9907471 9913539 9920420 9927878 
2697.173 9935743 9944117 9953033 9963203 9975104 9988937 10004974 10022606 
2701.030 10041323 10060415 10079303 10097921 10116302 10134821 10153882 
2704.405 10173589 10193873 10214667 10235632 10256563 10277768 10299413 
2707.781 10321842 10345289 10369686 10395207 10421101 10447167 10473031 
2711.156 10498759 10524388 10550630 10577790 10606480 10637005 10669264 
2714.531 10703189 10738408 10774682 10812047 10850706 10891067 10933776 
2717.906 10979583 11028825 11081711 11138037 11196954 11257817 11319437 
2721.281 11380964 11441886 11501696 11560832 11619261 11677666 11736384 
2724.657 11796063 11856840 11919158 11982881 12048079 12114274 12180991 
2728.032 12247480 12312580 12375372 12434662 12489561 12539828 12585600 
2731.407 12627418 12666341 12703494 12739558 12774806 12809373 12842613 
2734.782 12873773 12902138 12927090 12948254 12965767 12979832 12991166 
2738.158 13000452 13008578 13016396 13024932 13034697 13045862 13058564 
2741.533 13072188 13086291 13100087 13113576 13126963 13140589 13155274 
2744.908 13171600 13189737 13209376 13230008 13250641 13270932 13290166 
2748.283 13308581 13326244 13343874 13361505 13379547 13397624 13415565 
2751.659 13432447 13447928 13461394 13472707 13481730 13489147 13495538 
2755.034 13501656 13508356 13516285 13526062 13537616 13550708 13565100 
2758.409 13580005 13594944 13609235 13622740 13635288 13646845 13657786 
2761.784 13668489 13679225 13690373 13702102 13714344 13726929 13739514 
2765.160 13751620 13763146 13773646 13783530 13792731 13801658 13810209 
2768.535 13818623 13826936 13835145 13843594 13852625 13862955 13874826 
2771.910 13888681 13904282 13921354 13938769 13955945 13972027 13986844 
2775.285 14000325 14013295 14026299 14040398 14056415 14074760 14095808 
2778.661 14119495 14145372 14173066 14201755 14231164 14260849 14290433 
2782.036 14320294 14350567 14382042 14415573 14451916 14492031 14536570 
2785.411 14586081 14640121 14698247 14759466 14822373 14885942 14948901 
2788.786 15011047 15072344 15133135 15194244 15256013 15318821 15382668 
2792.162 15447382 15512655 15578419 15644571 15710939 15777078 15842296 
2795.537 15905704 15966304 16023027 16075216 16122703 16165311 16203383 
2798.912 16237572 16268117 16295429 16320543 16344041 16366852 16389940 
2802.287 16413648 16438492 16464096 16490079 16516030 16541500 16566593 
2805.663 16591620 16616957 16642537 16668290 16693527 16717665 16740084 
2809.038 16760917 16780650 16800350 16821430 16845056 16872200 16903272 
2812.413 16938204 16976310 17016934 17059354 17103364 17149066 17196602 
2815.788 17246418 17299032 17354686 17413452 17475194 17539460 17606118 
2819.164 17674996 17746060 17819618 17895884 17974822 18056194 18139304 
2822.539 18223436 18307928 18392196 18476272 18560744 18646132 18733338 
2825.914 18823118 18915966 19012120 19111724 19214746 19321220 19431012 
2829.289 19543710 19658862 19776090 19894810 20015364 20137652 20262650 
2832.665 20390842 20523240 20660198 20802168 20949434 21102422 21262004 
2836.040 21429024 21604434 21788692 21982472 22185686 22398834 22623150 
2839.415 22860540 23114062 23387840 23686320 24013928 24374970 24773320 
2842.790 25212592 25696986 26230174 26815716 27455344 28148024 28887700 
2846.166 29662270 30452616 31234008 31974434 32639820 33196628 33613464 
2849.541 33867832 33946824 33850636 33591128 33191514 32683690 32101352 
2852.916 31479500 30850250 30238216 29662980 29137044 28666602 28253846 
2856.291 27897234 27593516 27337824 27125132 26950900 26810288 26699778 
2859.667 26615998 26556466 26519202 26502752 26506310 26529308 26571472 
2863.042 26632730 26713132 26812404 26930876 27068210 27225098 27401874 
2866.417 27599094 27816822 28054594 28310958 28583254 28868188 29161564 
2869.792 29459110 29756078 30048102 30330054 30596972 30843634 31065380 
2873.167 31258718 31422328 31557564 31668176 31760030 31840284 31915948 
2876.543 31993054 32076556 32169032 32272666 32388460 32517106 32659576 
2879.918 32816850 32989986 33180032 33387196 33611320 33850388 34101200 
2883.293 34359256 34617968 34869836 35107408 35322644 35509724 35664508 
2886.668 35786032 35875884 35939300 35984040 36019032 36054780 36101980 
2890.044 36170396 36270452 36412464 36607440 36869660 37216288 37667320 
2893.419 38247364 38982712 39898776 41018908 42357548 43915652 45674112 
2896.794 47590796 49596680 51592916 53466736 55093344 56350844 57145564 
2900.169 57416668 57149720 56375520 55167228 53625960 51858744 49977040 
2903.545 48077240 46233112 44502348 42922356 41514120 40289452 39251452 
2906.920 38398244 37724524 37223976 36889572 36714804 36694396 36823784 
2910.295 37097680 37509648 38049196 38700596 39443640 40251352 41091564 
2913.670 41931324 42734176 43466216 44098844 44608376 44979904 45207300 
2917.046 45292464 45244436 45076900 44807696 44456168 44041708 43584448 
2920.421 43102020 42610256 42122732 41649292 41197456 40772548 40378384 
2923.796 40018292 39695816 39414072 39176200 38984164 38838772 38738812 
2927.171 38681724 38663652 38679552 38723272 38788440 38866888 38949696 
2930.547 39026896 39086860 39117788 39107492 39043248 38913888 38709180 
2933.922 38421196 38045468 37581648 37033844 36409976 35722136 34984672 
2937.297 34212316 33421296 32627284 31844560 31087768 30369744 29701224 
2940.672 29091266 28545426 28065128 27648564 27290258 26982138 26713766 
2944.048 26473838 26250552 26032130 25808156 25569994 25311310 25029824 
2947.423 24726388 24405848 24075176 23743148 23418612 23108752 22818912 
2950.798 22552018 22308588 22087258 21886042 21702194 21532980 21376326 
2954.173 21229922 21092022 20960598 20833800 20709890 20587128 20464818 
2957.549 20342818 20221790 20103330 19989272 19881178 19780252 19687082 
2960.924 19601490 19523018 19451734 19387702 19331752 19284950 19248340 
2964.299 19222572 19208164 19204944 19213048 19232754 19264516 19309302 
2967.674 19368092 19441790 19531198 19636848 19759724 19901192 20063074 
2971.050 20247304 20455578 20688414 20944708 21220842 21511220 21806878 
2974.425 22096706 22367750 22604650 22792022 22916458 22966410 22936368 
2977.800 22827152 22647236 22410696 22137080 21848756 21566092 21307868 
2981.175 21088092 20915152 20791984 20716702 20683202 20682298 20702558 
2984.551 20732688 20761710 20780304 20782460 20764908 20727302 20671700 
2987.926 20602102 20522998 20439186 20355284 20274870 20200788 20135120 
2991.301 20078900 20032400 19995554 19968354 19950728 19942958 19945524 
2994.676 19958500 19981884 20015018 20056448 20104752 20158340 20216166 
2998.052 20277230 20341082 20407268 20474820 20543284 20611726 20679588 
3001.427 20747182 20815064 20884208 20955624 21029974 21107396 21187338 
3004.802 21269138 21352276 21436370 21521246 21607114 21694114 21782108 
3008.177 21871232 21961212 22051978 22143844 22236740 22330912 22426118 
3011.552 22522004 22618298 22714788 22811576 22909296 23008612 23110010 
3014.928 23213598 23318786 23424348 23529166 23632122 23732930 23831908 
3018.303 23930174 24029090 24129746 24232912 24338384 24445770 24554132 
3021.678 24662414 24770408 24877798 24985074 25092868 25201846 25312364 
3025.053 25424630 25538330 25653116 25768388 25884008 25999660 26115516 
3028.429 26231510 26347288 26462464 26576120 26687692 26797108 26904824 
3031.804 27011966 27120228 27231058 27345446 27463640 27584724 27707540 
3035.179 27830920 27953732 28075236 28195574 28314744 28433024 28550628 
3038.554 28667700 28784732 28902432 29021688 29143456 29268378 29396634 
3041.930 29527624 29660530 29794688 29929240 30064188 30199534 30335490 
3045.305 30472056 30608668 30744930 30879956 31013706 31146110 31277876 
3048.680 31409576 31542062 31675660 31810582 31946868 32084372 32223024 
3052.055 32362684 32503142 32643750 32784120 32923638 33062454 33200848 
3055.431 33339966 33480666 33623992 33770012 33918272 34067760 34217300 
3058.806 34365816 34512704 34658088 34801912 34944524 35086176 35227048 
3062.181 35367428 35507924 35649260 35792296 35937680 36085236 36234648 
3065.556 36384972 36535316 36685132 36834240 36982828 37131500 37280512 
3068.932 37429932 37579732 37729840 37880248 38031616 38184484 38339028 
3072.307 38495412 38652892 38810688 38967744 39123404 39277744 39431304 
3075.682 39585136 39740220 39897504 40057204 40219328 40383584 40549064 
3079.057 40714724 40879712 41042760 41203068 41360372 41515032 41668184 
3082.433 41821568 41977236 42136352 42299548 42466308 42635216 42804596 
3085.808 42972908 43139084 43303240 43465812 43627896 43790700 43955356 
3089.183 44122352 44292236 44464836 44639700 44815888 44992364 45167884 
3092.558 45341416 45512292 45680736 45847072 46012220 46177172 46342736 
3095.934 46509844 46678820 46850004 47023692 47199668 47377596 47556448 
3099.309 47735116 47912712 48088752 48263936 48439412 48616852 48798220 
3102.684 48984296 49174760 49368016 49561876 49753748 49941572 50124460 
3106.059 50302252 50475764 50646480 50816256 50986656 51158912 51333960 
3109.435 51511988 51692812 51875096 52057604 52238660 52417132 52592500 
3112.810 52764872 52935180 53104544 53274048 53444852 53617636 53793268 
3116.185 53972756 54156900 54346264 54540636 54739336 54940500 55142400 
3119.560 55342956 55541200 55736592 55930044 56122104 56313536 56504452 
3122.936 56694352 56882788 57069152 57253400 57436144 57618356 57801024 
3126.311 57985284 58171896 58361160 58553164 58747604 58943388 59139220 
3129.686 59333124 59523468 59709220 59890180 60067532 60243392 60420120 
3133.061 60599436 60781688 60966108 61150992 61334656 61516144 61695608 
3136.437 61874112 62053920 62236132 62422012 62611460 62803896 62998064 
3139.812 63192932 63387552 63580944 63772360 63960968 64146132 64328076 
3143.187 64507320 64685404 64863920 65044156 65226892 65411864 65598032 
3146.562 65783896 65968452 66150808 66330844 66508608 66684500 66859080 
3149.938 67032992 67207064 67382544 67560656 67741824 67926160 68112400 
3153.313 68298880 68483696 68665904 68845088 69022208 69198464 69374488 
3156.688 69550352 69724688 69895584 70061376 70221384 70376432 70528336 
3160.063 70679472 70832064 70987288 71145232 71304936 71465680 71626680 
3163.438 71787184 71947288 72106592 72265048 72422200 72577912 72731880 
3166.814 72884216 73035160 73184504 73332176 73477704 73620880 73761864 
3170.189 73901600 74040480 74179720 74319280 74459040 74598136 74735936 
3173.564 74871768 75006160 75139680 75272568 75404480 75534064 75659616 
3176.939 75779688 75893952 76003744 76111912 76221248 76334088 76451144 
3180.315 76571160 76691840 76810968 76926576 77038048 77146312 77251952 
3183.690 77355760 77457728 77557576 77654872 77749664 77842328 77933744 
3187.065 78024344 78113856 78201280 78285592 78365944 78442472 78516104 
3190.440 78588368 78660432 78732768 78804784 78875544 78944360 79011248 
3193.816 79077032 79142512 79208152 79273168 79335688 79393328 79444456 
3197.191 79488376 79526656 79561712 79596416 79633072 79672560 79714792 
3200.566 79758432 79802152 79845224 79886768 79926712 79964392 79999568 
3203.941 80032464 80063712 80094904 80128656 80166512 80209112 80255424 
3207.317 80302384 80346432 80385264 80417768 80445080 80470040 80495600 
3210.692 80523368 80553200 80583120 80610480 80633144 80650888 80664576 
3214.067 80677064 80690984 80707792 80728016 80750720 80774744 80798928 
3217.442 80822880 80846904 80872168 80899472 80929328 80962472 80998560 
3220.818 81037256 81078384 81120480 81162896 81204320 81243624 81280304 
3224.193 81314424 81346272 81376520 81405616 81433592 81460168 81485712 
3227.568 81510616 81536480 81565104 81597816 81635240 81676744 81720896 
3230.943 81766208 81812008 81858728 81908192 81962208 82021992 82086880 
3234.319 82155168 82224072 82290864 82354264 82414704 82473552 82532768 
3237.694 82593360 82655640 82719088 82782872 82847304 82913192 82981776 
3241.069 83054144 83129528 83205768 83279456 83347336 83407232 83459192 
3244.444 83505568 83549912 83595776 83645712 83700464 83759488 83821736 
3247.820 83885912 83952040 84020104 84090032 84161536 84233536 84303896 
3251.195 84370968 84433224 84489736 84540736 84586416 84627568 84664736 
3254.570 84698192 84728352 84755576 84780472 84803752 84825664 84846656 
3257.945 84866472 84884720 84901032 84914976 84926016 84933672 84937216 
3261.321 84936048 84930048 84919168 84904216 84886256 84866304 84844800 
3264.696 84821280 84794688 84763472 84726224 84681848 84630752 84573376 
3268.071 84511304 84446024 84378448 84309808 84240536 84170624 84099728 
3271.446 84027144 83951560 83872016 83787896 83699376 83607344 83513560 
3274.822 83419800 83327184 83235704 83144376 83051168 82954824 82854320 
3278.197 82750440 82644736 82539056 82434688 82332432 82231120 82129624 
3281.572 82027520 81924432 81821448 81720296 81622400 81528520 81438584 
3284.947 81350904 81264040 81176320 81086848 80995208 80902144 80808504 
3288.323 80715608 80625120 80538760 80457920 80384112 80317896 80259136 
3291.698 80206920 80159496 80115504 80074304 80035736 80000640 79969808 
3295.073 79943640 79922168 79904728 79890352 79878920 79870920 79867528 
3298.448 79870160 79879920 79897080 79920616 79948856 79979488 80010720 
3301.823 80041200 80070440 80098328 80125864 80153840 80183968 80217960 
3305.199 80257104 80302584 80354768 80412704 80475144 80540232 80607088 
3308.574 80675232 80745176 80817488 80892648 80969936 81048032 81125392 
3311.949 81200680 81274032 81346992 81421280 81498704 81579736 81662704 
3315.324 81744968 81823456 81895864 81961208 82020792 82075944 82128784 
3318.700 82180064 82230040 82277808 82322784 82364352 82402408 82436696 
3322.075 82466576 82490944 82508088 82516784 82517304 82511288 82501512 
3325.450 82490864 82481120 82472352 82462336 82448152 82426800 82396512 
3328.825 82357224 82309840 82256304 82197408 82133224 82063296 81986296 
3332.201 81901504 81809088 81709216 81602368 81488392 81366848 81236832 
3335.576 81098272 80951968 80800120 80645632 80491496 80339224 80188752 
3338.951 80038688 79886168 79728368 79563104 79388872 79204968 79011768 
3342.326 78809624 78599448 78382264 78159664 77933144 77704240 77473920 
3345.702 77242736 77010280 76775736 76538984 76300080 76060664 75822688 
3349.077 75588712 75360768 75140664 74928864 74725112 74528856 74338896 
3352.452 74153904 73972904 73794424 73617584 73441832 73267336 73094984 
3355.827 72926264 72762784 72606264 72457664 72317448 72185464 72060976 
3359.203 71943344 71831600 71725280 71623632 71525920 71432048 71341328 
3362.578 71254096 71170128 71089608 71012144 70937272 70864088 70791976 
3365.953 70720376 70649336 70579552 70511656 70446224 70382976 70321616 
3369.328 70260568 70198376 70133760 70065072 69991032 69910296 69821408 
3372.704 69722888 69613824 69493224 69360928 69216776 69060200 68890088 
3376.079 68704720 68501152 68277056 68030440 67760296 67466984 67151168 
3379.454 66813828 66455432 66076032 65675156 65252228 64807408 64341208 
3382.829 63855484 63352160 62833728 62302824 61762448 61214696 60662032 
3386.205 60105844 59546460 58984144 58418316 57848720 57276504 56702924 
3389.580 56130816 55562852 55001008 54446424 53899076 53358224 52823208 
3392.955 52294268 51771724 51257000 50750260 50250992 49757164 49266348 
3396.330 48775864 48284080 47791080 47298452 46808152 46322388 45842028 
3399.706 45367200 44897044 44430148 43966024 43504376 43045304 42588764 
3403.081 42134892 41682660 41231412 40780560 40330208 39881268 39434752 
3406.456 38992172 38553848 38120268 37690444 37264444 36842212 36424068 
3409.831 36011328 35605416 35207536 34818280 34437692 34065216 33700004 
3413.207 33340898 32986876 32636892 32290402 31946580 31605810 31268544 
3416.582 30935742 30608916 30289266 29977198 29672628 29374902 29082832 
3419.957 28795388 28512308 28233372 27959174 27690270 27427248 27169820 
3423.332 26917832 26670498 26427180 26187658 25951432 25718922 25490472 
3426.708 25266250 25046532 24831624 24621348 24415242 24212664 24012806 
3430.083 23814442 23616868 23419452 23222092 23025240 22828900 22633866 
3433.458 22440178 22247830 22057068 21867468 21679556 21493672 21310444 
3436.833 21129868 20952390 20777246 20603700 20431266 20259248 20087714 
3440.208 19916940 19747692 19580450 19416216 19254990 19096938 18941854 
3443.584 18789106 18637348 18485296 18331258 18174164 18013848 17851484 
3446.959 17689078 17529870 17376412 17230488 17092232 16960116 16831692 
3450.334 16704168 16575612 16445065 16312802 16179720 16046783 15915226 
3453.709 15785495 15657831 15532606 15409719 15289372 15171598 15055466 
3457.085 14940190 14824190 14706370 14586252 14464386 14342177 14221235 
3460.460 14103613 13990196 13881497 13777477 13677686 13581611 13489010 
3463.835 13399298 13311723 13225396 13138608 13049959 12958529 12863671 
3467.210 12766104 12666956 12567659 12469987 12374793 12282891 12194656 
3470.586 12109947 12028185 11948821 11871244 11794360 11717423 11640260 
3473.961 11563554 11488461 11416918 11350284 11289510 11234491 11184204 
3477.336 11137153 11091535 11046057 10999870 10952329 10902823 10851080 
3480.711 10796660 10739971 10682439 10626309 10575108 10531382 10497198 
3484.087 10472420 10455448 10443060 10431928 10419642 10405489 10389946 
3487.462 10375015 10362900 10354926 10351736 10352992 10358319 10367448 
3490.837 10380851 10399482 10424053 10455143 10492615 10535354 10581932 
3494.212 10630995 10681896 10734469 10789220 10847003 10909244 10977509 
3497.588 11053670 11139431 11236565 11346543 11469341 11603777 11747481 
3500.963 11897226 12050259 12204334 12359384 12517014 12680431 12852920 
3504.338 13037496 13235440 13446049 13667497 13896652 14130414 14366493 
3507.713 14603454 14841676 15082396 15328260 15581339 15843431 16115241 
3511.089 16395204 16681442 16970556 17259862 17547154 17831322 18112048 
3514.464 18389154 18662424 18930466 19191750 19443694 19684240 19911668 
3517.839 20125056 20323616 20506288 20671734 20817322 20940220 21037346 
3521.214 21106004 21144686 21152584 21129762 21077518 20997180 20890050 
3524.590 20757468 20599462 20415500 20204398 19965022 19696514 19399898 
3527.965 19077898 18734860 18375882 18005662 17627788 17244418 16856562 
3531.340 16464680 16069371 15671398 15271251 14869140 14464557 14056381 
3534.715 13643973 13227583 12809714 12394430 11986696 11591288 11211370 
3538.091 10848125 10501204 10169281 9850694 9544399 9249151 8963709 8685925 
3541.948 8413116 8141862 7870204 7596862 7322579 7049446 6780692 6518797 
3545.805 6265699 6022458 5789191 5565883 5352888 5149552 4955360 4768693 
3549.663 4586960 4407681 4228843 4049310 3870018 3693406 3521543 3357060 
3553.520 3200784 3052473 2910650 2774142 2641643 2512951 2387996 2267006 
3557.378 2149613 2035315 1923376 1813229 1704741 1598042 1493597 1391902 
3561.235 1293256 1197921 1106162 1017843 932962 850720 769523 686715 598979 
3565.575 502934 396895 282161 162254 43971 -65799 -162061 -242738 -308235 
3569.914 -362103 -407754 -449197 -489809 -531310 -575852 -624888 -679081 
3573.772 -739187 -804808 -874850 -946964 -1018571 -1087554 -1152362 -1212833 
3577.629 -1269727 -1324367 -1378241 -1432339 -1486463 -1540053 -1591721 
3581.004 -1640247 -1684147 -1722861 -1756061 -1784671 -1810112 -1834858 
3584.380 -1861913 -1894376 -1935117 -1985880 -2046466 -2114890 -2187293 
3587.755 -2258530 -2323625 -2378858 -2422321 -2453886 -2475334 -2489336 
3591.130 -2499285 -2508872 -2521719 -2541319 -2569483 -2606504 -2650899 
3594.505 -2699636 -2748138 -2792749 -2830146 -2858982 -2879917 -2894465 
3597.881 -2905689 -2916451 -2929155 -2945018 -2964204 -2985561 -3006819 
3601.256 -3026101 -3041434 -3051930 -3058313 -3061471 -3063544 -3066768 
3604.631 -3073118 -3084567 -3102859 -3128881 -3163815 -3207627 -3258834 
3608.006 -3314639 -3371159 -3423596 -3468500 -3504458 -3532395 -3554415 
3611.382 -3574790 -3596675 -3621715 -3650071 -3680167 -3709768 -3736673 
3614.757 -3759963 -3779671 -3797244 -3814225 -3832190 -3852454 -3875804 
3618.132 -3902173 -3931332 -3961835 -3992008 -4019453 -4041974 -4058485 
3621.507 -4069055 -4074701 -4076933 -4077360 -4076703 -4073913 -4067906 
3624.883 -4057205 -4042466 -4025953 -4012986 -4010589 -4025756 -4062949 
3628.258 -4120784 -4190327 -4258677 -4312253 -4343714 -4353456 -4347421 
3631.633 -4333708 -4319766 -4311105 -4310613 -4318191 -4332593 -4350832 
3635.008 -4370383 -4389014 -4405677 -4419518 -4430538 -4438803 -4444477 
3638.384 -4448314 -4450774 -4452676 -4454611 -4456513 -4458317 -4459694 
3641.759 -4460153 -4459169 -4456710 -4452118 -4445363 -4436901 -4427423 
3645.134 -4418173 -4411515 -4409744 -4415484 -4430637 -4456710 -4493210 
3648.509 -4538593 -4589775 -4641671 -4688744 -4724044 -4742005 -4740202 
3651.885 -4718669 -4681631 -4636197 -4590594 -4553447 -4531183 -4527838 
3655.260 -4542298 -4569349 -4600069 -4625378 -4639639 -4641114 -4632296 
3658.635 -4617838 -4602692 -4589939 -4581775 -4578857 -4581217 -4588201 
3662.010 -4599118 -4612822 -4627641 -4640688 -4649703 -4652784 -4649047 
3665.385 -4639508 -4626198 -4612068 -4600233 -4594430 -4597971 -4613544 
3668.761 -4642917 -4685662 -4736466 -4786903 -4826292 -4845690 -4841496 
3672.136 -4816134 -4777760 -4737973 -4708476 -4699691 -4716342 -4754754 
3675.511 -4802568 -4843986 -4867610 -4870624 -4858141 -4838973 -4821475 
3678.886 -4809744 -4803747 -4800339 -4795096 -4784872 -4769338 -4750133 
3682.262 -4730435 -4712573 -4697495 -4683466 -4668650 -4651506 -4632394 
3685.637 -4614232 -4601151 -4597971 -4608069 -4631640 -4665700 -4704706 
3689.012 -4743021 -4775892 -4801879 -4821016 -4833960 -4841562 -4843232 
3692.387 -4838481 -4827832 -4812464 -4794735 -4777498 -4762849 -4752296 
3695.763 -4746102 -4742988 -4741284 -4739547 -4736794 -4732992 -4729354 
3699.138 -4727191 -4728371 -4734074 -4745020 -4760391 -4778317 -4795620 
3702.513 -4808892 -4815282 -4813021 -4801715 -4782709 -4758490 -4731353 
3705.888 -4704149 -4678713 -4656390 -4637639 -4622985 -4613052 -4608790 
3709.264 -4611281 -4621969 -4641278 -4668322 -4700773 -4734827 -4765241 
3712.639 -4787821 -4799520 -4799290 -4788771 -4770845 -4749314 -4727814 
3716.014 -4709983 -4697856 -4691956 -4691661 -4695102 -4700052 -4705198 
3719.389 -4709426 -4713523 -4718669 -4725322 -4733418 -4741710 -4748199 
3722.765 -4751215 -4750362 -4746659 -4742922 -4742300 -4746528 -4755573 
3726.140 -4766323 -4774122 -4773237 -4760587 -4735974 -4703067 -4668322 
3729.515 -4638688 -4620559 -4616560 -4625444 -4641967 -4658521 -4668093 
3732.890 -4667732 -4659406 -4649670 -4646785 -4656030 -4678549 -4709623 
3736.266 -4741087 -4764291 -4774974 -4773500 -4763668 -4750133 -4736106 
3739.641 -4721717 -4705329 -4685269 -4661602 -4638459 -4623739 -4628100 
3743.016 -4660258 -4722274 -4804665 -4886744 -4943520 -4959604 -4934937 
3746.391 -4881797 -4816920 -4756196 -4711229 -4687662 -4685892 -4700838 
3749.767 -4725158 -4752001 -4776679 -4797193 -4812562 -4820820 -4818624 
3753.142 -4803026 -4772779 -4730141 -4680090 -4629280 -4583775 -4549217 
3756.517 -4527936 -4520001 -4523280 -4534035 -4548889 -4564529 -4578300 
3759.892 -4587841 -4590561 -4585283 -4571644 -4551709 -4529183 -4508623 
3763.268 -4494752 -4490390 -4495866 -4508491 -4523608 -4535839 -4541282 
3766.643 -4539052 -4531478 -4522264 -4515607 -4515082 -4522100 -4535478 
3770.018 -4552135 -4567808 -4578824 -4583021 -4579808 -4570627 -4557676 
3773.393 -4543151 -4529019 -4515869 -4503573 -4491046 -4477896 -4464056 
3776.769 -4451134 -4441952 -4439033 -4443952 -4456054 -4472091 -4486848 
3780.144 -4495571 -4495375 -4487111 -4474879 -4463236 -4457038 -4459498 
3783.519 -4470091 -4486127 -4503704 -4518886 -4528822 -4533577 -4533904 
3786.894 -4531642 -4528199 -4523838 -4518624 -4512262 -4504983 -4497572 
3790.270 -4491144 -4486290 -4482356 -4478748 -4474058 -4467368 -4459399 
3793.645 -4452151 -4448019 -4449462 -4457333 -4469992 -4483733 -4493571 
3797.020 -4495014 -4486815 -4470451 -4450938 -4435294 -4431096 -4444313 
3800.395 -4477338 -4526461 -4582136 -4630853 -4660619 -4665864 -4648129 
3803.771 -4614790 -4576398 -4543413 -4524395 -4523379 -4539118 -4564923 
3807.146 -4590463 -4606069 -4606036 -4590660 -4564365 -4532855 -4500785 
3810.521 -4470615 -4442214 -4414500 -4385996 -4357557 -4331839 -4314090 
3813.896 -4309465 -4322850 -4354637 -4400560 -4450216 -4491046 -4513049 
3817.271 -4511771 -4490128 -4455792 -4420043 -4393344 -4384717 -4398756 
3820.647 -4433916 -4480814 -4525805 -4556529 -4565873 -4554234 -4527346 
3824.022 -4494194 -4463499 -4441132 -4429915 -4428537 -4432473 -4436278 
3827.397 -4435261 -4427882 -4415418 -4401675 -4390523 -4385505 -4387965 
3830.772 -4396985 -4409613 -4422240 -4431293 -4434375 -4430538 -4420633 
3834.148 -4406759 -4391737 -4379174 -4372417 -4374057 -4385078 -4404561 
3837.523 -4429554 -4455300 -4476748 -4491308 -4497572 -4496424 -4490193 
3840.898 -4481175 -4471173 -4461433 -4452381 -4443657 -4435163 -4426078 
3844.273 -4415844 -4404365 -4391277 -4377140 -4362838 -4349159 -4336891 
3847.649 -4325967 -4315272 -4303264 -4288238 -4270062 -4250835 -4236332 
3851.024 -4235184 -4256774 -4308874 -4393278 -4500326 -4609806 -4698380 
3854.399 -4749182 -4758490 -4733811 -4687531 -4631640 -4574004 -4519444 
3857.774 -4469959 -4426635 -4390162 -4362018 -4343419 -4335578 -4337973 
3861.150 -4348831 -4365036 -4383274 -4401216 -4417812 -4432178 -4443723 
3864.525 -4449921 -4447855 -4434211 -4408334 -4372613 -4333118 -4298802 
3867.900 -4278100 -4277641 -4298934 -4337251 -4381437 -4418304 -4438475 
3871.275 -4438803 -4423782 -4401380 -4380420 -4367496 -4364544 -4369661 
3874.651 -4377665 -4382355 -4379075 -4366742 -4346732 -4323112 -4300869 
3878.026 -4284465 -4277542 -4280922 -4292766 -4308153 -4320718 -4323572 
3881.401 -4312746 -4288009 -4252836 -4214544 -4181105 -4160627 -4158789 
3884.776 -4176741 -4209852 -4248670 -4282562 -4301952 -4303166 -4287943 
3888.152 -4262581 -4234232 -4210541 -4196791 -4195249 -4205422 -4222682 
3891.527 -4241517 -4256478 -4263533 -4261531 -4251393 -4235052 -4215004 
3894.902 -4193510 -4172442 -4153243 -4137359 -4125937 -4120128 -4120390 
3898.277 -4126889 -4138277 -4152784 -4168077 -4182024 -4193772 -4203879 
3901.653 -4213658 -4225307 -4240106 -4257758 -4276197 -4292241 -4302050 
3905.028 -4303232 -4295226 -4279347 -4258841 -4236890 -4216119 -4198137 
3908.403 -4183304 -4171096 -4160594 -4151274 -4142840 -4135422 -4128432 
3911.778 -4121506 -4113465 -4102896 -4089308 -4072961 -4055301 -4039774 
3915.154 -4029203 -4026052 -4031403 -4044009 -4060652 -4077557 -4091573 
3918.529 -4100632 -4104636 -4104538 -4101780 -4097612 -4092688 -4087043 
3921.904 -4081102 -4074734 -4068727 -4064033 -4061308 -4060849 -4061801 
3925.279 -4063114 -4062851 -4060061 -4054218 -4045716 -4035441 -4024542 
3928.655 -4014069 -4004779 -3997655 -3993026 -3992008 -3995356 -4002940 
3932.030 -4014529 -4028219 -4041415 -4051296 -4055301 -4052281 -4042466 
3935.405 -4027595 -4009900 -3992073 -3975855 -3962525 -3952149 -3944236 
3938.780 -3937899 -3933171 -3930084 -3929526 -3932186 -3938753 -3949030 
3942.156 -3961736 -3975034 -3986295 -3993748 -3995915 -3992730 -3985507 
3945.531 -3975887 -3966366 -3958552 -3953364 -3950704 -3949260 -3947487 
3948.906 -3944039 -3938129 -3929920 -3920135 -3910185 -3901254 -3894029 
3952.281 -3888874 -3885852 -3885032 -3886312 -3889432 -3894325 -3899710 
3955.656 -3904111 -3905556 -3902239 -3892979 -3878168 -3859022 -3838037 
3959.032 -3817706 -3799970 -3785682 -3774646 -3765711 -3757663 -3749714 
3962.407 -3741699 -3734012 -3727212 -3721791 -3717783 -3714892 -3712593 
3965.782 -3710129 -3707402 -3704380 -3701259 -3698138 -3695082 -3691666 
3969.157 -3688019 -3683748 -3679214 -3674811 -3671000 -3668240 -3667156 
3972.533 -3667320 -3668405 -3669982 -3671164 -3671164 -3669325 -3665152 
3975.908 -3658219 -3648855 -3637552 -3624902 -3611988 -3599304 -3587376 
3979.283 -3576499 -3566377 -3557175 -3549419 -3543931 -3541729 -3544095 
3982.658 -3551424 -3563616 -3579423 -3596741 -3613467 -3627531 -3637289 
3986.034 -3642284 -3642941 -3639951 -3634562 -3628056 -3621156 -3614814 
3989.409 -3609064 -3604496 -3600586 -3597694 -3595558 -3594211 -3594014 
3992.784 -3594835 -3597037 -3600717 -3605252 -3610378 -3615209 -3619415 
3996.159 -3622306 -3623883 -3624245 -3623358 -3621419 -3618133 -3613664 
3999.535 -3608177 -3601999 -3596215 
##END=
