##TITLE=888_2_b
##JCAMP-DX=5.01  $$ Nicolet v. 1
##DATATYPE=INFRARED SPECTRUM
##ORIGIN=UniL
##OWNER=Nicolet
##LONGDATE=2011/09/28
##TIME=16:20:30
##SPECTROMETER/DATA SYSTEM=Nicolet iS5
##DATA PROCESSING=
Ratio against background
%Transmittance->Absorbance
Truncated
ElementMultiply or ElementDivide
##COMMENTS=
Number of sample scans: 32
Collection length: 51.19 sec
Sample gain: 2.0
Background collected on: Mer Sep 28 16:16:09 2011 (GMT+02:00);
Number of background scans: 32
Background gain: 2.0
Sample spacing:  1.000
Number of scan points: 12415
Resolution points: 8192
Number of FFT points: 65536
Apodization: N-B fort;
Phase correction: Mertz;
Laser frequency: 15798.0 cm-1
Number of rejected sample scans: 0
Number of rejected background scans: 0
Bench serial number: ASB1000141;
##RESOLUTION=4.000
##XUNITS=1/CM
##YUNITS=ABSORBANCE
##FIRSTX=649.893372
##LASTX=4000.122314
##FIRSTY=0.120423
##MAXX=4000.122314
##MINX=649.893372
##MAXY=0.235870
##MINY=-0.004829
##XFACTOR=1.000000
##YFACTOR=1.000000E-009
##NPOINTS=6950
##DELTAX=0.482117
##ZPD=6100
##XYDATA=(X++(Y..Y))
649.893 120422544 119811304 119028784 118106272 117044400 115833616 
652.786 114474032 112987272 111415360 109807888 108207104 106639696 
655.679 105118152 103645736 102225840 100866704 99580192 98378632 97270160 
659.054 96256232 95336680 94515608 93808256 93244128 92864040 92702840 
662.428 92781520 93088872 93581320 94189096 94840432 95480104 96079104 
665.803 96645352 97224896 97905256 98791624 99975056 101479880 103236800 
669.178 105130384 107050024 108921080 110694456 112337312 113830880 
672.071 115163616 116339128 117374624 118289312 119091424 119769568 
674.963 120292224 120622352 120734472 120623224 120304024 119801216 
677.856 119134312 118309064 117322048 116172232 114872576 113453936 
680.749 111957376 110415576 108845680 107245344 105604104 103918528 
683.642 102204752 100497008 98840296 97272072 95809992 94452224 93186680 
687.016 92005360 90916160 89943880 89121168 88476240 88019696 87741304 
690.391 87615968 87616904 87726176 87940256 88268024 88722760 89312456 
693.766 90035712 90881320 91834576 92883776 94022312 95247264 96554792 
697.141 97934112 99366544 100830728 102307192 103786000 105268728 106761448 
700.516 108267392 109777672 111268488 112708088 114065472 115320184 
703.408 116468344 117516968 118475528 119344128 120111400 120756744 
706.301 121262680 121622432 121846352 121955592 121975512 121924040 
709.194 121808928 121632648 121400248 121127080 120841240 120575728 
712.086 120359144 120208096 120123456 120096544 120118256 120187424 
714.979 120312992 120508632 120783568 121135392 121548872 122003680 
717.872 122482336 122980520 123507712 124081984 124717768 125416216 
720.765 126162128 126929568 127693920 128439888 129166336 129881096 
723.657 130592032 131297856 131986632 132639944 133244264 133798000 
726.550 134313872 134811120 135305744 135800512 136283424 136732560 
729.443 137127728 137461168 137738864 137976400 138187920 138378208 
732.335 138540000 138660496 138729904 138751200 138739936 138719120 
735.228 138707552 138710784 138720416 138720416 138697152 138649008 
738.121 138588176 138535200 138509456 138519568 138562432 138627296 
741.013 138705408 138796080 138908560 139055712 139245520 139474608 
743.906 139728720 139988288 140239216 140481152 140726512 140993792 
746.799 141296992 141637568 142004048 142377456 142741792 143092384 
749.692 143437072 143790496 144162448 144553472 144951088 145338944 
752.584 145704064 146045456 146372880 146701840 147041424 147388864 
755.477 147728048 148038656 148306176 148529504 148721216 148898352 
758.370 149072752 149241616 149387968 149487056 149519872 149481216 
761.262 149381232 149238064 149067936 148876304 148656064 148392768 
764.155 148074304 147698384 147273072 146811296 146322512 145807456 
767.048 145258208 144665424 144026560 143350608 142656320 141966272 
769.940 141296080 140649824 140021264 139402080 138790096 138195520 
772.833 137637712 137139216 136714464 136363616 136070720 135807408 
775.726 135541584 135235760 134846688 134322848 133593080 132572280 
778.619 131176520 129331352 126997696 124180632 120928304 117319840 
781.511 113447784 109411784 105301320 101198448 97181296 93316048 89657888 
784.886 86246888 83100592 80217120 77578576 75159808 72933912 70877936 
788.261 68975520 67212712 65576300 64051928 62623360 61274364 59993228 
791.636 58770820 57602540 56484676 55412892 54380776 53381116 52407340 
795.010 51456108 50527652 49624724 48749728 47903760 47084584 46288880 
798.385 45513436 44758248 44025424 43319384 42643808 41999060 41382528 
801.760 40789364 40214784 39656540 39115320 38594692 38097916 37626560 
805.135 37179720 36754072 36346456 35954992 35579952 35222736 34884448 
808.510 34563824 34257528 33960476 33667960 33377822 33090808 32810274 
811.885 32539566 32280910 32034214 31797036 31567362 31344112 31128774 
815.259 30924570 30734938 30561562 30403574 30257862 30120046 29986822 
818.634 29856084 29727586 29602036 29479712 29359692 29240662 29121382 
822.009 29001816 28883414 28768092 28657046 28549000 28440276 28324858 
825.384 28197024 28052934 27891756 27715946 27529472 27336694 27140686 
828.759 26942544 26741990 26538574 26331482 26120794 25906974 25690482 
832.133 25472202 25253292 25035862 24823312 24619314 24427648 24250570 
835.508 24088766 23940956 23805446 23681282 23569080 23471666 23392248 
838.883 23334310 23299312 23286832 23294734 23320150 23360918 23415640 
842.258 23483838 23565230 23658642 23762432 23874194 23992042 24114824 
845.633 24243074 24377108 24516828 24660416 24803736 24942294 25071770 
849.008 25189626 25296242 25393786 25484780 25571258 25653362 25729890 
852.382 25799436 25861676 25918088 25972046 26028332 26091520 26165556 
855.757 26253368 26357006 26478524 26619556 26781284 26964438 27169326 
859.132 27395874 27645174 27920022 28225558 28568464 28955874 29392770 
862.507 29882420 30425856 31023494 31677694 32394170 33182536 34056400 
865.882 35029964 36118148 37335608 38696608 40218672 41924316 43839664 
869.256 45996492 48427672 51159956 54210952 57580032 61243844 65143236 
872.631 69180128 73216352 77057840 80477024 83235544 85094944 85876856 
876.006 85486776 83931496 81318056 77835152 73728928 69247504 64633108 
879.381 60098048 55796800 51841232 48295744 45181744 42493272 40204608 
882.756 38281564 36686248 35382956 34340896 33531886 32930788 32515354 
886.131 32264064 32158688 32184984 32332558 32596458 32975328 33470288 
889.505 34083532 34817956 35678216 36671752 37811780 39117388 40612260 
892.880 42325404 44287760 46527728 49071020 51932376 55108540 58563668 
896.255 62217008 65937444 69523208 72728592 75289832 76945080 77504104 
899.630 76873968 75079216 72255224 68627144 64480492 60095344 55736372 
903.005 51622580 47898432 44653764 41921800 39693640 37934376 36595076 
906.379 35626704 34981440 34620304 34514960 34645420 35000256 35574560 
909.754 36367860 37380604 38611136 40048596 41668036 43421684 45230756 
913.129 46993452 48582572 49858536 50699576 51008084 50733088 49877900 
916.504 48499540 46700516 44604780 42353348 40078244 37884624 35855300 
919.879 34039736 32458722 31113182 29988558 29062604 28308200 27699204 
923.254 27211622 26823506 26518108 26281282 26101900 25971412 25882462 
926.628 25828340 25802706 25799506 25813078 25838996 25873668 25915486 
930.003 25964306 26020838 26086206 26160910 26245026 26337396 26436546 
933.378 26541002 26649324 26760844 26874966 26991516 27110214 27231058 
936.753 27354798 27482734 27616996 27760270 27914934 28081988 28261484 
940.128 28452090 28651842 28859760 29075782 29301592 29539468 29791846 
943.502 30060744 30346506 30648776 30967054 31301058 31651746 32020624 
946.877 32409664 32820210 33252462 33705340 34175752 34659524 35149440 
950.252 35636200 36108604 36553156 36956780 37309392 37605856 37847784 
953.627 38042752 38204020 38346520 38483896 38628448 38788732 38970280 
957.002 39176560 39409608 39669568 39955548 40264840 40593924 40938476 
960.377 41295796 41664500 42045416 42440440 42851692 43280840 43728432 
963.751 44194500 44679652 45185240 45713900 46268532 46851444 47464224 
967.126 48106964 48780092 49484600 50223356 51000368 51820924 52688856 
970.501 53607252 54577640 55601452 56681212 57821956 59030036 60312864 
973.876 61676244 63123880 64656756 66274992 67979280 69772424 71660240 
977.251 73649616 75748440 77964472 80306088 82785360 85420016 88234656 
980.625 91261392 94533736 98083464 101935344 106102064 110580480 115345984 
984.000 120350408 125508352 130685760 135708304 140344224 144324928 
986.893 147392016 149305296 149897696 149104752 146970208 143646192 
989.786 139361936 134419776 129140288 123828616 118772696 114192976 
992.678 110244240 107021488 104556976 102839888 101830648 101477912 
995.571 101726896 102525648 103831192 105603256 107803248 110395624 
998.464 113340792 116596088 120115112 123834480 127669992 131514432 
1001.356 135222048 138624960 141551872 143833680 145343952 146013968 
1004.249 145842688 144900448 143321520 141298912 139045360 136787680 
1007.142 134745376 133092848 131967008 131456224 131599712 132403968 
1010.035 133852168 135919344 138577200 141800992 145570624 149863456 
1012.927 154654848 159917152 165613344 171697536 178107200 184739664 
1015.820 191445024 198007904 204127728 209465392 213660048 216382720 
1018.713 217421152 216710160 214370992 210684608 206084576 201096768 
1021.605 196234224 191997248 188788720 186869088 186377600 187315904 
1024.498 189578784 192969264 197241904 202136432 207372112 212689776 
1027.391 217849296 222619856 226810272 230268784 232897616 234669680 
1030.284 235626288 235870208 235533264 234766704 233715760 232494320 
1033.177 231188832 229842752 228452928 226966480 225284944 223284112 
1036.070 220821712 217776272 214072512 209690320 204671312 199104416 
1038.963 193111856 186821808 180357824 173837872 167360080 161010944 
1041.856 154866272 148984208 143415008 138203616 133390408 129022360 
1044.750 125152352 121831792 119112432 117034072 115617152 114864336 
1047.643 114759240 115273256 116368496 118005656 120146304 122748760 
1050.536 125770272 129164424 132877368 136856336 141048896 145401648 
1053.429 149862976 154369632 158834496 163149056 167169072 170725680 
1056.322 173653376 175794016 177026608 177287232 176571600 174945152 
1059.215 172534208 169534848 166187312 162750432 159502432 156689952 
1062.108 154515312 153136752 152648352 153089248 154448544 156672784 
1065.001 159666256 163290448 167382192 171742016 176147936 180390304 
1067.894 184265760 187604144 190284352 192219664 193359296 193678912 
1070.787 193174032 191859504 189769808 186963136 183516256 179519184 
1073.680 175079936 170314448 165353024 160350944 155472144 150894208 
1076.573 146801312 143351744 140682848 138896240 138043680 138128832 
1079.466 139096800 140838000 143171120 145851456 148601664 151103328 
1082.359 153059280 154243952 154522752 153894240 152481600 150522176 
1085.252 148310624 146156512 144366320 143181200 142776304 143251424 
1088.146 144620320 146817008 149696016 153061632 156663808 160225536 
1091.039 163490272 166215552 168206400 169332512 169515184 168734224 
1093.932 167019776 164448624 161132752 157201488 152798368 148054160 
1096.825 143079120 137967152 132790120 127608824 122483128 117468152 
1099.718 112618752 107986240 103610696 99524272 95752320 92313880 89229440 
1103.093 86521216 84211488 82323984 80879672 79894016 79378376 79339704 
1106.468 79781600 80705520 82110608 83991688 86335848 89120688 92311456 
1109.844 95855976 99689768 103730384 107872392 111997384 115962944 119608064 
1113.219 122777552 125322464 127124040 128112880 128268224 127620024 
1116.112 126235592 124214592 121672944 118727480 115498856 112093280 
1119.005 108595512 105072184 101564472 98095176 94678376 91325792 88055776 
1122.380 84897688 81888696 79073216 76499592 74211288 72249744 70651088 
1125.755 69443104 68647896 68279304 68341464 68828280 69722504 70997632 
1129.131 72615192 74527400 76679112 78999528 81407416 83811160 86104736 
1132.506 88187240 89972088 91400168 92456600 93173696 93630512 93931312 
1135.881 94197080 94543952 95057552 95789088 96742384 97876120 99103632 
1139.256 100304704 101349184 102097816 102430288 102259216 101528184 
1142.149 100217552 98337448 95920888 93016872 89687296 86009528 82068256 
1145.525 77955304 73768504 69595424 65516732 61601972 57902780 54459720 
1148.900 51301144 48442156 45888720 43637236 41677412 39993620 38567392 
1152.275 37380856 36416392 35658824 35095804 34716516 34512520 34476900 
1155.650 34604836 34893856 35344820 35961436 36750320 37719572 38877396 
1159.026 40229980 41780780 43529392 45471344 47596452 49887376 52318972 
1162.401 54852220 57433724 60000188 62473048 64768560 66806332 68506512 
1165.776 69801680 70640248 70985848 70824776 70165304 69039416 67495936 
1169.151 65596648 63411316 61005648 58442536 55780332 53067884 50350548 
1172.527 47668628 45054220 42535224 40133228 37862392 35733112 33750676 
1175.902 31916306 30228200 28681468 27269444 25983584 24814962 23755328 
1179.277 22796842 21933052 21159472 20471868 19867374 19342662 18894128 
1182.652 18517348 18207266 17958452 17765906 17625340 17533424 17487782 
1186.028 17486956 17529698 17615194 17742228 17910248 18118612 18367690 
1189.403 18658516 18993186 19374916 19807928 20297922 20851772 21476962 
1192.778 22181746 22974340 23861908 24851096 25947704 27156804 28481526 
1196.153 29922316 31474442 33124030 34844920 36599076 38330816 39971572 
1199.529 41446792 42672392 43570200 44075480 44141716 43753208 42927256 
1202.904 41716472 40197812 38465648 36623228 34762856 32965674 31296500 
1206.279 29797242 28493626 27395592 26501064 25799646 25275452 24911554 
1209.654 24689280 24591614 24604236 24714566 24912642 25190646 25540966 
1213.030 25956218 26428764 26950090 27510764 28101148 28709680 29323816 
1216.405 29928848 30507886 31044348 31521610 31924472 32241188 32461580 
1219.780 32577318 32581780 32469540 32237906 31887670 31425104 30862132 
1223.155 30214984 29505174 28756018 27991190 27235222 26509904 25833896 
1226.531 25223020 24687560 24233544 23862152 23570724 23353924 23204268 
1229.906 23114902 23078804 23090022 23143104 23233070 23354552 23502900 
1233.281 23673758 23864322 24073532 24302010 24551222 24823170 25119584 
1236.656 25441704 25790398 26167210 26573832 27012636 27485736 27993664 
1240.031 28535378 29106396 29699946 30305786 30911016 31500842 32058258 
1243.407 32565742 33008646 33376284 33665164 33880872 34037548 34155680 
1246.782 34257960 34368080 34505848 34686152 34919384 35211200 35563300 
1250.157 35974320 36440316 36954360 37508168 38092164 38697772 39317316 
1253.532 39946396 40582608 41225400 41875568 42534492 43203608 43883024 
1256.908 44570300 45256644 45925292 46546096 47077828 47471324 47671916 
1260.283 47631872 47317700 46713612 45826892 44684904 43334360 41830836 
1263.658 40237504 38618852 37029732 35516628 34113204 32837864 31698294 
1267.033 30692476 29813176 29049070 28388134 27818378 27328086 26906022 
1270.409 26541990 26226090 25949534 25705318 25487590 25291782 25114316 
1273.784 24951770 24800858 24658100 24520404 24385416 24251834 24119378 
1277.159 23988260 23858652 23730202 23601682 23471002 23335428 23192172 
1280.534 23038238 22870914 22687660 22486620 22267152 22030540 21780888 
1283.910 21525042 21272374 21034912 20825074 20655646 20539534 20487880 
1287.285 20511638 20620968 20825110 21132894 21552618 22091336 22754312 
1290.660 23543964 24457478 25484146 26602258 27778710 28963986 30097354 
1294.035 31114322 31948220 32546672 32878072 32935866 32739528 32330200 
1297.411 31765840 31107024 30413202 29736812 29115536 28575046 28128474 
1300.786 27777930 27517260 27334118 27213420 27137476 27088664 27051670 
1304.161 27011790 26957494 26880078 26773354 26634844 26465670 26270440 
1307.536 26056898 25834458 25613750 25405062 25217542 25059448 24937872 
1310.912 24859204 24829590 24853974 24936680 25080580 25287006 25556500 
1314.287 25888968 26285226 26746678 27275864 27875292 28547302 29293650 
1317.662 30114968 31011856 31983956 33030492 34148008 35329580 36562600 
1321.037 37826096 39091824 40322060 41468988 42482276 43309172 43904028 
1324.413 44240432 44317628 44168236 43852308 43456584 43075856 42793660 
1327.788 42677108 42761812 43050976 43520528 44128624 44827496 45569588 
1331.163 46318740 47051752 47758824 48443784 49121888 49817436 50557352 
1334.538 51367452 52265940 53258276 54334848 55470152 56628172 57762076 
1337.914 58819684 59749632 60498992 61020940 61281308 61260628 60959704 
1341.289 60397160 59605596 58623920 57491588 56248700 54929972 53566844 
1344.664 52186944 50809848 49447988 48106336 46784604 45481792 44201212 
1348.039 42953044 41757764 40644276 39644848 38795364 38129096 37673896 
1351.415 37454132 37488376 37789620 38366392 39220660 40345768 41721432 
1354.790 43312284 45063480 46897620 48726152 50449716 51965912 53187488 
1358.165 54040932 54477976 54482444 54072080 53300792 52247816 51021424 
1361.540 49743084 48529032 47488656 46699960 46199800 45982640 46003636 
1364.916 46191580 46454932 46701584 46845648 46814684 46566456 46093784 
1368.291 45428080 44629084 43775412 42947264 42207116 41600356 41151156 
1371.666 40866752 40743944 40774228 40947284 41250212 41667308 42180164 
1375.041 42766824 43405172 44075480 44759608 45442280 46108964 46743464 
1378.417 47330852 47857108 48311744 48688900 48985148 49197952 49323992 
1381.792 49359144 49301424 49153352 48922992 48622484 48263308 47855108 
1385.167 47404204 46916668 46404968 45892072 45410020 44996588 44682668 
1388.542 44484364 44400492 44414952 44502604 44632760 44775108 44898032 
1391.917 44966016 44942644 44787672 44463952 43948904 43242804 42373768 
1395.293 41386796 40330608 39239988 38129492 37001048 35856848 34711276 
1398.668 33600436 32575280 31685606 30966734 30427490 30054492 29821978 
1402.043 29705340 29686820 29757854 29917064 30164938 30499212 30913542 
1405.418 31398390 31943478 32541066 33185542 33872164 34595508 35347192 
1408.794 36117064 36894584 37670500 38439152 39197920 39945668 40680408 
1412.169 41398240 42092944 42759220 43395172 44003864 44592920 45171852 
1415.544 45747624 46322352 46891936 47448592 47986308 48504912 49012972 
1418.919 49522660 50044700 50578312 51108820 51611496 52059476 52429768 
1422.295 52704228 52872792 52933680 52893672 52766780 52571224 52326300 
1425.670 52046436 51739880 51409296 51053620 50671276 50263528 49836500 
1429.045 49402468 48978624 48583132 48233572 47942832 47716924 47554900 
1432.420 47448960 47385244 47344120 47301740 47231544 47104820 46898136 
1435.796 46601424 46227512 45811392 45398136 45022464 44694272 44399168 
1439.171 44106692 43784868 43406820 42958824 42442048 41870020 41261656 
1442.546 40633360 39995584 39351452 38699616 38037944 37364820 36679184 
1445.921 35980188 35267940 34546888 33829680 33139658 32508068 31969156 
1449.297 31550400 31271074 31142550 31170458 31356576 31696726 32176848 
1452.672 32768362 33425734 34094532 34703416 35168804 35401580 35310568 
1456.047 34838708 34000068 32905020 31721000 30597718 29620162 28801230 
1459.422 28116382 27534626 27034428 26606028 26246330 25950870 25711892 
1462.798 25519250 25365718 25252274 25191840 25202936 25302318 25493212 
1466.173 25761146 26076496 26400912 26696642 26924988 27050932 27041410 
1469.548 26859634 26467254 25827462 24917414 23746824 22374134 20907884 
1472.923 19470272 18158858 17016900 16036158 15179592 14408277 13698819 
1476.299 13045350 12453825 11930089 11473355 11072874 10712902 10378069 
1479.674 10058956 9752886 9462711 9192392 8943854 8715876 8505554 8309889 
1483.531 8127446 7957633 7799255 7649163 7502055 7352200 7195996 7033787 
1487.389 6869955 6710391 6558959 6415482 6276254 6138180 6001628 5872945 
1491.246 5761322 5674502 5614181 5574676 5544673 5511115 5462962 5394351 
1495.104 5306330 5206388 5104827 5009959 4924763 4847525 4774722 4704612 
1498.961 4638699 4580397 4533118 4497797 4472621 4454410 4440217 4428501 
1502.818 4418894 4410560 4400618 4382209 4345193 4279669 4182372 4063323 
1506.676 3946146 3858451 3814994 3813189 3837190 3869516 3895961 3909401 
1510.533 3909200 3899270 3885530 3872759 3863833 3858752 3855910 3853135 
1514.391 3848823 3841669 3830705 3816064 3798783 3781736 3769102 3763989 
1518.248 3767130 3775152 3780165 3771977 3742264 3689062 3622000 3558890 
1522.105 3519238 3513893 3540951 3588623 3641579 3687057 3717534 3732706 
1525.963 3738254 3742298 3750887 3766061 3786115 3808677 3832777 3860089 
1529.820 3893186 3933674 3978948 4023257 4057972 4076267 4077237 4068875 
1533.678 4066668 4085364 4132895 4206092 4295430 4387431 4470244 4535630 
1537.535 4578221 4596571 4592017 4569247 4536065 4502886 4482296 4485276 
1541.393 4517818 4579326 4662712 4757202 4850842 4935856 5009825 5076934 
1545.250 5144824 5221344 5309919 5408677 5511115 5609717 5699109 5778077 
1549.107 5850040 5921545 5999344 6086565 6182408 6282171 6380948 6475645 
1552.965 6566258 6656185 6750134 6852619 6964658 7083764 7203643 7316109 
1556.822 7411583 7480716 7518371 7530441 7539105 7574406 7662517 7809612 
1560.680 8003902 8226577 8459535 8689644 8907292 9108436 9294068 9468807 
1564.537 9640161 9814971 9997142 10186037 10376575 10561358 10733551 
1567.912 10888009 11023183 11141844 11250473 11357699 11470463 11593500 
1571.288 11727464 11869949 12016159 12159216 12291072 12401079 12477933 
1574.663 12512819 12502281 12453552 12383964 12316228 12266429 12238959 
1578.038 12225633 12212615 12184910 12130663 12043616 11923448 11774376 
1581.413 11602654 11413959 11212084 10998171 10772984 10538070 10296903 
1584.789 10053972 9813683 9578068 9347251 9119568 8893900 8670849 8453251 
1588.646 8244879 8048827 7866257 7696006 7535936 7384182 7240567 7106059 
1592.503 6981594 6867195 6760532 6658136 6556201 6452507 6347493 6243480 
1596.361 6143053 6047623 5956546 5867403 5778043 5687393 5596694 5508363 
1600.218 5425049 5347856 5275205 5204275 5131916 5057088 4981033 4906768 
1604.076 4837842 4776230 4721327 4670717 4621754 4572696 4523978 4477341 
1607.933 4435062 4398175 4365910 4336491 4308414 4282379 4260864 4247848 
1611.791 4246242 4256514 4275319 4296400 4312363 4315877 4301621 4267656 
1615.648 4216932 4156646 4098476 4054828 4034594 4042019 4076100 4132159 
1619.505 4202546 4278330 4350380 4409656 4450460 4471584 4477643 4478045 
1623.363 4483100 4500877 4533788 4579091 4631164 4685119 4736936 4785409 
1627.220 4830806 4874699 4918966 4965348 5016193 5073883 5140835 5218662 
1631.078 5307403 5404617 5505343 5603038 5690044 5759039 5805074 5827372 
1634.935 5832006 5831099 5839965 5872139 5933100 6021349 6130182 6250875 
1638.792 6375165 6495925 6609319 6714261 6813507 6911968 7015266 7126639 
1642.650 7246160 7369421 7488908 7596289 7682887 7743731 7778610 7794431 
1646.507 7803438 7819867 7857316 7923348 8019360 8141322 8281352 8428115 
1650.365 8564959 8671796 8722637 8693024 8574151 8391935 8206824 8079476 
1654.222 8038025 8070396 8145306 8231777 8308809 8366667 8403218 8422541 
1658.080 8429535 8428115 8418420 8396800 8357446 8294928 8205777 8090278 
1661.937 7952707 7800908 7644880 7494672 7358603 7241544 7144087 7062917 
1665.794 6990819 6917859 6831750 6720991 6577359 6398736 6191449 5969210 
1669.652 5750141 5550076 5378651 5238347 5124875 5029701 4941653 4848329 
1673.509 4737104 4597944 4427731 4234397 4036634 3856010 3708778 3598712 
1677.367 3518203 3452937 3388549 3316258 3234966 3151620 3076398 3017705 
1681.224 2975767 2941139 2894439 2813492 2680949 2496589 2283227 2080158 
1685.082 1921412 1818586 1762824 1734647 1715685 1692566 1658173 1610979 
1688.939 1552250 1484985 1412778 1340084 1272187 1214236 1170179 1139814 
1692.796 1118121 1093705 1052219 979950 871636 735734 597121 485983 421536 
1697.136 404091 416329 432647 425483 373680 271717 136069 2054 -96442 
1701.476 -142850 -143082 -115224 -79249 -50460 -38632 -47312 -74810 -114761 
1705.815 -158451 -198361 -229392 -250089 -261216 -265190 -264825 -262574 
1709.673 -260024 -257640 -255123 -251215 -245420 -237506 -228167 -218464 
1713.530 -209687 -202732 -198361 -197467 -202633 -216973 -243731 -283369 
1717.387 -331578 -378590 -411793 -421988 -405768 -366274 -311050 -249262 
1721.245 -188988 -134470 -87233 -44828 -3512 41021 91492 148598 211910 
1725.584 280570 354579 434339 520449 613313 712767 818485 931069 1052053 
1729.924 1183435 1326956 1481993 1646033 1813595 1978360 2135495 2285559 
1733.781 2436041 2598775 2785380 3000322 3239906 3495923 3759610 4024695 
1737.639 4286696 4543933 4796733 5046730 5295664 5544203 5791642 6035796 
1741.496 6273901 6502921 6720991 6926983 7120745 7302260 7471682 7628289 
1745.354 7770345 7895881 8002856 8090548 8158980 8209254 8241672 8255720 
1749.211 8249371 8220296 8167892 8095612 8011260 7926014 7849758 7787482 
1753.069 7737694 7692870 7641372 7569786 7467468 7328544 7154764 6955500 
1756.926 6745355 6538575 6343122 6158882 5978112 5789057 5579107 5339504 
1760.783 5067681 4769128 4455716 4142395 3842572 3563834 3307277 3068790 
1764.641 2841506 2617475 2389195 2151944 1904639 1651155 1399481 1160611 
1768.498 943688 752462 583849 427573 271518 103357 -82661 -282309 -481932 
1772.838 -663664 -814168 -928978 -1013480 -1077837 -1133162 -1187423 
1776.213 -1243395 -1300516 -1356441 -1409056 -1458692 -1507200 -1557287 
1779.588 -1610175 -1664178 -1715535 -1759724 -1794108 -1818724 -1836871 
1782.964 -1853005 -1871415 -1894277 -1921658 -1951049 -1979943 -2006131 
1786.339 -2028228 -2046070 -2059063 -2066483 -2067967 -2063779 -2056359 
1789.714 -2049730 -2049533 -2060844 -2085807 -2122408 -2164116 -2202425 
1793.089 -2230149 -2244389 -2246927 -2242280 -2235357 -2229885 -2227775 
1796.465 -2229094 -2233280 -2240170 -2250224 -2264298 -2283152 -2306092 
1799.840 -2331403 -2355856 -2376486 -2391743 -2401529 -2407065 -2410327 
1803.215 -2412832 -2415270 -2417412 -2418862 -2419554 -2419850 -2420608 
1806.590 -2422618 -2426506 -2432503 -2440245 -2449603 -2460475 -2472633 
1809.966 -2485844 -2499450 -2512100 -2522279 -2529560 -2534039 -2537367 
1813.341 -2541814 -2549357 -2560952 -2576136 -2592967 -2608349 -2619975 
1816.716 -2626035 -2626562 -2622840 -2616484 -2609337 -2602157 -2595471 
1820.091 -2588719 -2581571 -2573897 -2566156 -2558778 -2553211 -2550642 
1823.467 -2551992 -2557855 -2567441 -2578541 -2588126 -2593330 -2592342 
1826.842 -2585853 -2576696 -2569746 -2570043 -2581373 -2603803 -2633873 
1830.217 -2664797 -2689066 -2702007 -2702765 -2694533 -2682546 -2672305 
1833.592 -2667464 -2669637 -2677607 -2688967 -2701184 -2712281 -2721237 
1836.968 -2727921 -2731840 -2732103 -2727296 -2716199 -2698352 -2674577 
1840.343 -2647540 -2620732 -2597941 -2583185 -2579101 -2587236 -2606438 
1843.718 -2632951 -2660944 -2683666 -2695883 -2695356 -2683106 -2662722 
1847.093 -2639538 -2618690 -2603672 -2596096 -2595668 -2600246 -2607723 
1850.469 -2616846 -2627023 -2638978 -2652744 -2667662 -2681657 -2692425 
1853.844 -2697891 -2697661 -2693051 -2686761 -2681295 -2678496 -2678331 
1857.219 -2679714 -2681427 -2682744 -2684390 -2687749 -2694335 -2704312 
1860.594 -2716660 -2728679 -2737898 -2742014 -2740697 -2734704 -2725254 
1863.969 -2713170 -2698912 -2682184 -2663611 -2644774 -2629032 -2620502 
1867.345 -2622807 -2636837 -2660417 -2688243 -2713302 -2730193 -2736515 
1870.720 -2732663 -2721863 -2706980 -2690614 -2674017 -2657288 -2640558 
1874.095 -2624454 -2610292 -2599588 -2593626 -2592506 -2595273 -2600510 
1877.470 -2606735 -2612762 -2617900 -2621523 -2622610 -2620008 -2612466 
1880.846 -2599653 -2582658 -2563883 -2546689 -2533348 -2525079 -2520599 
1884.221 -2517404 -2512561 -2504161 -2492597 -2480144 -2470261 -2466274 
1887.596 -2469898 -2481100 -2497835 -2516613 -2534237 -2548270 -2557559 
1890.971 -2561874 -2562269 -2560260 -2557658 -2556274 -2557855 -2563224 
1894.347 -2571953 -2582263 -2591353 -2596854 -2597546 -2593791 -2587763 
1897.722 -2582856 -2580813 -2582658 -2587039 -2591518 -2593198 -2590892 
1901.097 -2584503 -2576070 -2568001 -2562236 -2559963 -2560589 -2563159 
1904.472 -2566189 -2568495 -2569022 -2567276 -2562599 -2554298 -2542472 
1907.848 -2528110 -2513286 -2501196 -2494508 -2494903 -2502415 -2515790 
1911.223 -2532392 -2549719 -2566090 -2580253 -2592144 -2600675 -2605878 
1914.598 -2607690 -2607361 -2608085 -2614013 -2630119 -2658671 -2698583 
1917.973 -2744582 -2788206 -2822015 -2841503 -2847560 -2845223 -2841668 
1921.349 -2843149 -2852465 -2867936 -2884459 -2896242 -2898744 -2891404 
1924.724 -2876954 -2859970 -2845157 -2834887 -2829817 -2829257 -2831726 
1928.099 -2836204 -2842787 -2851280 -2861681 -2872478 -2882616 -2889890 
1931.474 -2894333 -2895814 -2895782 -2895058 -2894597 -2895058 -2896802 
1934.850 -2901772 -2911876 -2929451 -2955220 -2987240 -3020836 -3049462 
1938.225 -3067031 -3070848 -3062985 -3049199 -3037749 -3036136 -3047554 
1941.600 -3070519 -3098911 -3125624 -3144210 -3152171 -3150526 -3142861 
1944.975 -3132368 -3121117 -3109439 -3096740 -3082758 -3068216 -3053970 
1948.351 -3041532 -3031629 -3023501 -3016690 -3010734 -3006786 -3006720 
1951.726 -3013104 -3027187 -3048574 -3075158 -3103879 -3132927 -3162072 
1955.101 -3193319 -3229762 -3273435 -3324010 -3378294 -3430960 -3476257 
1958.476 -3509126 -3528057 -3532428 -3524014 -3504261 -3475468 -3440723 
1961.852 -3404463 -3373362 -3353503 -3349854 -3363236 -3389801 -3422577 
1965.227 -3453182 -3474416 -3483455 -3481746 -3473233 -3462747 -3453773 
1968.602 -3448678 -3449171 -3458014 -3478919 -3516225 -3571569 -3643401 
1971.977 -3724189 -3803124 -3869334 -3914783 -3937308 -3939475 -3926078 
1975.353 -3899874 -3858957 -3798722 -3713118 -3601539 -3470439 -3333085 
1978.728 -3205456 -3100918 -3025805 -2978717 -2951830 -2934486 -2918919 
1982.103 -2900653 -2879456 -2858126 -2839298 -2824781 -2813687 -2804732 
1985.478 -2795580 -2785901 -2775728 -2765785 -2757192 -2750509 -2745767 
1988.854 -2744022 -2747150 -2756632 -2774115 -2799465 -2830245 -2863064 
1992.229 -2893807 -2920236 -2942188 -2961637 -2980362 -2999283 -3016690 
1995.604 -3029358 -3033471 -3027351 -3012610 -2994018 -2978552 -2972135 
1998.979 -2979013 -2999448 -3031991 -3072526 -3118091 -3165262 -3211771 
2002.354 -3254888 -3289976 -3312731 -3318288 -3303722 -3270706 -3222460 
2005.730 -3166282 -3109702 -3058346 -3015473 -2982007 -2956339 -2935967 
2009.105 -2917932 -2899402 -2876823 -2848350 -2812337 -2770197 -2725715 
2012.480 -2684028 -2651558 -2632325 -2627122 -2633412 -2646717 -2662063 
2015.855 -2676520 -2690252 -2705300 -2724629 -2748764 -2775629 -2800913 
2019.231 -2818723 -2825406 -2820106 -2805489 -2786724 -2768617 -2755151 
2022.606 -2747117 -2743858 -2742936 -2742014 -2739413 -2734408 -2726802 
2025.981 -2717055 -2705761 -2694236 -2684390 -2678430 -2678265 -2683896 
2029.356 -2693973 -2705037 -2713400 -2716660 -2713763 -2706486 -2698254 
2032.732 -2692458 -2691898 -2697990 -2710437 -2728086 -2749060 -2771185 
2036.107 -2791597 -2806543 -2812172 -2805029 -2783728 -2749850 -2708165 
2039.482 -2665159 -2627122 -2598830 -2580649 -2571327 -2566848 -2563916 
2042.857 -2560688 -2556373 -2552091 -2547710 -2542604 -2533578 -2516481 
2046.233 -2486305 -2439092 -2372432 -2286382 -2183634 -2070506 -1956360 
2049.608 -1852213 -1769591 -1717812 -1699561 -1712036 -1745765 -1788037 
2052.983 -1825092 -1847990 -1853599 -1845977 -1834429 -1828457 -1835518 
2056.358 -1856799 -1888372 -1922549 -1952269 -1972357 -1982153 -1984264 
2059.734 -1982384 -1980009 -1978855 -1978558 -1978030 -1976381 -1973215 
2063.109 -1969191 -1963715 -1956492 -1946035 -1930993 -1910937 -1887283 
2066.484 -1862375 -1839610 -1821100 -1807901 -1799025 -1793185 -1788565 
2069.859 -1784836 -1781965 -1780447 -1779952 -1779127 -1775729 -1767875 
2073.235 -1755038 -1738966 -1722333 -1708670 -1699230 -1693686 -1688834 
2076.610 -1680582 -1665399 -1641931 -1611198 -1576370 -1541407 -1509676 
2079.985 -1482963 -1461664 -1445086 -1431943 -1420714 -1409947 -1397727 
2083.360 -1381973 -1361131 -1334442 -1302796 -1269561 -1238704 -1215245 
2086.736 -1202491 -1201830 -1212370 -1231666 -1256743 -1285188 -1315910 
2090.111 -1348480 -1383162 -1419327 -1455984 -1490855 -1521563 -1546062 
2093.486 -1562966 -1571946 -1572936 -1566631 -1553854 -1535959 -1515290 
2096.861 -1494190 -1475434 -1461037 -1451394 -1446077 -1443270 -1440991 
2100.237 -1437821 -1432636 -1425734 -1417576 -1408758 -1399478 -1389602 
2103.612 -1379760 -1370049 -1361528 -1355120 -1350859 -1347754 -1344517 
2106.987 -1339298 -1331799 -1322616 -1314193 -1309568 -1311021 -1319049 
2110.362 -1332625 -1348679 -1363873 -1375929 -1384384 -1390692 -1397133 
2113.738 -1406480 -1420119 -1438845 -1461400 -1486662 -1512714 -1537940 
2117.113 -1560490 -1579110 -1592744 -1600932 -1604332 -1604794 -1604233 
2120.488 -1604959 -1607963 -1612948 -1618824 -1624138 -1628496 -1632721 
2123.863 -1638894 -1649490 -1665663 -1687184 -1712234 -1738834 -1765961 
2127.239 -1794636 -1827996 -1870062 -1923307 -1988189 -2061009 -2136751 
2130.614 -2209216 -2274549 -2331140 -2380671 -2425056 -2465879 -2501953 
2133.989 -2530383 -2548072 -2553277 -2548138 -2537367 -2528011 -2524849 
2137.364 -2531042 -2545141 -2563455 -2581933 -2597315 -2608283 -2615660 
2140.740 -2620699 -2624026 -2625211 -2623729 -2618789 -2611115 -2602387 
2144.115 -2594450 -2588422 -2584404 -2581011 -2576861 -2571130 -2565201 
2147.490 -2560523 -2559074 -2561347 -2565827 -2570734 -2574984 -2580550 
2150.865 -2591880 -2616154 -2660713 -2730589 -2827216 -2948309 -3089042 
2154.240 -3242884 -3402359 -3559870 -3703985 -3820892 -3893438 -3904209 
2157.616 -3842142 -3706844 -3513333 -3287674 -3061109 -2861978 -2707902 
2160.991 -2604857 -2548632 -2529560 -2536181 -2557756 -2586018 -2613750 
2164.366 -2634630 -2643588 -2637562 -2616154 -2582493 -2542143 -2502579 
2167.741 -2468976 -2446308 -2436325 -2440245 -2458202 -2489698 -2533776 
2171.117 -2587763 -2646157 -2702007 -2747282 -2776024 -2785836 -2778955 
2174.492 -2760320 -2737272 -2715310 -2698188 -2686234 -2679352 -2676125 
2177.867 -2677343 -2682843 -2693084 -2705992 -2717879 -2724365 -2721632 
2181.242 -2709054 -2689132 -2667003 -2647771 -2635157 -2628933 -2625475 
2184.618 -2619546 -2606043 -2582032 -2547051 -2503140 -2453161 -2400179 
2187.993 -2347618 -2297918 -2254047 -2218809 -2193425 -2177666 -2168930 
2191.368 -2162764 -2154720 -2141631 -2123562 -2102294 -2082081 -2065592 
2194.743 -2053490 -2043959 -2032812 -2016487 -1993565 -1965463 -1936601 
2198.119 -1911695 -1894739 -1887118 -1887745 -1894178 -1904702 -1918095 
2201.494 -1935216 -1956195 -1980471 -2004779 -2024435 -2033802 -2028690 
2204.869 -2007517 -1971961 -1924792 -1870359 -1811597 -1750814 -1689131 
2208.244 -1627803 -1569272 -1516346 -1472363 -1439604 -1418765 -1408494 
2211.620 -1406215 -1409155 -1415100 -1423356 -1433528 -1446110 -1460607 
2214.995 -1476656 -1493068 -1509115 -1524601 -1540647 -1558443 -1579836 
2218.370 -1605322 -1634405 -1665861 -1697349 -1727085 -1753454 -1775102 
2221.745 -1792327 -1805756 -1817107 -1828293 -1841754 -1859142 -1881246 
2225.121 -1906813 -1933038 -1956920 -1974435 -1984033 -1985418 -1980570 
2228.496 -1972258 -1963715 -1956590 -1951973 -1949598 -1949334 -1951148 
2231.871 -1955403 -1962462 -1972126 -1982054 -1989442 -1990663 -1982615 
2235.246 -1964903 -1938580 -1907275 -1875308 -1846406 -1822881 -1805063 
2238.622 -1792162 -1782163 -1773716 -1765301 -1756424 -1746722 -1735798 
2241.997 -1723323 -1708571 -1690748 -1669129 -1643581 -1613938 -1580629 
2245.372 -1544609 -1507662 -1472693 -1441850 -1418039 -1402979 -1396770 
2248.747 -1398850 -1407305 -1420582 -1437359 -1456645 -1478109 -1500497 
2252.123 -1522422 -1540779 -1552863 -1556363 -1550849 -1538468 -1523214 
2255.498 -1509842 -1502940 -1504823 -1515884 -1533582 -1554712 -1575148 
2258.873 -1591853 -1602747 -1607072 -1605487 -1599017 -1590004 -1580926 
2262.248 -1574125 -1572045 -1575776 -1584854 -1597960 -1612122 -1624832 
2265.624 -1633645 -1637144 -1635230 -1628595 -1618131 -1604761 -1589542 
2268.999 -1573432 -1558443 -1546062 -1538534 -1537246 -1542133 -1551840 
2272.374 -1563659 -1574323 -1580761 -1581223 -1575313 -1563527 -1547812 
2275.749 -1530016 -1511658 -1493794 -1477085 -1461796 -1447728 -1434056 
2279.125 -1419657 -1403540 -1384615 -1362816 -1339232 -1315448 -1293810 
2282.500 -1275905 -1262128 -1252051 -1243494 -1234607 -1223505 -1209661 
2285.875 -1193668 -1177047 -1161615 -1148529 -1138879 -1132831 -1129659 
2289.250 -1128701 -1128800 -1128866 -1127015 -1121860 -1111978 -1097172 
2292.625 -1077804 -1055625 -1033578 -1013546 -997447 -985612 -977083 -969942 
2296.483 -962239 -952915 -941542 -929607 -918431 -910165 -906032 -906098 
2300.340 -909702 -915389 -921638 -926961 -930136 -930598 -928515 -924184 
2304.198 -918497 -912513 -907222 -903453 -901667 -902064 -904445 -908379 
2308.055 -913273 -918100 -921903 -923556 -922101 -916679 -907288 -894525 
2311.913 -879744 -864699 -851339 -840790 -833547 -829116 -826536 -824982 
2315.770 -823328 -821939 -821047 -821510 -823990 -828289 -833713 -838938 
2319.627 -841914 -840261 -832423 -817276 -795415 -768956 -742032 -720134 
2323.485 -709118 -714345 -738558 -781789 -840988 -910793 -984984 -1057080 
2327.342 -1122785 -1179889 -1227999 -1268471 -1302432 -1330874 -1353468 
2330.718 -1369422 -1378307 -1380057 -1375896 -1368134 -1359050 -1350793 
2334.093 -1344715 -1341048 -1339397 -1339298 -1339793 -1340024 -1339298 
2337.468 -1336655 -1331436 -1322781 -1310691 -1295462 -1277986 -1258857 
2340.843 -1238902 -1218152 -1196675 -1174404 -1152263 -1130683 -1110623 
2344.219 -1091983 -1073341 -1051758 -1023198 -983893 -931557 -866617 -792174 
2348.076 -713187 -635608 -565825 -508872 -468196 -445358 -439532 -447973 
2351.933 -466276 -490570 -517245 -544183 -571285 -598948 -627734 -658040 
2355.791 -688840 -718943 -746795 -771800 -794291 -815524 -836921 -859904 
2359.648 -884506 -909933 -934268 -955395 -971463 -981380 -985083 -982769 
2363.506 -975264 -963065 -946501 -926003 -902064 -875776 -848594 -822204 
2367.363 -798094 -776662 -757909 -740576 -723442 -704619 -682918 -657510 
2371.220 -628065 -594613 -557652 -517874 -475974 -433110 -390507 -348860 
2375.078 -309759 -273898 -242175 -214787 -191936 -173256 -157722 -144407 
2378.935 -131787 -119067 -105452 -91274 -77195 -64308 -53640 -45855 -40752 
2383.275 -37638 -35551 -33397 -30581 -26904 -22563 -17925 -13054 -7918 -2186 
2388.097 4208 11199 18257 24586 29291 32041 32936 32571 31942 32174 33698 
2393.401 36747 40789 45164 49041 51758 52852 51791 48908 44435 39099 34029 
2398.705 30517 29689 32605 39795 51062 65676 82743 101136 119994 138555 
2403.526 156520 173325 188971 203092 215955 227823 239393 250930 262832 
2407.866 275298 288129 301093 314589 328946 344830 362571 382203 402798 
2412.206 422730 440442 454405 464223 470459 474937 479515 485784 494508 
2416.545 505289 516701 527383 536174 542610 547255 551037 555151 559994 
2420.885 565634 571507 576450 579304 579270 576019 570014 561985 553624 
2425.224 546857 543141 544269 551037 563279 579934 599145 618854 637038 
2429.564 652003 663087 670222 674337 676859 679281 683098 689536 698662 
2433.904 710278 723321 736365 748081 757939 766005 773274 781605 792460 
2438.243 806933 825158 845840 867353 887573 905303 919780 931634 942027 
2442.583 952155 963147 975434 989049 1003496 1018042 1032124 1045377 1057732 
2446.922 1069225 1080286 1091613 1104003 1117955 1134133 1152039 1170810 
2450.780 1188818 1204600 1216728 1224902 1229720 1232876 1236133 1241217 
2454.637 1248992 1258862 1269761 1279664 1286975 1290764 1290897 1288205 
2458.495 1284117 1279963 1277039 1276042 1277271 1280794 1286211 1293190 
2462.352 1301465 1310471 1319810 1328983 1337292 1344537 1350587 1355772 
2466.209 1360824 1366640 1373920 1383127 1394163 1406263 1418629 1430330 
2470.067 1440902 1450343 1459419 1469326 1481062 1495658 1512948 1532432 
2473.924 1553049 1573433 1592754 1610979 1628539 1646632 1666455 1689240 
2477.782 1715452 1744527 1775566 1806841 1836388 1862576 1884306 1901012 
2481.639 1913192 1921579 1927403 1931996 1936456 1941881 1948570 1957124 
2485.497 1968075 1981422 1997200 2014842 2033018 2050029 2064278 2074465 
2489.354 2080391 2082788 2083255 2083621 2085219 2088581 2093143 2097771 
2493.211 2101500 2103930 2105428 2107459 2111788 2119413 2130467 2143886 
2497.069 2158437 2172157 2184212 2194502 2204326 2214750 2227272 2242692 
2500.926 2260811 2281195 2302747 2324332 2345286 2365508 2385130 2404454 
2504.784 2424579 2446237 2470329 2497555 2528015 2561177 2595575 2629509 
2508.641 2660812 2688183 2710821 2729460 2744865 2758602 2772241 2786447 
2512.499 2801453 2816794 2831701 2845242 2856348 2864720 2870190 2872891 
2516.356 2873592 2873358 2873392 2874926 2878762 2885066 2893405 2902811 
2520.213 2912351 2921124 2928463 2934434 2939037 2942340 2944375 2945376 
2524.071 2945409 2945109 2945409 2947210 2951280 2957719 2965759 2974299 
2527.928 2982039 2988312 2993016 2997186 3002057 3008530 3017238 3028015 
2531.786 3039660 3051605 3063117 3074263 3085442 3097054 3109435 3122384 
2535.643 3135533 3148316 3160798 3172880 3185364 3198615 3212734 3227622 
2539.500 3242410 3256898 3270553 3283907 3297294 3311050 3324605 3337427 
2543.358 3347811 3354589 3357294 3356526 3353588 3350616 3349213 3350149 
2547.215 3353120 3356660 3359197 3359665 3357628 3353554 3348980 3345240 
2551.073 3343871 3344906 3348145 3352452 3356393 3358262 3357160 3352486 
2554.930 3344439 3334388 3324138 3315858 3311617 3312986 3320332 3332953 
2558.788 3349047 3366343 3382505 3395629 3404913 3410356 3412627 3412994 
2562.645 3412560 3412259 3412560 3413295 3414196 3414297 3412961 3409621 
2566.502 3404211 3397165 3389384 3381904 3375826 3371886 3370283 3370617 
2570.360 3372454 3374892 3377797 3380668 3383373 3385778 3387715 3388683 
2574.217 3388316 3386646 3383941 3381136 3378899 3378164 3379233 3381871 
2578.075 3385544 3389618 3393525 3397566 3402007 3407617 3415132 3424583 
2581.932 3435904 3448128 3460686 3472308 3482730 3491347 3498528 3504541 
2585.790 3509818 3515196 3521510 3529460 3539648 3552309 3567476 3584714 
2589.647 3603557 3623069 3642816 3662263 3680942 3698753 3715161 3729999 
2593.504 3743033 3754597 3764824 3774283 3783508 3792900 3802694 3812521 
2597.362 3822281 3831708 3840867 3849793 3859119 3869048 3879813 3891548 
2601.219 3904018 3916823 3929929 3943304 3957046 3971492 3986706 4002490 
2605.077 4018609 4034694 4050346 4065296 4079545 4093124 4106336 4119415 
2608.934 4132895 4147045 4162534 4179729 4199200 4221047 4245238 4271069 
2612.792 4297906 4324879 4351016 4375716 4398911 4420668 4441790 4462946 
2616.649 4484874 4508008 4532717 4558532 4584784 4611004 4636723 4662042 
2620.506 4687865 4715498 4746550 4782026 4822430 4867194 4914844 4963974 
2624.364 5012942 5061044 5108313 5155420 5202934 5251493 5300829 5350070 
2628.221 5398411 5444844 5489068 5531283 5572327 5613140 5654528 5697028 
2632.079 5740706 5785397 5831267 5878117 5925945 5974820 6024474 6074502 
2635.936 6124604 6174274 6223480 6272455 6321807 6372004 6423284 6475645 
2639.793 6528585 6581598 6633979 6685390 6735596 6784730 6832962 6880458 
2643.651 6926949 6972570 7017084 7060357 7102759 7144423 7185722 7227057 
2647.508 7268633 7310145 7351593 7392743 7433121 7472896 7512168 7551310 
2651.366 7590590 7630615 7671353 7712903 7754593 7795612 7835150 7872431 
2655.223 7906746 7938263 7966981 7993811 8019360 8044338 8069079 8093890 
2659.081 8118534 8142942 8166373 8188759 8209457 8228265 8245048 8259839 
2662.938 8272740 8284324 8294928 8305060 8315159 8325156 8335018 8344071 
2666.795 8351907 8357750 8361196 8362006 8360419 8356568 8350961 8344273 
2670.653 8336943 8329277 8321441 8313402 8304925 8295671 8285607 8274563 
2674.510 8262676 8250316 8238227 8226340 8215097 8204223 8193385 8182006 
2678.368 8169614 8155907 8140917 8124645 8107697 8090548 8073806 8057772 
2682.225 8043122 8030398 8019901 8012205 8007277 8005118 8005388 8007244 
2686.083 8010281 8013826 8017504 8021116 8024862 8028811 8033266 8038262 
2689.940 8044135 8050649 8057772 8065366 8072961 8080219 8087038 8093519 
2693.797 8099561 8105875 8112727 8120560 8129472 8139364 8149627 8160094 
2697.655 8170560 8181094 8192406 8204831 8218878 8234445 8251195 8268215 
2701.512 8284729 8300298 8314619 8328128 8341368 8355150 8369775 8385415 
2705.370 8401934 8419164 8437170 8455988 8475922 8497410 8520084 8543501 
2709.227 8567088 8589799 8611057 8630727 8648979 8666725 8684979 8704517 
2713.084 8726221 8750495 8777170 8806113 8837121 8869753 8904045 8940032 
2716.942 8977747 9017562 9059884 9104816 9152358 9202274 9253957 9306932 
2720.799 9360251 9413443 9466403 9518997 9571970 9625492 9679800 9734893 
2724.657 9790638 9846322 9901674 9956593 10011416 10066213 10121322 10176709 
2728.514 10231663 10285130 10335923 10382820 10425615 10464239 10499506 
2731.889 10532740 10564787 10596430 10627565 10657718 10685904 10711103 
2735.265 10732600 10750228 10763882 10774309 10782155 10788677 10794825 
2738.640 10801720 10810213 10821016 10834332 10849789 10867013 10884781 
2742.015 10902211 10918316 10932859 10945839 10957766 10969218 10981009 
2745.390 10993583 11007279 11022470 11038852 11056491 11075050 11094084 
2748.766 11113018 11131000 11147385 11161868 11174481 11185735 11196206 
2752.141 11206882 11218000 11229697 11241496 11252716 11262986 11271419 
2755.516 11278492 11284409 11290055 11295802 11302195 11309609 11317668 
2758.891 11326137 11334741 11343142 11351305 11359230 11367086 11375317 
2762.267 11384127 11393753 11404604 11416578 11429504 11442635 11455256 
2765.642 11466687 11475975 11483051 11488291 11492373 11496082 11500675 
2769.017 11506765 11514931 11525513 11538477 11553686 11570700 11589178 
2772.392 11608236 11626988 11644345 11659456 11671743 11681239 11688489 
2775.768 11694821 11701322 11709593 11720827 11735567 11753984 11776146 
2779.143 11801237 11828340 11856397 11884354 11911325 11936799 11960810 
2782.518 11984312 12008393 12034724 12064669 12099420 12139181 12183751 
2785.893 12232381 12283778 12337123 12391225 12445642 12499996 12554289 
2789.269 12608555 12662828 12717483 12772485 12828109 12884149 12940607 
2792.644 12997209 13053681 13109956 13165760 13221127 13275851 13329525 
2796.019 13381666 13431558 13478107 13520661 13558570 13591594 13620449 
2799.394 13645682 13668283 13689655 13710514 13731546 13753160 13775698 
2802.770 13798990 13822967 13847357 13871953 13896652 13921252 13945783 
2806.145 13970521 13994954 14019250 14042658 14064492 14084172 14101422 
2809.520 14116448 14130277 14144619 14161119 14181625 14207164 14237806 
2812.895 14272868 14310911 14350533 14390570 14430474 14470381 14511080 
2816.271 14553392 14598040 14645604 14696294 14749799 14806500 14866122 
2819.646 14928702 14994309 15063082 15134611 15208793 15284945 15362723 
2823.021 15441545 15520931 15600606 15680606 15760826 15841678 15923716 
2826.396 16007934 16095297 16186599 16282255 16382473 16486637 16593961 
2829.771 16703581 16814712 16926938 17040678 17156064 17273860 17394484 
2833.147 17518484 17646284 17778436 17915634 18058576 18208510 18366132 
2836.522 18532112 18706354 18889282 19080772 19281592 19493490 19718878 
2839.897 19961170 20224290 20512506 20830010 21181006 21569612 22000146 
2843.272 22477270 23005710 23589440 24230848 24929274 25678918 26467394 
2846.648 27274948 28075520 28834902 29516628 30084462 30505148 30754926 
2850.023 30821330 30705740 30422016 29995128 29458756 28847438 28196634 
2853.398 27538934 26898970 26297018 25746344 25253994 24822750 24451660 
2856.773 24137524 23875140 23658886 23482892 23341406 23229502 23142684 
2860.149 23077616 23032264 23005502 22997188 23007912 23038274 23088414 
2863.524 23157852 23245546 23350182 23470896 23607630 23761242 23932972 
2866.899 24124106 24335228 24565422 24811908 25071068 25337968 25607810 
2870.274 25875568 26136878 26387040 26621880 26837216 27029316 27196136 
2873.650 27337012 27454110 27551254 27633770 27707894 27779168 27852468 
2877.025 27931400 28018086 28114122 28220642 28338474 28468790 28612522 
2880.400 28770818 28944754 29134848 29341152 29562274 29795432 30036490 
2883.775 30279140 30516098 30739810 30942504 31118522 31264200 31378802 
2887.151 31464112 31525106 31569108 31604030 31639236 31684570 31748838 
2890.526 31841852 31973936 32155580 32400564 32724916 33147096 33689584 
2893.901 34376612 35231256 36275636 37523740 38977276 40619136 42410372 
2897.276 44286328 46153880 47906464 49426152 50598008 51334332 51578548 
2900.652 51318224 50583636 49444976 47998484 46345908 44593140 42831948 
2904.027 41132324 39549312 38117844 36857288 35776640 34876948 34154032 
2907.402 33601256 33211398 32977722 32894760 32958922 33166836 33514634 
2910.777 33995984 34600496 35311572 36108320 36962876 37842504 38713524 
2914.153 39539080 40284688 40921288 41425064 41781040 41983876 42036656 
2917.528 41950116 41739816 41425796 41028848 40569912 40069852 39546848 
2920.903 39016788 38493456 37986484 37503220 37048748 36626436 36239184 
2924.278 35889668 35580528 35314232 35092532 34916048 34783600 34692796 
2927.654 34640144 34620660 34628804 34658448 34702052 34751296 34797280 
2931.029 34829120 34835872 34806148 34728072 34591024 34385256 34103240 
2934.404 33741152 33298288 32778904 32190372 31544094 30853772 30133400 
2937.779 29398514 28664090 27943944 27251556 26598770 25994770 25446798 
2941.155 24958578 24530536 24160082 23841884 23568836 23331966 23121542 
2944.530 22927006 22737236 22541794 22331540 22099286 21842242 21561078 
2947.905 21260892 20949506 20636570 20331948 20043158 19775710 19531960 
2951.280 19312006 19113870 18935036 18772742 18624310 18487370 18359808 
2954.656 18239366 18123758 18010774 17898578 17785580 17671304 17555952 
2958.031 17440596 17326960 17216872 17111980 17013592 16922426 16838684 
2961.406 16762156 16693080 16631346 16577438 16531862 16495138 16467331 
2964.781 16448541 16438492 16437115 16444687 16461583 16488979 16528215 
2968.156 16580949 16648423 16732059 16832932 16952124 17090716 17249726 
2971.532 17430042 17631964 17854868 18096538 18352894 18616838 18878520 
2974.907 19125746 19343356 19515844 19629394 19672522 19639864 19532862 
2978.282 19360436 19137242 18882534 18618050 18362918 18133742 17942466 
2981.657 17794936 17692390 17631446 17605636 17606154 17622786 17645698 
2985.033 17665298 17673546 17664780 17636002 17586866 17519624 17438802 
2988.408 17350064 17259208 17171988 17092508 17023620 16966526 16921048 
2991.783 16886150 16860384 16842818 16832726 16830280 16835792 16849742 
2995.158 16872200 16902894 16940720 16984476 17032854 17084580 17138898 
2998.534 17195222 17253242 17312444 17372620 17433008 17493476 17553398 
3001.909 17613124 17672650 17732804 17794108 17857214 17922816 17991158 
3005.284 18062548 18136714 18213174 18291340 18370212 18449166 18527790 
3008.659 18605944 18684008 18762396 18841596 18921884 19003328 19085582 
3012.035 19168650 19252532 19337398 19423910 19512240 19602460 19693878 
3015.410 19785836 19876912 19966376 20053464 20138348 20221686 20304588 
3018.785 20388098 20473292 20560620 20650330 20742524 20836894 20932850 
3022.160 21030426 21128892 21228078 21327566 21427146 21526678 21626094 
3025.536 21725674 21825760 21926500 22028484 22131676 22236112 22341308 
3028.911 22446424 22550902 22653798 22754764 22854078 22952156 23049734 
3032.286 23147786 23246632 23346372 23446730 23547390 23648076 23749204 
3035.661 23851264 23954926 24060852 24168908 24278498 24388990 24499544 
3039.037 24610164 24721336 24833906 24948892 25066892 25187626 25310466 
3042.412 25434326 25558292 25681660 25804534 25927022 26049370 26171574 
3045.787 26293216 26413658 26532550 26649992 26766448 26882440 26998672 
3049.162 27115046 27231448 27347210 27462122 27576180 27690094 27804532 
3052.538 27920516 28038054 28157390 28277644 28398780 28520410 28643136 
3055.913 28767736 28894852 29024592 29156568 29289788 29423402 29556386 
3059.288 29688522 29819990 29951034 30081694 30211966 30341494 30470138 
3062.663 30598074 30726188 30855908 30988440 31124466 31264026 31405940 
3066.039 31548332 31689492 31828086 31963448 32096074 32226880 32356974 
3069.414 32487430 32619034 32751784 32885898 33021196 33157464 33294354 
3072.789 33431746 33569720 33708348 33847664 33987780 34128904 34270760 
3076.164 34412980 34555396 34697676 34839748 34982016 35124724 35268156 
3079.540 35412580 35557692 35702964 35848248 35993364 36138780 36285108 
3082.915 36433004 36582604 36733844 36885784 37037600 37188708 37338748 
3086.290 37488160 37637796 37788176 37939692 38091948 38244472 38396652 
3089.665 38548380 38699728 38851520 39004752 39159664 39316412 39474484 
3093.041 39632724 39790732 39947812 40104336 40260332 40416676 40573516 
3096.416 40731100 40889396 41048004 41206640 41364888 41522620 41679780 
3099.791 41836488 41993400 42151540 42311964 42475844 42644028 42815932 
3103.166 42990356 43165140 43337692 43505988 43669000 43827052 43981752 
3106.542 44135228 44289780 44447544 44609184 44774928 44943964 45115128 
3109.917 45287352 45459276 45630240 45799352 45966064 46130300 46291756 
3113.292 46450692 46607584 46763060 46918144 47073912 47231580 47392636 
3116.667 47557964 47728164 47903020 48081756 48262640 48444232 48624596 
3120.042 48802668 48977768 49150604 49321800 49492620 49663948 49836576 
3123.418 50010720 50186344 50363124 50540416 50717896 50894852 51071212 
3126.793 51246856 51422164 51597432 51773552 51950600 52128696 52307312 
3130.168 52485848 52663680 52840380 53016032 53191048 53365788 53540456 
3133.543 53714892 53888272 54060108 54230024 54397824 54564300 54730240 
3136.919 54897036 55065208 55235480 55408112 55582812 55759088 55936448 
3140.294 56114036 56291016 56466752 56640480 56812312 56982628 57152216 
3143.669 57322288 57493520 57666184 57840048 58014100 58187880 58360892 
3147.044 58533332 58705464 58878080 59051024 59224196 59396788 59568464 
3150.420 59739064 59909160 60079364 60250316 60422368 60594676 60766404 
3153.795 60936560 61104728 61271044 61436288 61601284 61766268 61930816 
3157.170 62093672 62253528 62409656 62562012 62711784 62860452 63009368 
3160.545 63159212 63310220 63461596 63612820 63763528 63913828 64064136 
3163.921 64214660 64365612 64516932 64668216 64819560 64970916 65122792 
3167.296 65275104 65427468 65578924 65727956 65873192 66014424 66151960 
3170.671 66287032 66421532 66556612 66693000 66830368 66968008 67105228 
3174.046 67241712 67377200 67511840 67644936 67775480 67902376 68024472 
3177.422 68141672 68254872 68366360 68478104 68591904 68708136 68825944 
3180.797 68943720 69059616 69171928 69279768 69382808 69480736 69573880 
3184.172 69662400 69747016 69829464 69911888 69996360 70084504 70176400 
3187.547 70270352 70363696 70453512 70537888 70616504 70690784 70762920 
3190.923 70835504 70909768 70985576 71062480 71139024 71214704 71289472 
3194.298 71363352 71436224 71507320 71575024 71637544 71693888 71743960 
3197.673 71789728 71833632 71878048 71924608 71973216 72022576 72070296 
3201.048 72114688 72154360 72189688 72221424 72251552 72281600 72313768 
3204.424 72349080 72388176 72431472 72477352 72523872 72568240 72607712 
3207.799 72640840 72667720 72690512 72712448 72736696 72765176 72798016 
3211.174 72833000 72866928 72896912 72921720 72941904 72959504 72977224 
3214.549 72997056 73019128 73042768 73065856 73087032 73105336 73121016 
3217.925 73135296 73150040 73166272 73185168 73207368 73232744 73260984 
3221.300 73292008 73324608 73358184 73391848 73424880 73457376 73490296 
3224.675 73524400 73560984 73600392 73641688 73683496 73724296 73762656 
3228.050 73798472 73832472 73865864 73899800 73934872 73970984 74008192 
3231.426 74046416 74086648 74130704 74179992 74235896 74297968 74364536 
3234.801 74433040 74500576 74564968 74625632 74682568 74736600 74788552 
3238.176 74839416 74889336 74939136 74989736 75042512 75098320 75157880 
3241.551 75220360 75283648 75345280 75403016 75455728 75504096 75549872 
3244.927 75596120 75645696 75700360 75760832 75826832 75897544 75971776 
3248.302 76048904 76127864 76207584 76287400 76365688 76441304 76513064 
3251.677 76580128 76641752 76698200 76749208 76795224 76836752 76874600 
3255.052 76909920 76943656 76976456 77008536 77039480 77068800 77095584 
3258.427 77119840 77141688 77161712 77179800 77195984 77209120 77217992 
3261.803 77221792 77220328 77214272 77204768 77193216 77180352 77165792 
3265.178 77148368 77126760 77099696 77067096 77029584 76988208 76944808 
3268.553 76900464 76855376 76809824 76763160 76714688 76663768 76609968 
3271.928 76552264 76490464 76424520 76354824 76282264 76208416 76134184 
3275.304 76060080 75985672 75909384 75829560 75745208 75656304 75563944 
3278.679 75469952 75375824 75282152 75188488 75093200 74994736 74892560 
3282.054 74787416 74681432 74577328 74477560 74383408 74295136 74211200 
3285.429 74130000 74049840 73969288 73887696 73804824 73720872 73636504 
3288.805 73552736 73471224 73393888 73322648 73259016 73203560 73155568 
3292.180 73113760 73077032 73044328 73015600 72991216 72971264 72955664 
3295.555 72943432 72932928 72922784 72912864 72904008 72898368 72898488 
3298.930 72906280 72922432 72946064 72974984 73006544 73038608 73070016 
3302.306 73100864 73131688 73164152 73199128 73237728 73280480 73327392 
3305.681 73378112 73432104 73488224 73546064 73605176 73666104 73730056 
3309.056 73798664 73872928 73953336 74038752 74127248 74216512 74304264 
3312.431 74390176 74475008 74560088 74647280 74737200 74829136 74921616 
3315.807 75012264 75099544 75182496 75261336 75336408 75408336 75476928 
3319.182 75541632 75602120 75658360 75711048 75760992 75809160 75855008 
3322.557 75897544 75934680 75964632 75986776 76002168 76012784 76021112 
3325.932 76029288 76037456 76044248 76047248 76043888 76032720 76013256 
3329.308 75986304 75953544 75915896 75874144 75828376 75778184 75722880 
3332.683 75661784 75594232 75519392 75436368 75344368 75243136 75133648 
3336.058 75017304 74896384 74772928 74647984 74521304 74391272 74255864 
3339.433 74113064 73961824 73801608 73632888 73456008 73271296 73078752 
3342.809 72878424 72670616 72455864 72235464 72010328 71781016 71547560 
3346.184 71309656 71067208 70820792 70572768 70326488 70085280 69852736 
3349.559 69630664 69419544 69218088 69024616 68837016 68653520 68472904 
3352.934 68294856 68119000 67945880 67776064 67610792 67451192 67298776 
3356.310 67154264 67018032 66889384 66766836 66649192 66535368 66425196 
3359.685 66319340 66219068 66125416 66038764 65959232 65885612 65816552 
3363.060 65750472 65686024 65622584 65559728 65497464 65436556 65377928 
3366.435 65322816 65272248 65227316 65187700 65152780 65121212 65091036 
3369.811 65060400 65028220 64993164 64954600 64911128 64861380 64802908 
3373.186 64733484 64650648 64553068 64439744 64310356 64165108 64003780 
3376.561 63825928 63631080 63418688 63188224 62939504 62671816 62384328 
3379.936 62075592 61743808 61387508 61005840 60599244 60169284 59718876 
3383.312 59250856 58768316 58273884 57769724 57257412 56738524 56214000 
3386.687 55684724 55151388 54614388 54074704 53534008 52993724 52456612 
3390.062 51925060 51400940 50885464 50379156 49881732 49392780 48911904 
3393.437 48438228 47970956 47508392 47048064 46587040 46123372 45656112 
3396.813 45186304 44716820 44251696 43794176 43346444 42907836 42476028 
3400.188 42046988 41616872 41183212 40745476 40304864 39863800 39424992 
3403.563 38990328 38560944 38136800 37717044 37300836 36887120 36474984 
3406.938 36064176 35654800 35247136 34842368 34441924 34046864 33658792 
3410.313 33278502 32906342 32542388 32186162 31837144 31495106 31159744 
3413.689 30830794 30507638 30189766 29876456 29567134 29261468 28959382 
3417.064 28661364 28367618 28078382 27793580 27513446 27237726 26966766 
3420.439 26700800 26439750 26183504 25931594 25683240 25437804 25195070 
3423.814 24955384 24719934 24489764 24265812 24048316 23837230 23631246 
3427.190 23429210 23230586 23034814 22842136 22652890 22467218 22284488 
3430.565 22104026 21924410 21744658 21563830 21381616 21198332 21014324 
3433.940 20830324 20647028 20465130 20285632 20109368 19937408 19769954 
3437.315 19607452 19448996 19293266 19138766 18984116 18828136 18670414 
3440.691 18511330 18351476 18192338 18035090 17881038 17731218 17585450 
3444.066 17442700 17301066 17158028 17011282 16859488 16703065 16544323 
3447.441 16386980 16234785 16090689 15955614 15828690 15706955 15587246 
3450.816 15466781 15344358 15220255 15095706 14972496 14852065 14734683 
3454.192 14620279 14507859 14396530 14285811 14175873 14066340 13957622 
3457.567 13849272 13740813 13632381 13524045 13416316 13310084 13206029 
3460.942 13104185 13004071 12904868 12805688 12706530 12607566 12510261 
3464.317 12415876 12325670 12239777 12157649 12077785 11997970 11916740 
3467.693 11832937 11746221 11657720 11568386 11479990 11393991 11311037 
3471.068 11231363 11154626 11080114 11006667 10933572 10860660 10788405 
3474.443 10717792 10650180 10586584 10527410 10472488 10420829 10371282 
3477.818 10322690 10274103 10225149 10175589 10124816 10072385 10017452 
3481.194 9959170 9898148 9835239 9773389 9715375 9664113 9621697 9588500 
3485.051 9563603 9544874 9529903 9516592 9503892 9491903 9481337 9473277 
3488.908 9468299 9467012 9469417 9475614 9485977 9501250 9522587 9551478 
3492.766 9588602 9634266 9687559 9746855 9810294 9875505 9940591 10004668 
3496.623 10067773 10131327 10197774 10269761 10350141 10441159 10543637 
3499.999 10657310 10780185 10909822 11043576 11178935 11314778 11451378 
3503.374 11590539 11734273 11885069 12045046 12214796 12394294 12582256 
3506.749 12776648 12976212 13179489 13386450 13597816 13815374 14040433 
3510.124 14274408 14517246 14768139 15025522 15286832 15550910 15816558 
3513.500 16083812 16352471 16622430 16892214 17159202 17420074 17670890 
3516.875 17908764 18131878 18339588 18531974 18709190 18870802 19015132 
3520.250 19139874 19242106 19319314 19369444 19391340 19385034 19350840 
3523.625 19289386 19201306 19087280 18946734 18779626 18585436 18364058 
3527.000 18116090 17843542 17549328 17237246 16911402 16574752 16229866 
3530.376 15877901 15520141 15157598 14791621 14423657 14054568 13684286 
3533.751 13311827 12935999 12555893 12172097 11787075 11405285 11030830 
3537.126 10667837 10318177 9981986 9658150 9345490 9043306 8751847 8471901 
3540.984 8203278 7944979 7694354 7447716 7202060 6954994 6706319 6457013 
3544.841 6209800 5967027 5730903 5502591 5283287 5073380 4874197 4685789 
3548.698 4508242 4340005 4178558 4020782 3864000 3706138 3547131 3388416 
3552.556 3231861 3079502 2932466 2790948 2654411 2522816 2396092 2274933 
3556.413 2160169 2052326 1950667 1853458 1758300 1662863 1565352 1465137 
3560.271 1363018 1260656 1160013 1063545 972711 888104 809522 735535 663386 
3564.610 589821 511393 424986 329842 227259 121254 17925 -77692 -161564 
3568.950 -233068 -293071 -344920 -391269 -434931 -477497 -519793 -562814 
3572.807 -607882 -655856 -708391 -766177 -829281 -896344 -965049 -1033313 
3576.665 -1099055 -1161549 -1220829 -1277986 -1334178 -1389933 -1444921 
3580.040 -1498186 -1547845 -1592744 -1631632 -1664442 -1692134 -1716360 
3583.415 -1739362 -1763816 -1792096 -1826445 -1868676 -1919547 -1978756 
3586.791 -2044421 -2113307 -2181062 -2242807 -2294721 -2334534 -2361558 
3590.166 -2377375 -2384592 -2386965 -2388480 -2393226 -2404495 -2424364 
3593.541 -2452733 -2488117 -2526990 -2565267 -2599390 -2626562 -2645959 
3596.916 -2658474 -2666443 -2673062 -2681427 -2693446 -2710272 -2731181 
3600.292 -2754426 -2777473 -2798346 -2815366 -2828040 -2836994 -2842886 
3603.667 -2847165 -2851346 -2856744 -2865533 -2880180 -2903648 -2938699 
3607.042 -2987338 -3048903 -3119768 -3194339 -3265181 -3326673 -3376189 
3610.417 -3414622 -3445325 -3473594 -3503308 -3535682 -3569400 -3601046 
3613.792 -3626183 -3641791 -3646982 -3643664 -3635647 -3627071 -3621978 
3617.168 -3623325 -3632624 -3649808 -3673727 -3701817 -3730825 -3757762 
3620.543 -3779770 -3795602 -3804766 -3808050 -3806868 -3802401 -3795700 
3623.918 -3786766 -3775631 -3762525 -3749254 -3738874 -3736574 -3748827 
3627.293 -3781182 -3836230 -3910678 -3993649 -4070992 -4128891 -4160266 
3630.669 -4166042 -4153013 -4129580 -4103881 -4082283 -4067972 -4061866 
3634.044 -4063146 -4069088 -4077360 -4086025 -4094231 -4101682 -4109001 
3637.419 -4116583 -4125215 -4135094 -4146351 -4158986 -4172934 -4187767 
3640.794 -4203158 -4218219 -4232132 -4243616 -4251951 -4256380 -4256872 
3644.170 -4254576 -4251130 -4248932 -4250638 -4258316 -4274097 -4298671 
3647.545 -4332527 -4374614 -4423421 -4475993 -4527904 -4573283 -4605217 
3650.920 -4617970 -4609314 -4579742 -4534560 -4480978 -4427455 -4381732 
3654.295 -4349061 -4331839 -4328230 -4333151 -4339351 -4340499 -4333151 
3657.671 -4317470 -4296604 -4274787 -4255921 -4242468 -4236070 -4237054 
3661.046 -4245454 -4260121 -4279708 -4302345 -4325376 -4345715 -4361198 
3664.421 -4370481 -4373401 -4371564 -4367300 -4363232 -4362379 -4367923 
3667.796 -4383241 -4411515 -4454742 -4512689 -4579939 -4647146 -4702772 
3671.172 -4737482 -4747642 -4736073 -4711163 -4684285 -4665700 -4663700 
3674.547 -4679828 -4708672 -4737613 -4753541 -4748822 -4724339 -4687006 
3677.922 -4645671 -4607413 -4575447 -4549512 -4527018 -4505310 -4483011 
3681.297 -4460875 -4440771 -4424635 -4412860 -4403938 -4394820 -4382684 
3684.673 -4366283 -4347158 -4329936 -4319831 -4322489 -4341582 -4376320 
3688.048 -4422437 -4472812 -4520460 -4559906 -4589512 -4609348 -4620428 
3691.423 -4623477 -4618560 -4605807 -4586693 -4563972 -4541511 -4522887 
3694.798 -4510787 -4505868 -4506622 -4509606 -4510885 -4507868 -4499605 
3698.174 -4487668 -4475206 -4466417 -4464613 -4472058 -4488455 -4511771 
3701.549 -4538036 -4562693 -4581677 -4592103 -4592397 -4582726 -4564332 
3704.924 -4539478 -4510590 -4480650 -4452479 -4428701 -4411515 -4402266 
3708.299 -4402102 -4411122 -4429292 -4456316 -4491275 -4532199 -4576201 
3711.675 -4619084 -4655538 -4681565 -4694316 -4693660 -4681729 -4662684 
3715.050 -4640786 -4619740 -4602495 -4589939 -4580824 -4573382 -4565283 
3718.425 -4554856 -4542134 -4528199 -4515541 -4506720 -4502786 -4503605 
3721.800 -4507311 -4511082 -4512426 -4509770 -4503441 -4495375 -4488324 
3725.176 -4484454 -4484651 -4487373 -4489931 -4488390 -4480978 -4467172 
3728.551 -4450151 -4434375 -4425356 -4427717 -4442640 -4467893 -4497473 
3731.926 -4523542 -4539118 -4541839 -4534298 -4523444 -4517607 -4521608 
3735.301 -4536200 -4556529 -4574890 -4584037 -4581381 -4568889 -4551775 
3738.677 -4534921 -4521477 -4511147 -4501441 -4489931 -4476354 -4464417 
3742.052 -4461498 -4477436 -4519805 -4589217 -4675108 -4757146 -4812464 
3745.427 -4828553 -4807614 -4762586 -4709590 -4661996 -4628722 -4612232 
3748.802 -4610626 -4618002 -4628165 -4636459 -4640918 -4641671 -4637934 
3752.177 -4627444 -4606987 -4573742 -4527477 -4471730 -4412106 -4355163 
3755.553 -4306545 -4270324 -4247718 -4237710 -4237907 -4245093 -4256577 
3758.928 -4269963 -4283120 -4293783 -4299065 -4297753 -4289550 -4276985 
3762.303 -4263893 -4255297 -4255691 -4267142 -4289124 -4317470 -4346896 
3765.678 -4371433 -4387145 -4393803 -4393442 -4390293 -4388260 -4390556 
3769.054 -4398362 -4411023 -4426078 -4440279 -4450774 -4455234 -4452512 
3772.429 -4443001 -4427717 -4408563 -4387374 -4365922 -4345157 -4325835 
3775.804 -4308349 -4293488 -4282103 -4275968 -4276099 -4282989 -4295161 
3779.179 -4309924 -4322817 -4330198 -4329870 -4322292 -4310351 -4297293 
3782.555 -4286105 -4278920 -4275180 -4273638 -4272621 -4270324 -4266321 
3785.930 -4261072 -4255494 -4250179 -4245388 -4240630 -4235544 -4230065 
3789.305 -4224848 -4220877 -4218941 -4218318 -4217596 -4214839 -4208211 
3792.680 -4197218 -4183304 -4169816 -4160069 -4157345 -4162596 -4173721 
3796.056 -4186783 -4196430 -4198498 -4191935 -4178743 -4164040 -4154589 
3799.431 -4157050 -4176215 -4213133 -4263237 -4317273 -4362904 -4389834 
3802.806 -4394000 -4377993 -4348930 -4316551 -4290469 -4277739 -4281906 
3806.181 -4301230 -4329411 -4357130 -4374975 -4378321 -4366939 -4344632 
3809.557 -4315993 -4284957 -4253558 -4221566 -4188226 -4152849 -4116845 
3812.932 -4083629 -4058321 -4046011 -4050935 -4072994 -4107524 -4144447 
3816.307 -4171982 -4181564 -4170013 -4141067 -4102995 -4066691 -4042433 
3819.682 -4038231 -4057238 -4096529 -4146088 -4192131 -4223207 -4233641 
3823.058 -4225143 -4203879 -4178677 -4157214 -4143857 -4139623 -4142281 
3826.433 -4146909 -4148648 -4144447 -4134273 -4121309 -4109986 -4104275 
3829.808 -4107196 -4119110 -4138015 -4160233 -4181138 -4197087 -4205914 
3833.183 -4206931 -4201648 -4192853 -4183665 -4177561 -4177988 -4186586 
3836.559 -4203519 -4226587 -4251852 -4273737 -4287451 -4290502 -4282464 
3839.934 -4265764 -4243354 -4219007 -4195807 -4175723 -4160266 -4149764 
3843.309 -4143824 -4140706 -4138638 -4135652 -4130138 -4121670 -4110806 
3846.684 -4098597 -4086386 -4075062 -4064131 -4052576 -4039183 -4024049 
3850.060 -4009638 -4001791 -4008948 -4040135 -4101813 -4193608 -4303494 
3853.435 -4409022 -4486487 -4520657 -4510623 -4466975 -4404693 -4337415 
3856.810 -4273441 -4217858 -4171522 -4134241 -4104701 -4082546 -4067447 
3860.185 -4059601 -4058682 -4064065 -4074241 -4087831 -4103979 -4121835 
3863.561 -4140247 -4157214 -4168602 -4170177 -4158428 -4132698 -4096036 
3866.936 -4055662 -4020734 -4000051 -4000281 -4022835 -4062785 -4109067 
3870.311 -4148222 -4170965 -4173754 -4160693 -4139656 -4119504 -4107360 
3873.686 -4106080 -4114909 -4129219 -4143299 -4151766 -4152127 -4144481 
3877.062 -4131254 -4116288 -4103093 -4094888 -4092754 -4095413 -4099417 
3880.437 -4100271 -4093148 -4075915 -4049162 -4016893 -3985277 -3960982 
3883.812 -3949588 -3954185 -3973852 -4002481 -4030516 -4048375 -4049196 
3887.187 -4031698 -3999690 -3960719 -3922893 -3893799 -3878661 -3879449 
3890.563 -3894522 -3918066 -3943514 -3964265 -3976117 -3978055 -3972144 
3893.938 -3961277 -3948537 -3936586 -3926801 -3920233 -3917410 -3918953 
3897.313 -3925454 -3936750 -3951952 -3969091 -3984916 -3996637 -4001660 
3900.688 -3999920 -3993814 -3986788 -3983439 -3986558 -3996736 -4011509 
3904.063 -4027201 -4039052 -4043877 -4040726 -4031107 -4017714 -4003203 
3907.439 -3989480 -3976872 -3965217 -3953627 -3941413 -3929001 -3916851 
3910.814 -3905654 -3895606 -3885852 -3875147 -3862208 -3846707 -3829563 
3914.189 -3812747 -3799445 -3792219 -3792449 -3800102 -3812977 -3827757 
3917.564 -3841354 -3851469 -3857315 -3859121 -3857676 -3853636 -3847626 
3920.940 -3839416 -3829563 -3819086 -3809463 -3802828 -3800726 -3804175 
3924.315 -3812681 -3824439 -3836887 -3847101 -3853735 -3855476 -3853275 
3927.690 -3848053 -3841058 -3833570 -3826443 -3820334 -3815867 -3813601 
3931.065 -3814159 -3817542 -3823159 -3829826 -3835606 -3838792 -3838037 
3934.441 -3832913 -3823914 -3812616 -3800365 -3788770 -3778456 -3769916 
3937.816 -3762952 -3757401 -3753196 -3750995 -3751619 -3755857 -3763970 
3941.191 -3775467 -3788967 -3802007 -3812484 -3818166 -3818166 -3812517 
3944.566 -3802565 -3789985 -3776551 -3763478 -3751488 -3740680 -3730990 
3947.942 -3721791 -3712954 -3704708 -3696889 -3690154 -3684372 -3679477 
3951.317 -3675173 -3670803 -3666565 -3662293 -3658647 -3656281 -3655558 
3954.692 -3656576 -3658745 -3660749 -3661111 -3658712 -3652732 -3643335 
3958.067 -3631244 -3617772 -3604431 -3592469 -3582184 -3573968 -3567297 
3961.443 -3561809 -3557044 -3552574 -3548368 -3544095 -3539691 -3534893 
3964.818 -3529864 -3525000 -3520695 -3517638 -3516554 -3517277 -3519742 
3968.193 -3523094 -3526216 -3528484 -3529503 -3529569 -3529404 -3529963 
3971.568 -3531935 -3535320 -3539363 -3542715 -3543898 -3541532 -3534433 
3974.944 -3522568 -3506200 -3486282 -3464095 -3441118 -3418567 -3397428 
3978.319 -3378491 -3362052 -3348440 -3337294 -3328416 -3322004 -3317828 
3981.694 -3316513 -3318617 -3324602 -3334959 -3349032 -3365701 -3383554 
3985.069 -3400387 -3414622 -3425043 -3431355 -3434379 -3434970 -3434379 
3988.445 -3433590 -3432998 -3432341 -3431782 -3430763 -3429612 -3429316 
3991.820 -3430795 -3434970 -3442038 -3451703 -3462583 -3472411 -3479445 
3995.195 -3481713 -3478887 -3471228 -3460348 -3448152 -3436351 -3426522 
3998.570 -3419290 -3414819 -3412912 -3413011 -3414720 
##END=
