##TITLE=888_3_b
##JCAMP-DX=5.01  $$ Nicolet v. 1
##DATATYPE=INFRARED SPECTRUM
##ORIGIN=UniL
##OWNER=Nicolet
##LONGDATE=2011/09/28
##TIME=16:26:36
##SPECTROMETER/DATA SYSTEM=Nicolet iS5
##DATA PROCESSING=
Ratio against background
%Transmittance->Absorbance
Truncated
ElementMultiply or ElementDivide
##COMMENTS=
Number of sample scans: 32
Collection length: 51.18 sec
Sample gain: 2.0
Background collected on: Mer Sep 28 16:22:44 2011 (GMT+02:00);
Number of background scans: 32
Background gain: 2.0
Sample spacing:  1.000
Number of scan points: 12415
Resolution points: 8192
Number of FFT points: 65536
Apodization: N-B fort;
Phase correction: Mertz;
Laser frequency: 15798.0 cm-1
Number of rejected sample scans: 0
Number of rejected background scans: 0
Bench serial number: ASB1000141;
##RESOLUTION=4.000
##XUNITS=1/CM
##YUNITS=ABSORBANCE
##FIRSTX=649.893372
##LASTX=4000.122314
##FIRSTY=0.108696
##MAXX=4000.122314
##MINX=649.893372
##MAXY=0.246546
##MINY=-0.003619
##XFACTOR=1.000000
##YFACTOR=1.000000E-009
##NPOINTS=6950
##DELTAX=0.482117
##ZPD=6100
##XYDATA=(X++(Y..Y))
649.893 108695768 107552192 106492536 105547192 104718664 103997752 
652.786 103381440 102881080 102519312 102316704 102276200 102374120 
655.679 102563112 102792528 103024040 103246176 103472168 103727392 
658.571 104031264 104384016 104767504 105156888 105540136 105925824 
661.464 106344112 106831480 107413848 108089752 108829672 109582664 
664.357 110296648 110931752 111459808 111865496 112143296 112303576 
667.250 112385552 112470968 112669432 113057208 113648376 114392448 
670.142 115205688 115996656 116684728 117219440 117579200 117781488 
673.035 117869368 117896576 117900576 117889016 117844064 117737904 
675.928 117550880 117283888 116955384 116588728 116198088 115780800 
678.820 115320488 114800888 114219008 113589360 112939056 112291224 
681.713 111654592 111017696 110358328 109655504 108903880 108119032 
684.606 107330352 106567656 105847216 105167616 104513096 103866216 
687.498 103217176 102570032 101939160 101341776 100788392 100281280 99818256 
690.873 99399824 99034952 98740920 98535000 98427968 98416864 98487360 
694.248 98620688 98805352 99044528 99357760 99772848 100312752 100988688 
697.623 101794496 102712984 103723608 104813304 105978936 107223632 
700.516 108547648 109940896 111378312 112827544 114256896 115644696 
703.408 116985792 118284704 119547064 120768736 121931944 123009064 
706.301 123976312 124821280 125551136 126186280 126751232 127263008 
709.194 127725840 128134880 128485128 128781080 129040376 129287976 
712.086 129546912 129829224 130132032 130443288 130750328 131050360 
714.979 131352680 131673648 132025256 132407472 132805464 133196888 
717.872 133561712 133893568 134202016 134507920 134830512 135175536 
720.765 135532928 135880800 136198416 136475248 136716816 136938880 
723.657 137158944 137385920 137616624 137839888 138047408 138240064 
726.550 138432384 138644304 138893920 139186688 139514576 139859424 
729.443 140204272 140542928 140880800 141231360 141605744 142004816 
732.335 142417136 142825888 143216304 143586096 143945232 144311616 
735.228 144697936 145105696 145522016 145928240 146309264 146663792 
738.121 147004432 147352464 147726048 148129712 148553584 148977904 
741.013 149385104 149767968 150132368 150490864 150853824 151220512 
743.906 151578672 151910112 152202512 152457216 152690416 152924768 
746.799 153177744 153453344 153740464 154018976 154270608 154489632 
749.692 154683376 154867264 155052192 155238816 155415376 155565248 
752.584 155677088 155752864 155807984 155863632 155935312 156024240 
755.477 156116544 156191312 156232864 156238272 156219056 156193360 
758.370 156175312 156165264 156149600 156106208 156018128 155880464 
761.262 155703312 155503936 155297904 155090352 154874368 154637440 
764.155 154370384 154074880 153763168 153452256 153152752 152864224 
767.048 152574304 152266640 151929616 151563648 151180336 150796672 
769.940 150424768 150065680 149710992 149350256 148979728 148608992 
772.833 148257792 147949728 147700208 147508336 147355120 147207088 
775.726 147026096 146768816 146387312 145827024 145015776 143867728 
778.619 142299456 140237344 137643504 134525136 130933896 126953496 
781.511 122682040 118225936 113683032 109143320 104694168 100408360 96346192 
784.886 92550288 89037944 85806648 82837928 80107256 77590176 75267688 
788.261 73126896 71157056 69345840 67678272 66135840 64699524 63354804 
791.636 62090728 60901220 59781304 58724884 57723436 56767108 55846536 
795.010 54956896 54097524 53271760 52482900 51731592 51013672 50322304 
798.385 49649016 48987784 48338000 47702796 47087984 46498592 45936636 
801.760 45400672 44886608 44389884 43906852 43435236 42973492 42520096 
805.135 42073520 41632004 41195780 40767236 40351004 39951848 39572796 
808.510 39213008 38867612 38528972 38189184 37844024 37493144 37140632 
811.885 36791756 36451524 36122072 35802332 35489588 35181236 34876084 
815.259 34575452 34281584 33996376 33720484 33453074 33191942 32935220 
818.634 32681938 32432444 32187588 31948258 31714688 31486660 31264666 
822.009 31049900 30844560 30651690 30472874 30307704 30153678 30006062 
825.384 29859632 29711442 29559968 29406668 29253990 29104660 28960444 
828.759 28821908 28688938 28561916 28441832 28330516 28229164 28138478 
832.133 28057388 27983062 27912672 27843848 27775140 27706940 27640018 
835.508 27575158 27512106 27449662 27386770 27322508 27257130 27192396 
838.883 27130352 27073430 27023322 26981326 26948396 26925270 26912754 
842.258 26910782 26918360 26932954 26951534 26970572 26988166 27004666 
845.633 27022650 27046348 27079988 27126472 27186294 27257554 27336978 
849.008 27420862 27506210 27590622 27672224 27750134 27823606 27892604 
852.382 27958892 28025756 28098072 28180584 28277644 28391458 28522534 
855.757 28670176 28833946 29014496 29214436 29436736 29684550 29959626 
859.132 30261770 30589862 30942894 31321320 31727452 32165680 32640714 
862.507 33157822 33721956 34338564 35015704 35763940 36596444 37529124 
865.882 38576840 39753656 41072260 42544836 44186652 46019180 48069136 
869.256 50369928 52957336 55861080 59101176 62677332 66564328 70699944 
872.631 74980288 79262080 83345168 86996752 89973392 92030784 92984896 
876.006 92733936 91277256 88714592 85227488 81057056 76448656 71645360 
879.381 66864340 62268632 57982932 54086188 50614572 47576268 44956604 
882.756 42729316 40860600 39316048 38063732 37072744 36315332 35766388 
886.131 35401540 35200208 35145920 35226904 35437276 35776424 36247324 
889.505 36854728 37604012 38501636 39555084 40775096 42177756 43783108 
892.880 45617356 47710416 50091996 52790280 55823588 59191884 62861256 
896.255 66751032 70727704 74583936 78065152 80896200 82800272 83571720 
899.630 83102728 81405776 78609096 74937016 70680096 66128424 61560772 
903.005 57211896 53241308 49752000 46788076 44347644 42400364 40899444 
906.379 39796468 39042848 38598968 38435528 38531180 38873628 39457320 
909.754 40280436 41342368 42639604 44158664 45871560 47727132 49642216 
913.129 51511020 53201756 54569300 55486304 55849020 55599832 54736744 
916.504 53312592 51428392 49209496 46802468 44347096 41957672 39726640 
919.879 37711840 35940340 34417608 33131790 32061930 31181708 30464914 
923.254 29887352 29425956 29061400 28776588 28556220 28387956 28261414 
926.628 28168316 28103126 28062548 28044238 28047880 28073118 28119954 
930.003 28187974 28275664 28380776 28500242 28630006 28766180 28905902 
933.378 29047370 29190552 29336614 29487514 29645206 29810302 29982880 
936.753 30161884 30346362 30535542 30729888 30930262 31137956 31354014 
940.128 31579334 31814576 32060612 32318388 32588996 32873388 33171020 
943.502 33480130 33797948 34121412 34448240 34778396 35113908 35458128 
946.877 35815072 36187612 36576908 36981672 37398912 37824180 38251600 
950.252 38673720 39081856 39465772 39814880 40120360 40376604 40583480 
953.627 40745804 40873744 40979944 41077216 41178040 41292260 41427508 
957.002 41589344 41781328 42004900 42259520 42542752 42851040 43180624 
960.377 43528844 43894940 44279948 44685896 45114540 45566420 46040916 
963.751 46536284 47051752 47587508 48145868 48730228 49343888 49989600 
967.126 50668708 51381696 52129184 52912760 53734992 54598568 55506220 
970.501 56459432 57459100 58506228 59603392 60755844 61970332 63254676 
973.876 64615464 66056864 67581024 69188640 70881136 72661920 74537112 
977.251 76513856 78600592 80805792 83138552 85613104 88249512 91075176 
980.625 94126336 97441728 101058144 105006400 109303864 113951128 118924552 
984.000 124174720 129611432 135091776 140431392 145384176 149666432 
986.893 153004400 155143008 155902672 155209792 153102528 149731616 
989.786 145329408 140205632 134692288 129108936 123760848 118885992 
992.678 114654896 111176760 108493496 106600304 105459360 105018080 
995.571 105218656 106005072 107331536 109155800 111438824 114145656 
998.464 117238144 120674672 124409448 128378424 132494584 136646144 
1001.356 140679088 144414784 147667856 150252432 152025248 152901392 
1004.249 152866848 151983920 150384752 148267216 145854480 143388960 
1007.142 141109408 139209232 137844496 137120448 137089920 137770400 
1010.035 139153072 141218336 143941344 147299680 151274400 155843504 
1012.927 160982016 166661136 172839664 179464880 186463616 193716144 
1015.820 201051824 208229488 214918912 220751680 225340992 228338704 
1018.713 229524224 228835904 226409552 222547952 217712448 212458368 
1021.605 207325968 202840912 199427280 197359840 196787296 197713184 
1024.498 200028176 203524352 207941056 213000320 218401600 223866816 
1027.391 229139920 233976336 238176352 241585536 244109712 245731008 
1030.284 246503760 246545680 246001072 245029776 243780960 242368080 
1033.177 240874704 239340672 237760208 236079616 234200704 232000768 
1036.070 229339488 226097280 222200720 217631152 212431712 206692000 
1038.963 200534336 194085920 187469232 180800288 174175792 167681312 
1041.856 161391712 155364656 149650192 144293424 139334928 134823104 
1044.750 130813328 127360552 124521584 122341432 120845792 120042016 
1047.643 119916840 120443088 121582888 123295792 125541448 128275440 
1050.536 131452992 135025088 138934992 143127440 147546000 152133072 
1053.429 156832240 161573984 166264864 170789216 174995904 178709696 
1056.322 181760896 183988784 185272496 185550064 184820848 183155664 
1059.215 180686560 177616384 174193072 170682880 167371488 164512016 
1062.108 162311376 160931744 160468304 160961696 162400992 164732400 
1065.001 167858832 171638096 175901712 180441504 185024336 189429152 
1067.894 193440912 196880560 199621520 201575232 202691824 202950320 
1070.787 202350256 200911184 198672656 195698272 192070000 187883056 
1073.680 183250400 178292336 173142848 167961248 162915056 158186096 
1076.573 153963200 150409200 147665888 145838096 144978944 145091344 
1079.466 146115952 147936624 150362176 153135872 155968576 158530768 
1082.359 160516736 161697008 161937328 161241344 159739296 157677216 
1085.252 155357264 153095472 151202864 149923952 149436992 149844688 
1088.146 151163200 153328544 156195600 159567360 163190208 166781536 
1091.039 170077728 172828320 174830304 175946720 176093216 175246576 
1093.932 173436672 170743104 167283120 163193056 158623856 153712704 
1096.825 148573728 143302704 137971072 132638512 127363216 122199696 
1099.718 117203296 112427056 107913336 103697304 99807168 96264128 93090104 
1103.093 90307840 87939240 86007024 84531192 83526456 83004960 82975560 
1106.468 83445056 84419256 85901448 87890272 90374336 93331408 96724536 
1109.844 100497592 104581384 108888168 113306264 117710360 121950192 
1112.737 125854280 129256472 131995576 133941368 135016672 135196320 
1115.630 134511184 133033920 130873872 128159120 125019552 121589288 
1118.523 117986392 114304184 110615024 106962400 103368280 99843768 96396992 
1121.898 93042192 89805400 86721352 83833472 81189904 78834776 76810888 
1125.273 75157088 73904240 73078520 72697912 72770504 73293848 74253064 
1128.648 75622936 77365024 79430568 81762768 84288128 86921536 89566336 
1132.024 92109552 94441848 96467816 98119056 99374128 100260752 100856968 
1135.399 101269264 101623256 102041816 102617160 103407800 104422744 
1138.292 105623752 106923952 108199200 109312600 110115184 110476336 
1141.185 110299800 109522248 108121496 106108584 103520656 100413120 
1144.078 96854720 92930640 88731576 84355352 79904088 75468888 71133200 
1147.453 66969744 63032776 59365904 56000488 52954044 50234400 47838540 
1150.829 45755576 43967896 42454544 41194832 40168480 39358456 38752104 
1154.204 38338852 38111624 38065288 38196492 38503808 38988044 39652760 
1157.579 40503344 41546932 42791104 44241828 45902864 47774248 49852292 
1160.954 52126976 54580532 57186192 59902204 62670976 65424272 68077248 
1164.330 70540184 72726976 74552808 75947152 76856640 77245344 77101400 
1167.705 76436600 75287192 73706344 71759600 69519432 67053064 64424300 
1171.080 61691712 58904756 56109516 53347060 50650388 48047780 45560424 
1174.455 43202068 40982276 38906244 36975572 35190040 33546992 32042064 
1177.831 30669220 29421418 28291542 27272230 26357500 25541986 24820926 
1181.206 24189998 23644402 23178646 22786646 22462300 22199706 21994290 
1184.581 21842834 21743332 21694916 21696448 21746818 21844124 21986412 
1187.956 22171984 22400056 22671008 22986670 23349414 23763028 24231792 
1191.332 24760902 25356938 26027522 26781248 27627342 28574798 29631974 
1194.707 30806640 32104776 33530634 35084452 36760528 38543056 40402784 
1198.082 42297868 44167800 45938440 47529392 48851124 49820332 50368852 
1201.457 50448448 50043476 49174240 47898248 46298868 44477276 42544616 
1204.833 40599416 38728776 37002056 35464096 34141988 33046186 32173350 
1208.208 31511172 31041464 30744398 30599248 30586912 30691516 30899096 
1211.583 31198226 31579298 32032576 32549140 33119630 33734956 34386656 
1214.958 35066636 35765380 36472248 37172792 37848796 38480528 39046836 
1218.333 39527248 39905604 40168116 40304360 40307592 40173860 39902444 
1221.709 39497124 38967200 38326832 37594260 36792228 35945272 35077916 
1225.084 34216372 33384298 32602708 31889952 31258576 30716196 30265178 
1228.459 29902900 29623672 29419608 29282664 29205186 29180096 29201856 
1231.834 29264516 29362706 29491202 29645384 29821836 30018916 30236510 
1235.210 30476110 30739560 31029578 31348776 31700042 32086580 32511570 
1238.585 32977760 33486680 34037804 34627944 35250764 35897588 36556796 
1241.960 37213688 37852088 38452980 38996632 39466284 39849380 40141840 
1245.335 40349224 40487012 40577916 40647080 40721056 40822488 40968620 
1248.711 41171920 41439280 41772720 42170272 42626444 43132864 43679296 
1252.086 44255880 44853944 45467112 46092088 46727596 47373384 48029496 
1255.461 48695908 49372436 50058196 50750148 51439656 52110204 52731800 
1258.836 53262060 53650252 53838308 53775304 53423868 52765548 51805732 
1262.212 50571500 49111164 47483740 45756864 44000820 42275516 40631684 
1265.587 39105604 37716320 36470660 35365412 34391784 33537968 32792230 
1268.962 32143700 31582006 31096594 30677328 30313532 29995164 29713748 
1272.337 29461770 29233716 29025196 28832424 28651914 28480430 28315590 
1275.713 28156048 28001652 27853034 27710788 27574414 27442038 27310088 
1279.088 27174406 27030760 26875884 26707282 26523252 26322470 26103694 
1282.463 25865932 25609814 25338320 25057554 24776724 24508520 24266584 
1285.838 24065300 23919248 23841044 23842654 23935600 24129782 24435114 
1289.214 24860606 25413844 26100350 26922414 27877058 28953360 30129210 
1292.589 31370752 32627642 33837276 34932456 35842776 36511348 36902052 
1295.964 37003536 36831968 36426300 35844216 35147608 34399100 33655824 
1299.339 32960244 32343340 31822524 31402878 31079690 30840788 30669966 
1302.715 30548302 30456776 30378732 30299214 30205928 30090146 29945320 
1306.090 29768746 29561032 29326724 29073658 28811462 28551408 28303708 
1309.465 28077784 27881898 27722868 27607216 27541510 27531944 27584336 
1312.840 27703724 27893488 28156118 28492918 28905158 29394402 29962218 
1316.216 30610054 31338808 32149054 33040966 34014904 35071232 36209724 
1319.591 37427584 38717696 40066032 41449304 42836080 44184636 45443384 
1322.966 46558564 47474092 48141908 48533960 48649132 48521252 48213024 
1326.341 47815344 47428704 47141936 47027456 47124764 47439092 47946420 
1329.717 48603176 49358884 50162244 50973764 51767688 52532776 53273184 
1333.092 54005248 54756064 55555056 56430528 57402372 58476392 59641704 
1336.467 60870116 62122724 63348516 64491136 65495388 66304168 66867664 
1339.842 67149696 67130672 66812856 66217176 65380008 64342788 63147640 
1343.218 61836024 60443880 59003732 57544772 56088324 54648844 53232728 
1346.593 51840148 50469364 49122260 47807244 46543848 45361204 44293412 
1349.968 43379428 42656820 42157420 41909648 41935156 42249292 42862080 
1353.343 43776328 44985676 46469128 48189588 50089320 52086220 54085888 
1356.719 55982360 57665464 59040588 60026860 60569568 60648124 60278108 
1360.094 59513968 58438596 57166348 55826528 54543488 53434400 52584352 
1363.469 52034820 51783108 51785048 51968004 52237200 52495684 52651672 
1366.844 52625752 52370292 51873828 51167152 50312224 49392296 48493800 
1370.219 47684972 47016124 46515120 46191248 46043160 46062908 46240156 
1373.595 46560592 47005972 47554380 48179816 48856616 49563288 50281124 
1376.970 50995712 51693600 52360200 52981072 53542668 54034140 54448792 
1380.345 54782712 55032072 55192432 55258432 55226788 55099552 54884968 
1383.720 54596236 54245980 53844424 53397376 52909356 52390368 51861020 
1387.096 51352832 50905360 50552848 50315836 50196760 50181620 50245672 
1390.471 50357240 50484288 50593204 50646332 50604968 50426192 50069388 
1393.846 49509252 48744204 47802284 46730736 45581436 44392160 43178900 
1397.221 41943984 40688996 39428184 38199388 37056936 36055320 35234704 
1400.597 34606844 34159948 33868044 33705304 33652524 33700148 33846196 
1403.972 34090696 34431060 34860536 35368580 35944084 36578420 37265020 
1407.347 37998884 38774712 39583904 40416096 41260672 42107328 42949128 
1410.722 43782084 44603456 45410240 46197292 46957904 47686120 48379852 
1414.098 49042124 49681112 50307276 50929280 51550640 52169196 52778456 
1417.473 53372424 53949456 54514976 55076868 55641940 56207632 56759596 
1420.848 57276388 57734184 58113592 58397848 58576672 58646484 58610420 
1424.223 58479196 58269072 57999560 57687032 57343080 56973484 56579140 
1427.599 56158756 55713276 55247708 54773616 54308864 53872968 53485172 
1430.974 53159512 52902808 52714068 52584984 52502156 52446852 52397056 
1434.349 52328280 52212504 52024624 51750408 51395384 50987772 50568892 
1437.724 50173996 49816988 49488052 49160436 48803296 48389592 47904536 
1441.100 47348144 46733536 46080520 45406412 44722732 44033016 43335456 
1444.475 42626700 41904064 41165400 40409584 39636608 38850944 38066300 
1447.850 37307008 36606108 36000560 35520508 35187704 35016096 35012864 
1451.225 35180696 35514580 35999952 36606032 37285892 37983480 38626384 
1454.601 39129572 39400936 39343436 38891312 38050132 36924744 35684040 
1457.976 34485436 33423480 32518818 31751618 31092964 30522068 30029496 
1461.351 29612498 29267208 28986762 28761896 28585944 28460724 28398568 
1464.726 28418060 28535378 28753790 29059344 29422660 29805546 30168880 
1468.102 30471632 30675230 30742904 30633664 30305396 29717900 28844782 
1471.477 27692460 26317048 24827346 23348748 21983868 20782286 19740616 
1474.852 18825472 17999930 17241488 16544357 15914230 15356716 14870271 
1478.227 14443422 14060112 13704393 13366392 13043096 12736658 12450620 
1481.603 12186443 11942862 11717524 11508500 11315662 11140111 10982131 
1484.978 10839088 10705431 10574429 10440413 10301585 10160089 10019859 
1488.353 9883369 9749362 9613534 9471990 9325449 9181123 9050039 8942535 
1492.210 8862820 8807330 8766080 8726356 8676596 8609469 8524172 8426325 
1496.068 8325021 8228265 8139735 8058346 7981291 7906982 7836364 7772201 
1499.925 7717659 7674186 7641440 7617835 7602459 7595479 7597570 7608528 
1503.783 7625389 7640057 7639855 7610383 7541398 7435547 7311695 7197849 
1507.640 7114648 7067194 7046853 7039950 7034326 7023011 7004221 6980348 
1511.498 6955500 6933009 6914391 6899444 6886989 6875543 6864367 6852181 
1515.355 6837809 6820003 6798496 6775475 6755215 6742865 6741922 6751850 
1519.212 6766893 6777091 6771571 6743436 6694879 6637881 6589604 6563097 
1523.070 6561112 6577494 6601177 6621766 6632633 6633373 6628562 6625433 
1526.927 6628663 6639665 6656185 6675161 6695821 6719982 6751110 6791664 
1530.785 6840468 6892240 6937925 6968530 6979472 6974624 6966341 6969203 
1534.642 6994591 7044933 7115591 7197815 7282717 7363692 7435682 7495582 
1538.500 7540454 7568235 7577744 7571405 7557210 7545983 7547871 7568101 
1542.357 7605393 7653007 7702482 7747442 7786133 7822633 7863996 7917713 
1546.214 7986926 8069721 8159755 8249371 8332958 8408251 8477239 8544954 
1550.072 8616769 8695390 8780044 8867116 8952682 9034476 9113309 9192731 
1553.929 9278057 9373760 9481676 9599916 9723474 9845440 9957372 10049360 
1557.787 10113013 10146759 10161819 10180441 10227625 10316718 10445334 
1561.162 10603152 10777230 10956815 11133074 11301617 11461312 11614395 
1564.537 11765558 11919532 12078773 12242912 12408307 12569399 12721065 
1567.912 12858858 12980958 13088510 13185364 13277560 13370526 13468434 
1571.288 13573168 13684388 13799777 13915162 14024862 14120384 14191655 
1574.663 14229657 14228356 14189978 14126511 14056209 13994782 13949615 
1578.038 13918173 13891555 13858612 13809217 13736812 13638160 13513449 
1581.413 13364820 13195030 13006290 12800501 12580176 12349396 12113218 
1584.789 11877441 11646489 11421986 11203312 10988282 10774989 10563701 
1588.164 10356419 10156120 9965543 9785589 9615532 9453704 9298841 9151106 
1592.021 9011811 8881962 8761516 8648438 8539784 8432711 8326034 8220769 
1595.879 8119615 8025267 7938938 7859509 7784209 7710003 7634999 7558896 
1599.736 7482873 7408246 7335081 7262332 7188147 7111415 7032911 6955634 
1603.594 6883353 6819262 6763932 6715371 6669441 6622102 6571136 6516947 
1607.451 6462024 6409429 6361447 6318378 6279112 6242438 6208926 6180593 
1611.308 6161066 6153572 6158848 6174745 6196759 6219043 6235076 6240689 
1615.166 6232656 6211346 6180156 6145876 6116841 6100510 6101585 6121311 
1619.023 6157605 6205867 6259614 6312494 6357916 6392145 6414776 6429605 
1622.881 6442956 6461789 6490511 6530031 6577864 6630446 6685289 6740778 
1626.738 6796611 6853023 6910183 6967991 7027018 7088478 7155270 7230426 
1630.595 7316749 7415021 7524002 7639451 7756009 7867336 7967521 8051831 
1634.453 8118129 8168197 8208106 8246906 8294962 8358865 8441595 8541508 
1638.310 8654794 8775919 8898973 9019389 9134660 9245089 9353853 9465082 
1642.168 9582268 9705991 9833883 9960593 10079778 10185019 10272441 10342303 
1646.025 10399279 10451036 10507246 10576025 10662370 10767685 10890592 
1649.400 11027024 11169653 11306956 11422735 11495232 11501662 11430729 
1652.776 11299100 11155034 11050339 11013260 11037526 11099591 11173903 
1656.151 11242515 11296379 11332667 11353720 11362800 11362121 11351713 
1659.526 11328653 11288966 11229662 11149289 11049286 10933199 10806374 
1662.901 10675343 10546421 10425581 10316921 10222198 10139976 10065196 
1666.277 9990022 9903979 9796365 9659302 9490108 9293696 9081673 8869720 
1670.134 8671423 8495484 8344138 8214420 8100068 7992428 7881642 7757426 
1673.991 7610754 7438312 7245992 7049446 6867363 6715169 6597544 6508773 
1677.849 6436970 6369482 6297568 6219009 6138248 6062742 5998974 5946636 
1681.706 5896992 5833316 5735838 5589511 5395257 5175069 4965918 4798877 
1685.564 4684951 4614922 4570686 4535295 4496591 4448652 4390309 4323674 
1689.421 4251896 4178357 4106503 4040581 3984299 3940595 3909668 3887502 
1693.279 3865404 3832410 3777391 3695511 3592665 3486470 3399102 3344172 
1697.136 3322101 3319497 3317360 3295291 3238071 3142575 3022543 2905479 
1700.993 2817061 2768840 2755735 2764071 2778943 2789615 2789548 2775942 
1704.851 2750033 2715356 2677048 2640477 2609009 2584509 2567144 2555911 
1708.708 2549079 2545212 2543179 2543179 2545779 2552212 2563144 2578343 
1712.566 2596208 2614842 2632509 2648677 2663279 2677315 2690917 2702520 
1716.423 2709355 2708921 2701553 2692151 2688683 2698719 2726659 2772074 
1720.281 2831201 2898208 2967694 3036023 3102160 3167140 3233497 3304139 
1724.138 3381270 3466063 3559324 3661828 3774550 3898702 4034895 4182673 
1727.995 4340943 4508142 4683310 4866389 5058161 5259508 5470915 5691790 
1731.853 5921377 6159016 6406436 6667624 6947722 7249664 7572517 7911065 
1735.710 8257814 8607441 8956809 9305578 9653780 10001855 10350141 10697247 
1739.568 11041095 11378651 11707108 12023586 12324988 12608112 12870019 
1742.943 13108487 13322691 13513688 13683226 13833025 13963986 14075820 
1746.318 14167418 14238251 14288311 14319061 14331081 14324301 14297111 
1749.693 14246400 14170704 14071953 13956937 13836479 13721047 13616859 
1753.069 13523737 13434975 13339126 13222254 13072837 12883399 12654709 
1756.444 12395317 12120066 11843798 11575464 11315458 11055506 10783310 
1759.819 10484741 10149642 9775252 9367971 8942434 8516908 8108406 7726867 
1763.677 7374308 7046213 6734485 6429538 6122487 5806988 5481115 5148110 
1767.534 4816299 4497295 4201475 3933908 3693172 3470973 3255463 3035756 
1771.391 2805989 2569410 2337790 2126705 1947605 1804046 1691036 1599405 
1775.249 1519498 1444991 1373122 1304290 1239854 1180046 1123204 1066335 
1779.106 1006120 941297 873529 807199 746720 695244 652236 614706 578275 
1783.446 539226 496631 451520 407706 368739 337004 313096 295689 283123 
1787.785 273740 265915 258224 248907 235481 215656 188043 153437 115520 
1792.125 79992 51758 33665 24917 22001 20411 17163 10669 1656 -8217 -17759 
1797.429 -26672 -35683 -46451 -60829 -79249 -101345 -125626 -150071 -173355 
1801.769 -194618 -213562 -229823 -243003 -252739 -259097 -262971 -265719 
1805.626 -269230 -274859 -283104 -293071 -303832 -314030 -323598 -333432 
1809.483 -344755 -358627 -374981 -392626 -409740 -425001 -438241 -450753 
1813.341 -464754 -482097 -503411 -527140 -550769 -570292 -583529 -589088 
1817.198 -588095 -582503 -575388 -568406 -563079 -559670 -558148 -558611 
1821.056 -560862 -565230 -571748 -580352 -590775 -603018 -617047 -632498 
1824.913 -648644 -664226 -677261 -686326 -690759 -691850 -691883 -694364 
1828.771 -702039 -715833 -734225 -753609 -769584 -779441 -782847 -781723 
1832.628 -778945 -776828 -776398 -776960 -776828 -774347 -769220 -762671 
1836.485 -756751 -753410 -753311 -755461 -757842 -758206 -755163 -749375 
1840.343 -742958 -738988 -740642 -750235 -769022 -796408 -830339 -866517 
1844.200 -900245 -926664 -942203 -946303 -940650 -928978 -916117 -906660 
1848.058 -903320 -906627 -914563 -923523 -929871 -931425 -928251 -922829 
1851.915 -918299 -917108 -920415 -927689 -936682 -945576 -952750 -957809 
1855.772 -961115 -963032 -963528 -962503 -960024 -956585 -953378 -952320 
1859.630 -954569 -960288 -968355 -976422 -982306 -985083 -984686 -982306 
1863.487 -979496 -976719 -973711 -969743 -963759 -956255 -949180 -945212 
1867.345 -946601 -954139 -965875 -977843 -985810 -986934 -980918 -970107 
1871.202 -957875 -946766 -938335 -932285 -927590 -923291 -919522 -916844 
1875.060 -916679 -919621 -925209 -931723 -937046 -939988 -939823 -937343 
1878.917 -933640 -929243 -923721 -915720 -903717 -887383 -867509 -846114 
1882.774 -826106 -809471 -796804 -787709 -780433 -773454 -766740 -761051 
1886.632 -758372 -760522 -769022 -783641 -804014 -828025 -853455 -878719 
1890.489 -902362 -923159 -940352 -953874 -964024 -971132 -976355 -980752 
1894.347 -984719 -988554 -991496 -993546 -994934 -996455 -999331 -1003893 
1898.204 -1009480 -1013711 -1013744 -1007133 -993249 -973678 -952089 -933277 
1902.062 -921407 -917770 -921903 -931723 -944022 -956883 -969810 -983364 
1905.919 -998835 -1016785 -1036751 -1057179 -1076647 -1093338 -1106987 
1909.294 -1117464 -1125264 -1130783 -1134451 -1136301 -1137855 -1140234 
1912.669 -1145654 -1155039 -1168984 -1186762 -1207149 -1229584 -1254794 
1916.045 -1283965 -1318916 -1359216 -1402351 -1442543 -1473156 -1489138 
1919.420 -1489567 -1478175 -1461532 -1447926 -1443138 -1449214 -1464372 
1922.795 -1484647 -1505153 -1523445 -1539393 -1554778 -1571286 -1589641 
1926.170 -1608062 -1623643 -1634636 -1640181 -1642525 -1644736 -1649523 
1929.546 -1657412 -1667017 -1674905 -1678206 -1676358 -1671506 -1667314 
1932.921 -1668403 -1677315 -1694445 -1718571 -1747151 -1777774 -1809584 
1936.296 -1841655 -1872899 -1901304 -1924066 -1938415 -1944221 -1943825 
1939.671 -1941747 -1943726 -1954216 -1973610 -1999700 -2027008 -2049829 
1943.047 -2065560 -2074002 -2077695 -2080069 -2083169 -2086499 -2088577 
1946.422 -2087851 -2083696 -2078025 -2073276 -2071792 -2074496 -2080597 
1949.797 -2087785 -2094281 -2100052 -2106152 -2114527 -2127222 -2144169 
1953.172 -2164314 -2186831 -2211425 -2240137 -2276955 -2324845 -2384526 
1956.548 -2453556 -2524750 -2590036 -2642501 -2678331 -2699636 -2710338 
1959.923 -2716496 -2721599 -2727032 -2731971 -2734803 -2736614 -2739808 
1963.298 -2747018 -2761670 -2783893 -2812041 -2842425 -2872577 -2900752 
1966.673 -2927970 -2955615 -2984837 -3015045 -3044625 -3071966 -3096904 
1970.049 -3122301 -3151184 -3186840 -3230650 -3280078 -3330586 -3378557 
1973.424 -3420999 -3457521 -3488222 -3510506 -3517244 -3498016 -3441085 
1976.799 -3339727 -3197332 -3028470 -2855658 -2701579 -2583481 -2507719 
1980.174 -2471447 -2464330 -2473324 -2489105 -2504523 -2516251 -2523531 
1983.550 -2525573 -2521093 -2510651 -2496024 -2480375 -2468547 -2463605 
1986.925 -2464989 -2469832 -2472040 -2465714 -2448779 -2423244 -2393226 
1990.300 -2364919 -2342048 -2323856 -2308267 -2291623 -2271484 -2250487 
1993.675 -2233280 -2224116 -2226061 -2237796 -2255003 -2271945 -2286119 
1997.051 -2297457 -2310574 -2331634 -2364458 -2409405 -2462584 -2516613 
2000.426 -2564805 -2603606 -2633313 -2657749 -2682085 -2708988 -2739512 
2003.801 -2772008 -2802724 -2828402 -2846869 -2856020 -2853386 -2837026 
2007.176 -2804568 -2755513 -2693150 -2624553 -2558218 -2501953 -2460937 
2010.552 -2435237 -2421596 -2415072 -2411612 -2410426 -2413326 -2422486 
2013.927 -2439620 -2463902 -2491708 -2518063 -2539112 -2552717 -2559239 
2017.302 -2560589 -2557230 -2548962 -2535423 -2516119 -2493190 -2471842 
2020.677 -2457905 -2457312 -2472138 -2500273 -2534962 -2569088 -2595668 
2024.052 -2610292 -2613783 -2608283 -2597084 -2583449 -2569549 -2556406 
2027.428 -2546985 -2544021 -2548731 -2561874 -2580352 -2597677 -2607064 
2030.803 -2601432 -2577454 -2536378 -2484164 -2427264 -2373783 -2329393 
2034.178 -2296435 -2275769 -2265881 -2263112 -2262848 -2259651 -2247125 
2037.553 -2221215 -2180798 -2128145 -2070440 -2017114 -1974864 -1948344 
2040.929 -1936502 -1933368 -1931257 -1923835 -1907539 -1883291 -1854853 
2044.304 -1825521 -1797672 -1771703 -1743223 -1708571 -1664376 -1607732 
2047.679 -1539128 -1460112 -1374607 -1289549 -1213328 -1155105 -1123446 
2051.054 -1122818 -1152528 -1204671 -1267447 -1325358 -1364930 -1378670 
2054.430 -1365921 -1332163 -1287930 -1243395 -1204671 -1173776 -1149124 
2057.805 -1126552 -1103716 -1079225 -1053278 -1026339 -999034 -970405 
2061.180 -939823 -907123 -874255 -843898 -819558 -801732 -789131 -778151 
2065.038 -763730 -742462 -714213 -681396 -649140 -622308 -603613 -592297 
2068.895 -586738 -583165 -578929 -573568 -567778 -563277 -561325 -561821 
2072.752 -563178 -563906 -562384 -557288 -548419 -535314 -516583 -491397 
2076.610 -458829 -419340 -375279 -330220 -287971 -251381 -221411 -196738 
2080.467 -175177 -154112 -131787 -108798 -86206 -65169 -46849 -31476 -17759 
2084.807 -5798 4439 12458 16964 16600 11298 1491 -12325 -29521 -50360 -75439 
2090.111 -105287 -139803 -177793 -216079 -251083 -279726 -299395 -308666 
2093.968 -307937 -297441 -278634 -253004 -222040 -188657 -156066 -127348 
2097.826 -104425 -88359 -77758 -70105 -63314 -55562 -46219 -36280 -26904 
2102.165 -18786 -11696 -5334 1358 7885 12624 13750 8880 -2650 -19813 -40057 
2107.469 -60100 -76963 -89154 -96906 -101312 -104194 -107771 -112839 -120524 
2111.809 -131422 -146162 -164744 -186868 -210548 -233234 -252408 -266084 
2115.666 -273998 -278236 -281448 -287044 -297011 -311712 -329459 -348860 
2119.524 -368195 -387031 -406364 -427616 -451647 -478787 -508045 -537333 
2123.381 -564766 -589551 -610429 -628263 -644078 -658569 -673920 -692578 
2127.239 -717521 -752054 -798623 -857324 -926961 -1003695 -1083158 -1161516 
2131.096 -1236886 -1308841 -1378208 -1445251 -1507893 -1562669 -1606147 
2134.471 -1635329 -1651833 -1661505 -1671044 -1688273 -1717350 -1757513 
2137.846 -1803513 -1849442 -1889692 -1921229 -1945639 -1964474 -1980207 
2141.222 -1993400 -2001712 -2003295 -1997061 -1985979 -1975095 -1971071 
2144.597 -1979284 -2000623 -2032911 -2070440 -2105987 -2135036 -2155610 
2147.972 -2167875 -2175161 -2180963 -2188117 -2201073 -2223589 -2259717 
2151.347 -2313013 -2384790 -2473753 -2576400 -2687387 -2802263 -2919314 
2154.723 -3039723 -3164539 -3292508 -3417482 -3525625 -3598614 -3619217 
2158.098 -3576696 -3473430 -3324766 -3153453 -2983784 -2835479 -2718109 
2161.473 -2634169 -2580748 -2551169 -2537202 -2531305 -2524915 -2508806 
2164.848 -2477673 -2428483 -2363041 -2288393 -2214128 -2147994 -2096524 
2168.224 -2061075 -2039573 -2030669 -2033241 -2047818 -2077035 -2121814 
2171.599 -2178227 -2239313 -2292908 -2327218 -2334007 -2312222 -2267232 
2174.974 -2212018 -2161116 -2126332 -2116407 -2134212 -2175688 -2234203 
2178.349 -2300126 -2362942 -2412799 -2442453 -2447296 -2428450 -2391677 
2181.725 -2345772 -2301675 -2267792 -2247125 -2238324 -2237104 -2236939 
2185.100 -2233215 -2226061 -2215677 -2204996 -2195667 -2185776 -2171567 
2188.475 -2148950 -2114494 -2067670 -2011342 -1950422 -1889593 -1833572 
2191.850 -1784176 -1741903 -1705996 -1674707 -1645958 -1617767 -1587429 
2195.226 -1552500 -1512516 -1468566 -1423521 -1382600 -1350760 -1331205 
2198.601 -1324796 -1329421 -1340850 -1354922 -1368563 -1379892 -1388942 
2201.976 -1395845 -1399115 -1396406 -1384747 -1361957 -1328001 -1285816 
2205.351 -1240554 -1197798 -1162739 -1138152 -1124074 -1119579 -1121265 
2208.727 -1125924 -1130882 -1133426 -1130816 -1122157 -1107285 -1087488 
2212.102 -1066334 -1047593 -1034371 -1029413 -1032487 -1041643 -1054600 
2215.477 -1068813 -1082133 -1094693 -1106359 -1116473 -1124569 -1129494 
2218.852 -1130584 -1129163 -1127874 -1129163 -1136004 -1148595 -1164358 
2222.228 -1179823 -1191586 -1197798 -1199913 -1202226 -1208702 -1222844 
2225.603 -1244452 -1270123 -1293876 -1309964 -1314160 -1305438 -1285816 
2228.978 -1257569 -1224628 -1190066 -1155964 -1125297 -1100510 -1083588 
2232.353 -1075787 -1076085 -1080282 -1082893 -1079027 -1065409 -1041742 
2235.729 -1012158 -981678 -955329 -936219 -924019 -915852 -908677 -899386 
2239.586 -887151 -872866 -857986 -842741 -827198 -809438 -787808 -761679 
2243.443 -731711 -700021 -668891 -640207 -613937 -589782 -567314 -545639 
2247.301 -526147 -510792 -500433 -495832 -496362 -499307 -502683 -504834 
2251.158 -505563 -505397 -505827 -506820 -507681 -506489 -500664 -488286 
2255.016 -468891 -443471 -414342 -384714 -357865 -336345 -322307 -316977 
2258.873 -320288 -331412 -347834 -366142 -382926 -395307 -401299 -401498 
2262.730 -397790 -391997 -386138 -380708 -374650 -366903 -356243 -342636 
2266.588 -327836 -314560 -304163 -298203 -296282 -296382 -296448 -294726 
2270.445 -290587 -284660 -278236 -272442 -268004 -264792 -261613 -257275 
2274.303 -250619 -239890 -224060 -202898 -176104 -144407 -110090 -75274 
2278.160 -42873 -14744 8548 28297 46622 66571 90001 117310 147140 177170 
2282.982 204684 227458 244929 257461 266147 272248 276624 280039 283090 
2287.322 285377 287731 290417 293401 296551 298971 299535 297811 293898 
2291.661 288461 283322 280404 281133 286040 295291 307725 321452 335180 
2296.001 347184 356237 361377 362803 360913 356834 352324 348643 347251 
2300.340 348146 350732 353253 354181 351992 346057 337037 325896 313992 
2304.680 302685 292208 282294 272380 261340 248344 233061 215424 195402 
2309.020 173623 150388 126325 102097 78667 56696 37409 21007 7587 -2683 
2313.841 -11132 -18885 -27632 -39295 -55761 -78123 -106413 -139902 -176104 
2318.181 -212271 -245387 -272740 -293302 -306481 -312705 -313202 -309692 
2322.038 -304097 -299594 -300388 -310818 -335783 -378755 -440459 -519595 
2325.896 -611356 -709515 -806826 -897633 -977843 -1045775 -1101766 -1147207 
2329.753 -1183094 -1210355 -1228990 -1239034 -1241314 -1237151 -1228428 
2333.128 -1217459 -1205993 -1195023 -1184746 -1175494 -1167035 -1160194 
2336.504 -1155667 -1153816 -1154841 -1158608 -1163730 -1168951 -1173181 
2339.879 -1175065 -1173776 -1168455 -1158344 -1142746 -1121331 -1093800 
2343.254 -1059294 -1016752 -963528 -896344 -812150 -709482 -589915 -459127 
2347.112 -325850 -201043 -95150 -17196 26574 33466 4373 -56423 -142651 
2351.451 -245950 -357501 -470645 -580220 -683315 -779077 -867972 -950304 
2355.309 -1026702 -1097469 -1162111 -1220730 -1272138 -1315184 -1349042 
2358.684 -1372725 -1385474 -1388876 -1384615 -1375202 -1362981 -1349868 
2362.059 -1335796 -1319577 -1299030 -1271213 -1234342 -1187786 -1131807 
2365.434 -1068846 -1002075 -933739 -866054 -799913 -734854 -669784 -603647 
2369.292 -535414 -465019 -392725 -319162 -244824 -170043 -94620 -17958 60208 
2373.631 140511 223082 307592 393412 479747 565535 649780 731685 810917 
2377.971 888071 963844 1039365 1115397 1192174 1268698 1343175 1413410 
2381.828 1477239 1533530 1582013 1623849 1660668 1694263 1725598 1755006 
2385.686 1782620 1807606 1829766 1849332 1866669 1882375 1896619 1909465 
2389.543 1920414 1929034 1935158 1938985 1941182 1942247 1942613 1942147 
2393.401 1940616 1937654 1933127 1928035 1923243 1920148 1919748 1922211 
2397.258 1927237 1934126 1942080 1950834 1960586 1971536 1983685 1997166 
2401.115 2010847 2023564 2034682 2043537 2050662 2057353 2064777 2074498 
2404.973 2087649 2104230 2124174 2146949 2171557 2196700 2221444 2244224 
2408.830 2264075 2280230 2292587 2301614 2308643 2314905 2321601 2329928 
2412.688 2339956 2351715 2365241 2380633 2398024 2417948 2440439 2465197 
2416.545 2491390 2517484 2542213 2564110 2582642 2597242 2608475 2616809 
2420.403 2622942 2627942 2632576 2638243 2645677 2655611 2667846 2681549 
2424.260 2695518 2707854 2717190 2723091 2725626 2726292 2726692 2728393 
2428.117 2732794 2740163 2750133 2761937 2774875 2788014 2801253 2814793 
2431.975 2828966 2844141 2860851 2878795 2897674 2917021 2936069 2954083 
2435.832 2970830 2986176 3000456 3014102 3027281 3040194 3052706 3064452 
2439.690 3075097 3084574 3093017 3101092 3109435 3118880 3129759 3142342 
2443.547 3156559 3172380 3189903 3209496 3231127 3254795 3280000 3305741 
2447.405 3330749 3354088 3374858 3392857 3408653 3422645 3435403 3447760 
2451.262 3459750 3471373 3483231 3495288 3508349 3523013 3539481 3557520 
2455.119 3576696 3595639 3613413 3629217 3642415 3652806 3661026 3667743 
2458.977 3673791 3680173 3687826 3697550 3709848 3724786 3741696 3760112 
2462.834 3778594 3795875 3811418 3824521 3835619 3845480 3855208 3865638 
2466.692 3877606 3891213 3906091 3921604 3936951 3951061 3963700 3975002 
2470.549 3985067 3995267 4006636 4019813 4035364 4052988 4071818 4090849 
2474.406 4109380 4126807 4143499 4160359 4178190 4197527 4218572 4240319 
2478.264 4261332 4280372 4296267 4308481 4317383 4324076 4329765 4336224 
2482.121 4344524 4355367 4369725 4387364 4408317 4431781 4457088 4482497 
2485.979 4506736 4528230 4545775 4559068 4568678 4575542 4581603 4588869 
2489.836 4598714 4611875 4628720 4648110 4669143 4690544 4711445 4731610 
2493.694 4751374 4771172 4791473 4812379 4833520 4853757 4872555 4889074 
2497.551 4903082 4915313 4926539 4937665 4949998 4963371 4977748 4992965 
2501.408 5008283 5023567 5039154 5055379 5072609 5091685 5112236 5133860 
2505.266 5156124 5178355 5199614 5219936 5238883 5256624 5273393 5289392 
2509.123 5304888 5320283 5335981 5351747 5368016 5384689 5401363 5418003 
2512.981 5434611 5450749 5466855 5482793 5498732 5514940 5531719 5549036 
2516.838 5567091 5585920 5604917 5623747 5641638 5657851 5672151 5684606 
2520.696 5695819 5706495 5717540 5729056 5740941 5752659 5763202 5771731 
2524.553 5778345 5783113 5787076 5791038 5795873 5802085 5809473 5817868 
2528.410 5826465 5834995 5842853 5849603 5854943 5858570 5860518 5861425 
2532.268 5861928 5863071 5866227 5872340 5881710 5894271 5909520 5926684 
2536.125 5945259 5964843 5984764 6004551 6023096 6039559 6052998 6063481 
2539.983 6071545 6078770 6086901 6096881 6108944 6122151 6134316 6143221 
2543.840 6147489 6146783 6142448 6136433 6131190 6128300 6128401 6130921 
2547.698 6134349 6137575 6139457 6139558 6138315 6136534 6134921 6134316 
2551.555 6135055 6137138 6140398 6144431 6148195 6151287 6152563 6151522 
2555.412 6148027 6142986 6137878 6134652 6134921 6139961 6149674 6163318 
2559.270 6178643 6193599 6205934 6213934 6217262 6216152 6211581 6205229 
2563.127 6198977 6194104 6191617 6191549 6193331 6195751 6197397 6197196 
2566.985 6194440 6188995 6181265 6172090 6162612 6153606 6146111 6141036 
2570.842 6139323 6141440 6147859 6158344 6171921 6187079 6202204 6215446 
2574.699 6225866 6232992 6237160 6239412 6240723 6242034 6243748 6246068 
2578.557 6248622 6251076 6253295 6254908 6256119 6257295 6258942 6262068 
2582.414 6267783 6276893 6289869 6306477 6325640 6345880 6365313 6382798 
2586.272 6397458 6410001 6421030 6432498 6445579 6461150 6479378 6500230 
2590.129 6522968 6546917 6571506 6596299 6620521 6643837 6665605 6685626 
2593.987 6704267 6722034 6739634 6758143 6777865 6798664 6820171 6841276 
2597.844 6860866 6878606 6893721 6906480 6917253 6926545 6934962 6943244 
2601.701 6951897 6961290 6971661 6983143 6995163 7007252 7019004 7030588 
2605.559 7042307 7055205 7070225 7088276 7109663 7133510 7159009 7184745 
2609.416 7209673 7233425 7256166 7278573 7301518 7325949 7351998 7379700 
2613.274 7408651 7438312 7467705 7496257 7522957 7547399 7569180 7588769 
2617.131 7606910 7624984 7644509 7666732 7692633 7722381 7755874 7792711 
2620.989 7832248 7874186 7918320 7964349 8011935 8060405 8109115 8157595 
2624.846 8205642 8253288 8301074 8349475 8398556 8448285 8498357 8548130 
2628.703 8597133 8645363 8693328 8741332 8789849 8839454 8890145 8941690 
2632.561 8994254 9047908 9102650 9158754 9216117 9274672 9333912 9393398 
2636.418 9452722 9511512 9569599 9626881 9683154 9738214 9791858 9844356 
2640.276 9895911 9947337 9999414 10052954 10107824 10163480 10219009 
2643.651 10272712 10323673 10371146 10415263 10456772 10496961 10537017 
2647.026 10578028 10620639 10665054 10711000 10757972 10805322 10852405 
2650.401 10898814 10944038 10988146 11031681 11074879 11118593 11163466 
2653.777 11209330 11256185 11303011 11348992 11393107 11434845 11473832 
2657.152 11510202 11544091 11575805 11605581 11633386 11659184 11683010 
2660.527 11705202 11725967 11745643 11764333 11781866 11798004 11811962 
2663.902 11823130 11831064 11835660 11837193 11836274 11833924 11831064 
2667.278 11828340 11826059 11824050 11821735 11818330 11813256 11806106 
2670.653 11797016 11786563 11775057 11763549 11752315 11741217 11729950 
2674.028 11718137 11705134 11690668 11674977 11658333 11641282 11624299 
2677.403 11607997 11592615 11578289 11564814 11552189 11539872 11527554 
2680.779 11514454 11500470 11485535 11469851 11454201 11439437 11426238 
2684.154 11415353 11406781 11400420 11395862 11393039 11391780 11392324 
2687.529 11394944 11399502 11406032 11413584 11421374 11428552 11434641 
2690.904 11439574 11443724 11447670 11451752 11456243 11461345 11466653 
2694.280 11472334 11478424 11485059 11492713 11501390 11510712 11520511 
2697.655 11529970 11538578 11546132 11552937 11559335 11566277 11574341 
2701.030 11584176 11595984 11609835 11625388 11642302 11660307 11678823 
2704.405 11697373 11715652 11733524 11750988 11768248 11785543 11803383 
2707.781 11821904 11841244 11861505 11882651 11904548 11927672 11952193 
2711.156 11978658 12007031 12037825 12070495 12105177 12141157 12178061 
2714.531 12215750 12253717 12291719 12329454 12366986 12404624 12443084 
2717.906 12483219 12526221 12572604 12622745 12676269 12732222 12789411 
2721.281 12847050 12904322 12961430 13019025 13077993 13139018 13202579 
2724.657 13268336 13335537 13403262 13470314 13535702 13599013 13659838 
2728.032 13718893 13776382 13832751 13888407 13943354 13997143 14049159 
2731.407 14098718 14145168 14188095 14227604 14263759 14297009 14327656 
2734.782 14355602 14380603 14402283 14420334 14434413 14445339 14453732 
2738.158 14461028 14468256 14476444 14485899 14496588 14507722 14518959 
2741.533 14529511 14539482 14548938 14558772 14569599 14582277 14597046 
2744.908 14613905 14632137 14651293 14670074 14687897 14704211 14718675 
2748.283 14731735 14743663 14754975 14766287 14778320 14791278 14805608 
2751.659 14821276 14838213 14856041 14874043 14891599 14907887 14922427 
2755.034 14935012 14945746 14955383 14964540 14974142 14985015 14997499 
2758.409 15011528 15026722 15042466 15057765 15071693 15083631 15092996 
2761.784 15099582 15103734 15106306 15108125 15110595 15114506 15120544 
2765.160 15128436 15137596 15147099 15155815 15163019 15168544 15172627 
2768.535 15176023 15179832 15184842 15191773 15200764 15212156 15225883 
2771.910 15241669 15258827 15277051 15295550 15313535 15330525 15346247 
2775.285 15360801 15374463 15388058 15402167 15417478 15434404 15452841 
2778.661 15473271 15495418 15519248 15544832 15571894 15600160 15629493 
2782.036 15659170 15689021 15719116 15749522 15780959 15814222 15850373 
2785.411 15890170 15934508 15983801 16038153 16097566 16161185 16228078 
2788.786 16297115 16366955 16436428 16504947 16572410 16638715 16704408 
2792.162 16769631 16834380 16898312 16960736 17020758 17078000 17132142 
2795.537 17183260 17231558 17277550 17321444 17363342 17403174 17440872 
2798.912 17476364 17509896 17541462 17571408 17599770 17626374 17651496 
2802.287 17675136 17697360 17718344 17738500 17758002 17776952 17795558 
2805.663 17813750 17831840 17850034 17868814 17888254 17909006 17930690 
2809.038 17952824 17975100 17997028 18018406 18039614 18061408 18084828 
2812.413 18110908 18140204 18173198 18209442 18248592 18290026 18333540 
2815.788 18379026 18426626 18476756 18529726 18585712 18644542 18705904 
2819.164 18769456 18834642 18901534 18970200 19040820 19113454 19188286 
2822.539 19265174 19344084 19424532 19506486 19589808 19675018 19762290 
2825.914 19852492 19945664 20042046 20141714 20244112 20348894 20455752 
2829.289 20564338 20674306 20785658 20898428 21012586 21128406 21246138 
2832.665 21366198 21489320 21616344 21748316 21886216 22030924 22183212 
2836.040 22343680 22512548 22690104 22876430 23072166 23277848 23494784 
2839.415 23724778 23970578 24235120 24522262 24836082 25180534 25560330 
2842.790 25979328 26442252 26953544 27516728 28133812 28804062 29522586 
2846.166 30278324 31053280 31824060 32559458 33225886 33790140 34220456 
2849.541 34494084 34597696 34530316 34302312 33935072 33458230 32903444 
2852.916 32304038 31691092 31088872 30517162 29989482 29513332 29092152 
2856.291 28725610 28411762 28146714 27925924 27744518 27597434 27479698 
2859.667 27387370 27317252 27267220 27236704 27225730 27234940 27264716 
2863.042 27315346 27386628 27478042 27589032 27719512 27869602 28040032 
2866.417 28231392 28443778 28676726 28928780 29197320 29479038 29770166 
2869.792 30066140 30362388 30653752 30934746 31199900 31444200 31663186 
2873.167 31854152 32016556 32152050 32264314 32358724 32441582 32519280 
2876.543 32597568 32681152 32773580 32877178 32993238 33122812 33266414 
2879.918 33424910 33599220 33790288 33998636 34223752 34463880 34715404 
2883.293 34973324 35230644 35479700 35712820 35922492 36102880 36250240 
2886.668 36363604 36444896 36498880 36533368 36557624 36582244 36618540 
2890.044 36676584 36767308 36901512 37090788 37349652 37695364 38147872 
2893.419 38731928 39473612 40398532 41530456 42884612 44462852 46247008 
2896.794 48195848 50240280 52281036 54204272 55883048 57192808 58037580 
2900.169 58353580 58123632 57376848 56184624 54647416 52872868 50973764 
2903.545 49048764 47173808 45409320 43794176 42350972 41091308 40018404 
2906.920 39130076 38421304 37885852 37517672 37311056 37261628 37365324 
2910.295 37617420 38011836 38538968 39183636 39926784 40742016 41597948 
2913.670 42461120 43294784 44063708 44737900 45292464 45711252 45987388 
2917.046 46122080 46123960 46005920 45785064 45479216 45106488 44685272 
2920.421 44232544 43763504 43292296 42830160 42386008 41966796 41577416 
2923.796 41221684 40902464 40622736 40384820 40190832 40042272 39939384 
2927.171 39881120 39865176 39886932 39940400 40018000 40110292 40206900 
2930.547 40297160 40369188 40411584 40413004 40361876 40247720 40060584 
2933.922 39791780 39435804 38990108 38456852 37842108 37156688 36415344 
2937.297 35634044 34831456 34025616 33233002 32469292 31747092 31075810 
2940.672 30462498 29910852 29421738 28993278 28621300 28299500 28018932 
2944.048 27769984 27541546 27321908 27100796 26869080 26620014 26350458 
2947.423 26060100 25751722 25430322 25102838 24776512 24458318 24154792 
2950.798 23870518 23608542 23370182 23154602 22959948 22783258 22621160 
2954.173 22470742 22329482 22195590 22067526 21944344 21824926 21708082 
2957.549 21592664 21477762 21362960 21248922 21136964 21029348 20928642 
2960.924 20837034 20756218 20687232 20629760 20583096 20546376 20518690 
2964.299 20499794 20489930 20489616 20499586 20520566 20552978 20597238 
2967.674 20653942 20723792 20808320 20909416 21029556 21171056 21336162 
2971.050 21525876 21740722 21980138 22242042 22522842 22817794 23118850 
2974.425 23415360 23694436 23940152 24136192 24267984 24323594 24297594 
2977.800 24191608 24014802 23782136 23513182 23229852 22952052 22697576 
2981.175 22480026 22307436 22182828 22104690 22067386 22061984 22077670 
2984.551 22103400 22128118 22142728 22140846 22118670 22075754 22013670 
2987.926 21936190 21848130 21754552 21660678 21570830 21488868 21417468 
2991.301 21358298 21312184 21279020 21258386 21249234 21250522 21261272 
2994.676 21280586 21307660 21341452 21381164 21425788 21474246 21525738 
2998.052 21579500 21635184 21692790 21752252 21813984 21878446 21945704 
3001.427 22016004 22089316 22165078 22242844 22321878 22401380 22480826 
3004.802 22560046 22639032 22718210 22797994 22878840 22960854 23044250 
3008.177 23128600 23213704 23299276 23385428 23472364 23560648 23650804 
3011.552 23743324 23838314 23935704 24035008 24135596 24236416 24336876 
3014.928 24436552 24535164 24632850 24730034 24826890 24923800 25021226 
3018.303 25118986 25217296 25316508 25416796 25518090 25620708 25724336 
3021.678 25828340 25932228 26035438 26137546 26238866 26340002 26441968 
3025.053 26546038 26653024 26763346 26876836 26992998 27110778 27229258 
3028.429 27347562 27464910 27580876 27695144 27807708 27918786 28028652 
3031.804 28137876 28247092 28356830 28467516 28579610 28692866 28807568 
3035.179 28923504 29040250 29157240 29274050 29390038 29504678 29617856 
3038.554 29730034 29841886 29954834 30069976 30188168 30309516 30433708 
3041.930 30559642 30686290 30812724 30938660 31064098 31189718 31316298 
3045.305 31444020 31573098 31703498 31834826 31966730 32099246 32232266 
3048.680 32365934 32499998 32634464 32768898 32903124 33036854 33170198 
3052.055 33303440 33436864 33570796 33705516 33841144 33977640 34115104 
3055.431 34253260 34391960 34531392 34671152 34811460 34952208 35093504 
3058.806 35235280 35377672 35520152 35662352 35804132 35945164 36085524 
3062.181 36225644 36366020 36507236 36649944 36794136 36939784 37086964 
3065.556 37235308 37384572 37534936 37685892 37836760 37986884 38135028 
3068.932 38280512 38422932 38562648 38700632 38838044 38976404 39116444 
3072.307 39258920 39404164 39552328 39703116 39856572 40012044 40168844 
3075.682 40325480 40480976 40634452 40785908 40936324 41087340 41240924 
3079.057 41398240 41559444 41723696 41889032 42053772 42216612 42377388 
3082.433 42536796 42696008 42855976 43017392 43180000 43342924 43505328 
3085.808 43666436 43826212 43984724 44142488 44300092 44457968 44616640 
3089.183 44776432 44937940 45101380 45266720 45433596 45601384 45769164 
3092.558 45936012 46101964 46267612 46433508 46600984 46770584 46942356 
3095.934 47116012 47291064 47466592 47642408 47818524 47994712 48171300 
3099.309 48347960 48524436 48700612 48876784 49053364 49231200 49410968 
3102.684 49593076 49776784 49961460 50145732 50328520 50509336 50687736 
3106.059 50864120 51039196 51213376 51387328 51561648 51736708 51912924 
3109.435 52090628 52269340 52448464 52626836 52803376 52976992 53147868 
3112.810 53316788 53485100 53654452 53826232 54001348 54180136 54362340 
3116.185 54547736 54735880 54926516 55118884 55312356 55506184 55699452 
3119.560 55891868 56083576 56275064 56467088 56660144 56854004 57048332 
3122.936 57241948 57434176 57624712 57813932 58002436 58191252 58380904 
3126.311 58571556 58763084 58955380 59148216 59341748 59536200 59731308 
3129.686 59926468 60120648 60312520 60501084 60686000 60868244 61048512 
3133.061 61228316 61408348 61588952 61769936 61950920 62131900 62313376 
3136.437 62496312 62681384 62869296 63059896 63252344 63445328 63637948 
3139.812 63829384 64019172 64207628 64394780 64581052 64766748 64951876 
3143.187 65137036 65322696 65509104 65696312 65884068 66071480 66257932 
3146.562 66442692 66625476 66806332 66985600 67163120 67338864 67512576 
3149.938 67684240 67854576 68024936 68197144 68373224 68554344 68740352 
3153.313 68929624 69120368 69309736 69496104 69678776 69857752 70034008 
3156.688 70208224 70381224 70553048 70723456 70892216 71059168 71224392 
3160.063 71387920 71549984 71710856 71870928 72030712 72190856 72351736 
3163.438 72513344 72675200 72835824 72993920 73148192 73298208 73444616 
3166.814 73588848 73732496 73876736 74021984 74167656 74312672 74456440 
3170.189 74598920 74740104 74881144 75022664 75164888 75307408 75449448 
3173.564 75590600 75730576 75869488 76007504 76144368 76279464 76411240 
3176.939 76538280 76659856 76776096 76888168 76997936 77107296 77217520 
3180.315 77329072 77441960 77555512 77669416 77783264 77896592 78009040 
3183.690 78119608 78227232 78331064 78430680 78526072 78618024 78707024 
3187.065 78792944 78875696 78954296 79028384 79098024 79165128 79231528 
3190.440 79299304 79370336 79443608 79518176 79591160 79660616 79725104 
3193.816 79784664 79839976 79891944 79941568 79988768 80033664 80076216 
3197.191 80117176 80157744 80199512 80243472 80289704 80337312 80384392 
3200.566 80429488 80471512 80510400 80546856 80582040 80616744 80651208 
3203.941 80685528 80719560 80752832 80786000 80818528 80850416 80880792 
3207.317 80908608 80933120 80954248 80973448 80992456 81013776 81038896 
3210.692 81067648 81098872 81129504 81157344 81180432 81198368 81212232 
3214.067 81223976 81235240 81247096 81259768 81272592 81284616 81295600 
3217.442 81305632 81315424 81326608 81340392 81358096 81380480 81407888 
3220.818 81439752 81474880 81511736 81548392 81583136 81615120 81644272 
3224.193 81671184 81697136 81722896 81748936 81774968 81800048 81823456 
3227.568 81845336 81866136 81886976 81909224 81933592 81959840 81987936 
3230.943 82017344 82048648 82083072 82122616 82169016 82222944 82283856 
3234.319 82349816 82418104 82486616 82553608 82618680 82682136 82744224 
3237.694 82805080 82864272 82921216 82975960 83029512 83083024 83138312 
3241.069 83196296 83256496 83317184 83375680 83429552 83477664 83520632 
3244.444 83560632 83600912 83644856 83694400 83750520 83812656 83879248 
3247.820 83948304 84017896 84086496 84152568 84215752 84275528 84331496 
3251.195 84384168 84433336 84479064 84521320 84559936 84595080 84627240 
3254.570 84657480 84687320 84718000 84750104 84783496 84817160 84849472 
3257.945 84879000 84904784 84926504 84944632 84959816 84971864 84980536 
3261.321 84984768 84983960 84977304 84965424 84948976 84928960 84906112 
3264.696 84880848 84852616 84820792 84784904 84744344 84699040 84649112 
3268.071 84594432 84535296 84471896 84405048 84335720 84264792 84192912 
3271.446 84120024 84045440 83967928 83886560 83801880 83715168 83628592 
3274.822 83544688 83464688 83388120 83313128 83236352 83154888 83066896 
3278.197 82972192 82871928 82768072 82662328 82556088 82449552 82343288 
3281.572 82237448 82133344 82032120 81934760 81841528 81751656 81663504 
3284.947 81575296 81485832 81394664 81302632 81211104 81121240 81033936 
3288.323 80949528 80867856 80789432 80714888 80644984 80580528 80522280 
3291.698 80469880 80423024 80381440 80344840 80313504 80287872 80267984 
3295.073 80253152 80242232 80233664 80226216 80219872 80215576 80215288 
3298.448 80221192 80234064 80254432 80281056 80312112 80345560 80380448 
3301.823 80415808 80451104 80486672 80522768 80559936 80599632 80643552 
3305.199 80693544 80751520 80817688 80890808 80968416 81046800 81122792 
3308.574 81195008 81263600 81330168 81397824 81468840 81544760 81625800 
3311.949 81711656 81801448 81894856 81991736 82091400 82192800 82293824 
3315.324 82392032 82484608 82569352 82645816 82714160 82775736 82831712 
3318.700 82882840 82929952 82972784 83011736 83047360 83080656 83112112 
3322.075 83141720 83168648 83191560 83209336 83221656 83229040 83232896 
3325.450 83234704 83235264 83234104 83230168 83221424 83206488 83184256 
3328.825 83154520 83117688 83074160 83023656 82966088 82901280 82829056 
3332.201 82749840 82664096 82571680 82472032 82364392 82247696 82122096 
3335.576 81989496 81852816 81716176 81582816 81453816 81328128 81202200 
3338.951 81071232 80930448 80777016 80609680 80429008 80237208 80036456 
3342.326 79828624 79615760 79398664 79178456 78956200 78732360 78507688 
3345.702 78282216 78056224 77830040 77604400 77380544 77159576 76942752 
3349.077 76730232 76521560 76316000 76112824 75911752 75713536 75518840 
3352.452 75328376 75142472 74960832 74782776 74608208 74438384 74274456 
3355.827 74118840 73973056 73837624 73711688 73593128 73479112 73367952 
3359.203 73258704 73151328 73046688 72945584 72847968 72753696 72662392 
3362.578 72573840 72488744 72408136 72333416 72264736 72201976 72143640 
3365.953 72087816 72033680 71980376 71928560 71878904 71832032 71787304 
3369.328 71743728 71698584 71649304 71593544 71529472 71455720 71371592 
3372.704 71277136 71171768 71055656 70929120 70791744 70643528 70483320 
3376.079 70308880 70117640 69906440 69672976 69415312 69133464 68827696 
3379.454 68498904 68147680 67774008 67377128 66956676 66512348 66045016 
3382.829 65556876 65049968 64528040 63994176 63451544 62902576 62349752 
3386.205 61794424 61237736 60679940 60121220 59561092 58999596 58436700 
3389.580 57873132 57309656 56747288 56187076 55630184 55077584 54530528 
3392.955 53990464 53458680 52936040 52422740 51917628 51419144 50925144 
3396.330 50433748 49944212 49456044 48970056 48486648 48006664 47529872 
3399.706 47055596 46583312 46112500 45642788 45174652 44708336 44243992 
3403.081 43781644 43321032 42861936 42404600 41949204 41496260 41045968 
3406.456 40598760 40154448 39712992 39275276 38842028 38415188 37996428 
3409.831 37586708 37186144 36794136 36408896 36028928 35653360 35282464 
3413.207 34917052 34558624 34208556 33867368 33535142 33211150 32894262 
3416.582 32583564 32277950 31976324 31677372 31380474 31084492 30789674 
3419.957 30497294 30208840 29926932 29653578 29389756 29135342 28888832 
3423.332 28647844 28410028 28173654 27937690 27702066 27467734 27235398 
3426.708 27006078 26780826 26559988 26343558 26131352 25922100 25714738 
3430.083 25507654 25299754 25090622 24881308 24673216 24469116 24271104 
3433.458 24080536 23897090 23719984 23547042 23376196 23206468 23037050 
3436.833 22868396 22700998 22535092 22370574 22206784 22042776 21877434 
3440.208 21710694 21542694 21374238 21206820 21041902 20880906 20724660 
3443.584 20572884 20424806 20278792 20132414 19983618 19831232 19675434 
3446.959 19518062 19362168 19211350 19068168 18933720 18806960 18685254 
3450.334 18565136 18443602 18318400 18189472 18058058 17925854 17795248 
3453.709 17667612 17543774 17423524 17306410 17191742 17079032 16967938 
3457.085 16857938 16748348 16639024 16529316 16419154 16308503 16197776 
3460.460 16086977 15976857 15867282 15758969 15652403 15548438 15447862 
3463.835 15351601 15259857 15171872 15086993 15003638 14920952 14838076 
3467.210 14755764 14674495 14595606 14520125 14447978 14378582 14311014 
3470.586 14243935 14176216 14107001 14035916 13963062 13888921 13813800 
3473.961 13738351 13663393 13589543 13517550 13448612 13382759 13320505 
3477.336 13262358 13207976 13157153 13109580 13064846 13022098 12980992 
3480.711 12941051 12902547 12866777 12834627 12807462 12785861 12769107 
3484.087 12755834 12743754 12730584 12714548 12695681 12675007 12654572 
3487.462 12636867 12623530 12615582 12613229 12616025 12623700 12636765 
3490.837 12655663 12681114 12713695 12753410 12799067 12849917 12904322 
3494.212 12960953 13019264 13078880 13140042 13203330 13270078 13341893 
3497.588 13421579 13512013 13615697 13733974 13866547 14011037 14163961 
3500.963 14321424 14480658 14640669 14802935 14970439 15146893 15335537 
3504.338 15537689 15752956 15979469 16214596 16455045 16698830 16944130 
3507.713 17189810 17435976 17683384 17933694 18189298 18452934 18726316 
3511.089 19010320 19303864 19604124 19907748 20211550 20512228 20808878 
3514.464 21100856 21387534 21668446 21942184 22206574 22459228 22698414 
3517.839 22922676 23131362 23324380 23500240 23657558 23793932 23906332 
3521.214 23992006 24049016 24075668 24071430 24036550 23971594 23877310 
3524.590 23755328 23606196 23430712 23229294 23001694 22747712 22467952 
3527.965 22163788 21838096 21494576 21137104 20769392 20394280 20013732 
3531.340 19628702 19240270 18848622 18454422 18057852 17658812 17256656 
3534.715 16852152 16445616 16038978 15635606 15239060 14852887 14479356 
3538.091 14119700 13773475 13440170 13118493 12807770 12507430 12217250 
3541.466 11936050 11662316 11393787 11127907 10862256 10595988 10328831 
3544.841 10062381 9799009 9541757 9293729 9057212 8833705 8623123 8424129 
3548.698 8234276 8050346 7869394 7689227 7508629 7328274 7149678 6974859 
3552.556 6806169 6644611 6490073 6342315 6200490 6064657 5934980 5812193 
3556.413 5696323 5586927 5482122 5379657 5276513 5170710 5061278 4949261 
3560.271 4836870 4726954 4622524 4526355 4438978 4360220 4288470 4220947 
3564.128 4154070 4084662 4009044 3925315 3832544 3731704 3625876 3519739 
3567.986 3417436 3322468 3237336 3162100 3095853 3036924 2982807 2930764 
3571.843 2878795 2824564 2767106 2706387 2643210 2579376 2516684 2456267 
3575.700 2398124 2341888 2285925 2229071 2171225 2113220 2056887 2004689 
3579.558 1958023 1917485 1881943 1849798 1818819 1788076 1757335 1726929 
3583.415 1697955 1670613 1643971 1616466 1585571 1548825 1505500 1456394 
3587.273 1404035 1352348 1305120 1264112 1230152 1202174 1177920 1155096 
3591.130 1131608 1105930 1077064 1044912 1009441 971714 933028 894778 858423 
3595.470 825291 796012 770585 748911 730092 712900 696538 680078 662888 
3599.809 645002 626751 609198 593139 579669 568853 560724 554454 549046 
3604.149 543439 537037 528975 519056 506284 489300 467242 438783 403992 
3608.489 363964 321817 280603 243437 212407 187546 168022 151979 137296 
3612.828 123044 109289 96132 84102 73398 63622 53117 40789 25248 5500 -18389 
3618.132 -45921 -76367 -108202 -140233 -170904 -198659 -222669 -242274 
3621.990 -257242 -268104 -275322 -279528 -280620 -278402 -272375 -263037 
3625.847 -251679 -240983 -235552 -240155 -258368 -290819 -333498 -378391 
3629.704 -416758 -442941 -455552 -457737 -454791 -451283 -450488 -453964 
3633.562 -460683 -468527 -475577 -480111 -482362 -483322 -484613 -487691 
3637.419 -493350 -501128 -510163 -519727 -529060 -537565 -545739 -553449 
3641.277 -560531 -566520 -570723 -572013 -569928 -564303 -555004 -542992 
3645.134 -529424 -515590 -503974 -496560 -495832 -503345 -519628 -543521 
3648.991 -572377 -602323 -629554 -650430 -663267 -667303 -663366 -653441 
3652.849 -639215 -623102 -607121 -593621 -584488 -581411 -584951 -593952 
3656.706 -606922 -621282 -634880 -646758 -656849 -665417 -673556 -681926 
3660.564 -690560 -699591 -708556 -716760 -724269 -731116 -737268 -742925 
3664.421 -747655 -750202 -749474 -744049 -733498 -718513 -701808 -687351 
3668.279 -679908 -684241 -701973 -730917 -764921 -795382 -814796 -819757 
3672.136 -811390 -794952 -777754 -766905 -768559 -785592 -815358 -850810 
3675.993 -883382 -905933 -916679 -918398 -915356 -911785 -909933 -909834 
3679.851 -909669 -907652 -901866 -891946 -878752 -863872 -849256 -836127 
3683.708 -824817 -815094 -806726 -799913 -795217 -793861 -797400 -806131 
3687.566 -820021 -837417 -855737 -872470 -886060 -895881 -902362 -906528 
3691.423 -908842 -909867 -909140 -907222 -903916 -900146 -896707 -894591 
3695.281 -894227 -895914 -898857 -902262 -904974 -905999 -905338 -903420 
3699.138 -901601 -901237 -903916 -910959 -922068 -935955 -950204 -962371 
3702.995 -969479 -970471 -964983 -953775 -937938 -918795 -897534 -874983 
3706.853 -851967 -829414 -808479 -791083 -779143 -774082 -776861 -787213 
3710.710 -802956 -821510 -839599 -853951 -862681 -865129 -861756 -854480 
3714.568 -845089 -835895 -829314 -827297 -831398 -841815 -857787 -876768 
3718.425 -895980 -912513 -923986 -929772 -930995 -929144 -927061 -926234 
3722.282 -926961 -928978 -930598 -930433 -927590 -922266 -915455 -908214 
3726.140 -901899 -896244 -890756 -884043 -875214 -863574 -849719 -834573 
3729.997 -819922 -806792 -796143 -787941 -781888 -777324 -774082 -772793 
3733.855 -775042 -782450 -795878 -814862 -836028 -855605 -868898 -872866 
3737.712 -866716 -851339 -829149 -802758 -775273 -748812 -725790 -708490 
3741.570 -699194 -700418 -714477 -742859 -783906 -831497 -876074 -907090 
3745.427 -918563 -910959 -889664 -861822 -834076 -811191 -796507 -790554 
3749.284 -791843 -797400 -803684 -807718 -808380 -805668 -799616 -790554 
3753.142 -778581 -763135 -745075 -725195 -704884 -685730 -669354 -656816 
3756.999 -648545 -644541 -644376 -648181 -655492 -666046 -679445 -693703 
3760.857 -706737 -716197 -719968 -717521 -709515 -697573 -684076 -671174 
3764.714 -660587 -652416 -646725 -642622 -639645 -637924 -638619 -642523 
3768.572 -650993 -663896 -680106 -696912 -711632 -721788 -725923 -724401 
3772.429 -718579 -709978 -700881 -692578 -685862 -681132 -677823 -675243 
3776.286 -672861 -670181 -666939 -663763 -660786 -658338 -656220 -653838 
3780.144 -650662 -646262 -640737 -634715 -629653 -626874 -627138 -630910 
3784.001 -637627 -645732 -653640 -659793 -663432 -664756 -664226 -663168 
3787.859 -662010 -661547 -661646 -662076 -662738 -663631 -664756 -666476 
3791.716 -668593 -671075 -673357 -675111 -675805 -675574 -674217 -672199 
3795.573 -669454 -665947 -660984 -654367 -646196 -637627 -630447 -626907 
3799.431 -629487 -639843 -658205 -682290 -707861 -729429 -742693 -746431 
3803.288 -742197 -733398 -724467 -718976 -719439 -726783 -739253 -753972 
3807.146 -766773 -774116 -774116 -767501 -756255 -742462 -727940 -713353 
3811.003 -698103 -681396 -662274 -640108 -615955 -592032 -570888 -556295 
3814.861 -550438 -553979 -564270 -576315 -584620 -584951 -576679 -561325 
3818.718 -543356 -528365 -521349 -526776 -545474 -574131 -606128 -634450 
3822.575 -653243 -660521 -657874 -648743 -636998 -626046 -618172 -614367 
3826.433 -614003 -615657 -617312 -618172 -617973 -617113 -616782 -617676 
3830.290 -619727 -622010 -622771 -619528 -610893 -595606 -574760 -550305 
3834.148 -525883 -504834 -491100 -486731 -493019 -508839 -531178 -556096 
3838.005 -579095 -596764 -607319 -610827 -609073 -604010 -597955 -592595 
3841.863 -588724 -586639 -586440 -587830 -590113 -592794 -595077 -596003 
3845.720 -595242 -592165 -586275 -577341 -564733 -547658 -526114 -499837 
3849.577 -470182 -439366 -411660 -392758 -389051 -406596 -447840 -509865 
3853.435 -581675 -648313 -697011 -721622 -723640 -708787 -684672 -656683 
3857.292 -629554 -605268 -584819 -567976 -554839 -544977 -538491 -535811 
3861.150 -536506 -540047 -545705 -552357 -559439 -566752 -573833 -580286 
3865.007 -585150 -586904 -584025 -576348 -564402 -550504 -537896 -529821 
3868.865 -529159 -536241 -549048 -563012 -573668 -577804 -575223 -567976 
3872.722 -559538 -553151 -550669 -551894 -555037 -557188 -554938 -547294 
3876.579 -534156 -517510 -500036 -484944 -474452 -470050 -471142 -475875 
3880.437 -480839 -482759 -478920 -468693 -452871 -434203 -415831 -401465 
3884.294 -394049 -394678 -402392 -414143 -425762 -433475 -435659 -432846 
3888.152 -427285 -422088 -420068 -423379 -432184 -445722 -461345 -476603 
3892.009 -489213 -498083 -502816 -503875 -501690 -496329 -487624 -475312 
3895.866 -459425 -440724 -420234 -399710 -381139 -366274 -356508 -352204 
3899.724 -352833 -357336 -364255 -372333 -380940 -389978 -399975 -411065 
3903.581 -423710 -436983 -450025 -461411 -469950 -475312 -477430 -476802 
3907.439 -473955 -469421 -463066 -454824 -444762 -432846 -419870 -406794 
3911.296 -394414 -383456 -374087 -365513 -356773 -347403 -337173 -327075 
3915.154 -318334 -312639 -311282 -314262 -321016 -329856 -339325 -348132 
3919.011 -355482 -361077 -364851 -366341 -365712 -362732 -357700 -351707 
3922.868 -346377 -342868 -342239 -344159 -347370 -349622 -349059 -344523 
3926.726 -335981 -324790 -312374 -300388 -290091 -281283 -274296 -268402 
3930.583 -263733 -260322 -258832 -259660 -262872 -268004 -274296 -280786 
3934.441 -286779 -292309 -297210 -301514 -304991 -306580 -305653 -301580 
3938.298 -293600 -282740 -270024 -256779 -244924 -235717 -230419 -229193 
3942.156 -232041 -237969 -246116 -254229 -261050 -264792 -264329 -259395 
3946.013 -250652 -239393 -227173 -215218 -204653 -195811 -188756 -183490 
3949.870 -180178 -178787 -179781 -182563 -186703 -191008 -193724 -193790 
3953.728 -190545 -183855 -174581 -163916 -152687 -141194 -129402 -116781 
3957.585 -102968 -88260 -73352 -59438 -47942 -39560 -34789 -33696 -35319 
3961.925 -38500 -42508 -45821 -47213 -46186 -41680 -33530 -22066 -8084 7223 
3966.747 21869 34692 44269 50333 52984 53117 51625 50068 49372 50664 54475 
3972.051 61037 69885 80191 90863 100739 108693 114327 117873 120061 121685 
3976.872 123740 126723 130667 135042 139085 142300 144422 145482 145416 
3981.212 144720 143759 142334 140875 139251 137362 135141 132622 129573 
3985.552 126225 122447 118503 114625 110913 107466 104616 102064 99943 98054 
3990.373 96629 96099 96861 99247 103291 108925 115288 121420 126457 129606 
3995.195 130170 128512 124966 120326 116050 113068 112040 113366 116846 
3999.535 121618 126457 130103 
##END=
