##TITLE=966_2_b
##JCAMP-DX=5.01  $$ Nicolet v. 1
##DATATYPE=INFRARED SPECTRUM
##ORIGIN=UniL
##OWNER=Nicolet
##LONGDATE=2011/09/29
##TIME=10:04:50
##SPECTROMETER/DATA SYSTEM=Nicolet iS5
##DATA PROCESSING=
Ratio against background
%Transmittance->Absorbance
Truncated
ElementMultiply or ElementDivide
##COMMENTS=
Number of sample scans: 32
Collection length: 51.18 sec
Sample gain: 2.0
Background collected on: Jeu Sep 29 10:02:00 2011 (GMT+02:00);
Number of background scans: 32
Background gain: 2.0
Sample spacing:  1.000
Number of scan points: 12415
Resolution points: 8192
Number of FFT points: 65536
Apodization: N-B fort;
Phase correction: Mertz;
Laser frequency: 15798.0 cm-1
Number of rejected sample scans: 0
Number of rejected background scans: 0
Bench serial number: ASB1000141;
##RESOLUTION=4.000
##XUNITS=1/CM
##YUNITS=ABSORBANCE
##FIRSTX=649.893372
##LASTX=4000.122314
##FIRSTY=0.066620
##MAXX=4000.122314
##MINX=649.893372
##MAXY=0.293489
##MINY=0.001850
##XFACTOR=1.000000
##YFACTOR=1.000000E-009
##NPOINTS=6950
##DELTAX=0.482117
##ZPD=6100
##XYDATA=(X++(Y..Y))
649.893 66620456 67247408 67951584 68726880 69561864 70440568 71349216 
653.268 72283752 73254864 74286648 75409320 76649416 78021016 79524664 
656.643 81151312 82895024 84761784 86772088 88958400 91354088 93989152 
660.018 96883472 100045808 103468048 107112224 110896208 114669568 118226272 
663.393 121342888 123798440 125432848 126144992 125864696 124536456 
666.285 122123224 118671736 114390936 109717272 105224992 101381904 98398536 
669.660 96214336 94628976 93417728 92404256 91486552 90623480 89818280 
673.035 89093672 88474216 87972832 87589376 87318864 87158992 87114160 
676.410 87196136 87416800 87783400 88294824 88941520 89708392 90581648 
679.785 91553520 92627000 93816352 95142768 96631688 98308448 100194760 
683.159 102314200 104695768 107375752 110402928 113833936 117723000 
686.052 122123360 127081872 132643040 138858800 145782992 153451168 
688.945 161830352 170757696 179865328 188502800 195823440 200831488 
691.838 202564656 200394752 194138960 184173152 171324512 156762544 
694.730 141767104 127447816 114730752 104202104 96095392 90389392 86855568 
698.105 85171536 84986056 86017120 88088648 91118984 95087288 99948280 
701.480 105525392 111461352 117175648 121898640 124880424 125506400 
704.373 123491512 118968088 112455816 104740384 96629288 88869712 81983696 
707.747 76219624 71618672 68062832 65370420 63347444 61836408 60725476 
711.122 59927076 59372932 59003996 58766684 58624720 58561468 58576788 
714.497 58678080 58868552 59137432 59461720 59811916 60162928 60503524 
717.872 60837332 61177388 61536072 61919200 62323208 62738888 63159368 
721.247 63586660 64031192 64510620 65039916 65625704 66264108 66941916 
724.621 67641536 68344720 69035720 69699896 70321152 70883472 71372416 
727.996 71782344 72122864 72423840 72732896 73101488 73577464 74189544 
731.371 74942208 75820008 76798192 77856520 78986968 80198192 81508176 
734.746 82935408 84488360 86162272 87943784 89821248 91795936 93888536 
738.121 96134832 98578824 101259904 104201976 107414696 110899112 114658912 
741.496 118710800 123089560 127844392 133043688 138775872 145153776 
744.388 152334160 160500672 169821984 180374144 192020448 204297200 
747.281 216268176 226635552 233886160 236613264 234071712 226431792 
750.174 214864992 201132848 187265456 175103200 165882976 160288848 
753.066 158366080 159660048 163331216 168359344 173780464 178717152 
755.959 182547472 184917200 185663088 184763392 182252928 178176320 
758.852 172579376 165538528 157208576 147848272 137837744 127669424 
761.744 117849984 108882888 101199120 95071952 90629080 87821720 86455792 
765.119 86216128 86728472 87638384 88614784 89405016 89845656 89841872 
768.494 89371800 88472792 87235544 85787104 84273400 82847824 81631200 
771.869 80702080 80088728 79774432 79716384 79868128 80198120 80692664 
775.244 81351232 82174424 83153240 84267040 85490488 86800080 88183824 
778.619 89641512 91177720 92793136 94477384 96207184 97953704 99691224 
781.993 101402160 103079576 104720896 106319560 107859352 109313152 
784.886 110646912 111830608 112840872 113664344 114293664 114720352 
787.779 114928784 114898000 114603384 114026608 113162712 112021392 
790.671 110624472 108997304 107164296 105143512 102949112 100596832 98108840 
794.046 95513176 92841552 90120112 87364320 84579656 81767768 78936768 
797.421 76111640 73333232 70656432 68137912 65820096 63728912 61871516 
800.796 60242476 58830916 57625396 56613676 55777960 55092364 54524256 
804.171 54036504 53597884 53189136 52802960 52442292 52113680 51821184 
807.546 51564744 51343956 51163648 51038488 50995076 51068264 51290632 
810.920 51688484 52273900 53041864 53967428 55002736 56078748 57095336 
814.295 57932500 58467636 58584560 58208716 57323080 55977004 54275600 
817.670 52358068 50377076 48457680 46689628 45124320 43777724 42645380 
821.045 41713044 40962504 40371624 39912724 39556864 39273684 39039548 
824.420 38842464 38680564 38558988 38482412 38449576 38451532 38475784 
827.794 38511048 38553452 38607732 38683424 38788840 38926028 39089180 
831.169 39267988 39452896 39640128 39832892 40039476 40267532 40520076 
834.544 40794028 41083476 41383808 41695208 42023696 42377388 42762840 
837.919 43181100 43628336 44098624 44589360 45104360 45654420 46252796 
841.294 46910428 47632648 48418560 49263972 50166224 51127416 52153988 
844.669 53253332 54428512 55674140 56974696 58306964 59639956 60937016 
848.043 62157592 63250772 64158620 64823792 65192088 65230704 64938636 
851.418 64353472 63547380 62614940 61662268 60778980 60031464 59457656 
854.793 59066288 58846168 58772112 58814564 58941260 59121412 59330464 
858.168 59550980 59775300 60005480 60251612 60526492 60841260 61203784 
861.543 61618200 62087020 62614292 63204660 63859628 64570172 65310224 
864.917 66032788 66668740 67141848 67376704 67313560 66923164 66210160 
868.292 65214724 64001820 62658496 61281768 59962488 58788424 57831496 
871.667 57141104 56748232 56663284 56882560 57395716 58194168 59276148 
875.042 60649152 62328792 64335064 66688368 69399760 72461656 75830936 
878.417 79420584 83079736 86587944 89690680 92103896 93570136 93922184 
881.792 93105536 91212136 88454832 85155408 81674904 78343680 75454936 
885.166 73211800 71729224 71055536 71180824 72055936 73598032 75700400 
888.541 78224688 80986824 83774392 86333944 88386072 89679880 90004984 
891.916 89239328 87377536 84533000 80925536 76826472 72542320 68351192 
895.291 64459040 61006528 58051932 55591772 53583564 51967444 50682708 
898.666 49670564 48880568 48267824 47790412 47414736 47115604 46876764 
902.040 46690552 46552812 46457808 46396972 46357744 46327880 46300308 
905.415 46274320 46256296 46254196 46274544 46317928 46379860 46453200 
908.790 46532484 46616952 46710512 46818412 46944240 47086984 47241632 
912.165 47401656 47562884 47725908 47895360 48078240 48279380 48499392 
915.540 48735716 48984744 49244528 49517348 49808256 50122376 50461216 
918.914 50821656 51195632 51575116 51955232 52336688 52725516 53129668 
922.289 53556572 54010240 54492436 55005596 55555584 56152532 56807176 
925.664 57524420 58295676 59092940 59872992 60578716 61152744 61552452 
929.039 61755496 61768484 61622668 61370908 61076576 60801084 60603436 
932.414 60529116 60609532 60863064 61293712 61893944 62644416 63517624 
935.789 64476988 65475584 66463852 67388896 68202848 68874872 69395400 
939.163 69783744 70083528 70360376 70688168 71131248 71740944 72544424 
942.538 73545008 74726016 76055856 77493248 78983624 80464376 81864256 
945.913 83101232 84097192 84783768 85110744 85058312 84637512 83890096 
949.288 82876616 81673216 80361784 79017088 77711456 76506776 75448744 
952.663 74570168 73885224 73392120 73076632 72917880 72896048 72992984 
956.037 73196072 73495872 73883304 74348808 74882328 75475272 76123320 
959.412 76826984 77591760 78424800 79332624 80319728 81388592 82542784 
962.787 83790344 85145088 86627696 88262472 90070904 92069408 94264464 
966.162 96652176 99220000 101951680 104833672 107859696 111036008 114381064 
969.537 117922008 121682672 125669000 129849600 134145824 138418384 
972.429 142467280 146070176 148991760 151032720 152079008 152119776 
975.322 151268624 149735312 147818320 145845248 144112240 142877824 
978.215 142308272 142464096 143296128 144648272 146276912 147856512 
981.108 149049584 149538032 149061024 147478096 144775008 141070160 
984.000 136574560 131566464 126345056 121169384 116262600 111786968 
986.893 107835096 104449872 101627064 99330768 97503472 96080552 95000640 
990.268 94205480 93646592 93284712 93084568 93017280 93058944 93189472 
993.643 93395208 93666776 93998328 94385016 94820896 95298096 95807760 
997.017 96341592 96893896 97463040 98050824 98660272 99293744 99951248 
1000.392 100630248 101326928 102037504 102760288 103495080 104243424 
1003.285 105006984 105787064 106584808 107402688 108244344 109116216 
1006.178 110025104 110977056 111974784 113017192 114099288 115214584 
1009.070 116357792 117526128 118720472 119943048 121196224 122480400 
1011.963 123793808 125133384 126497064 127885936 129305776 130766136 
1014.856 132278504 133855360 135506960 137241088 139064080 140980624 
1017.748 142995200 145111600 147332800 149659632 152089008 154613408 
1020.641 157217088 159872624 162540736 165161552 167656448 169935984 
1023.534 171898912 173453168 174533904 175113856 175216864 174913504 
1026.427 174317344 173557312 172758112 172028688 171437936 171012720 
1029.320 170733632 170540160 170330096 169964752 169292928 168148944 
1032.213 166374880 163852752 160506704 156327344 151374256 145777056 
1035.106 139721872 133421584 127116096 121028640 115340800 110192264 
1037.999 105656160 101746584 98432080 95652000 93334448 91406472 89807560 
1041.374 88485912 87397392 86505760 85778632 85188224 84714584 84343288 
1044.750 84065056 83873576 83762104 83722080 83745224 83823784 83953816 
1048.125 84134672 84367992 84653296 84985088 85349352 85724544 86083360 
1051.500 86395104 86632232 86772088 86799320 86709704 86509288 86217424 
1054.875 85862688 85483384 85122352 84817568 84600672 84491496 84497016 
1058.250 84615008 84837016 85151456 85542496 85988560 86459912 86913240 
1061.626 87297112 87556456 87637336 87501744 87130808 86529544 85723360 
1065.001 84755136 83679216 82549800 81421320 80342768 79351440 78474464 
1068.376 77726240 77109552 76618232 76243128 75975208 75808648 75741152 
1071.751 75771560 75897504 76113376 76410248 76777520 77205880 77688552 
1075.127 78220920 78799504 79419664 80075104 80759424 81468368 82203688 
1078.502 82974400 83797296 84693888 85685544 86793208 88034760 89426432 
1081.877 90986424 92736152 94699104 96902104 99369664 102121496 105170144 
1085.252 108516936 112149472 116035312 120121440 124331480 128562688 
1088.146 132704704 136643184 140275392 143530064 146365600 148769648 
1091.039 150745744 152295376 153402736 154032256 154135920 153678544 
1093.932 152665536 151169680 149337440 147371136 145522960 144036624 
1096.825 143115504 142905856 143461328 144740976 146600224 148815904 
1099.718 151089904 153068448 154411664 154801296 153993472 151866016 
1102.611 148418976 143779696 138163184 131855000 125161096 118359368 
1105.504 111708160 105410024 99603200 94378264 89770112 85771688 82346088 
1108.879 79440240 76994016 74943904 73231096 71799032 70591752 69559800 
1112.254 68658104 67848608 67104956 66409132 65751128 65127024 64535072 
1115.630 63975556 63449860 62961444 62516288 62120660 61781012 61500836 
1119.005 61280048 61115556 61002748 60937512 60917692 60942624 61012056 
1122.380 61124480 61276388 61462928 61679072 61922412 62193380 62495584 
1125.755 62833996 63213288 63637412 64109036 64631304 65208448 65846316 
1129.131 66551312 67327912 68176560 69091816 70062464 71073184 72104128 
1132.506 73134152 74141000 75100720 75990800 76791632 77489608 78082480 
1135.881 78581136 79012040 79411672 79825680 80301904 80881472 81600688 
1139.256 82486936 83558496 84827272 86298096 87968368 89827616 91856968 
1142.632 94030208 96311488 98659616 101027072 103356336 105584288 107639136 
1146.007 109437656 110897272 111934568 112474064 112462040 111867336 
1148.900 110687432 108945864 106689768 103984320 100902488 97528776 93950608 
1152.275 90250936 86512680 82807568 79193120 75718704 72420984 69327960 
1155.650 66463268 63843160 61476712 59365524 57503164 55877396 54471776 
1159.026 53269364 52252188 51400344 50692428 50102596 49602252 49164744 
1162.401 48765596 48387444 48021208 47663524 47315592 46979500 46657456 
1165.776 46351660 46064900 45802040 45569700 45374332 45221344 45112776 
1169.151 45047896 45024340 45040436 45096344 45194136 45336708 45525688 
1172.527 45760140 46037824 46355900 46713612 47113684 47561740 48064584 
1175.902 48627340 49252616 49939788 50687288 51494196 52361772 53292812 
1179.277 54289040 55347700 56459092 57605760 58765928 59916424 61037108 
1182.652 62115004 63144960 64129888 65079100 66008256 66938124 67891528 
1186.028 68893704 69967240 71126056 72372520 73692488 75055944 76416216 
1189.403 77717680 78902600 79913088 80701928 81234512 81489112 81458008 
1192.778 81144920 80562768 79728488 78662104 77384584 75916568 74282472 
1196.153 72514752 70654248 68757008 66888884 65113744 63490392 62056632 
1199.529 60823840 59778152 58887108 58111208 57412092 56763032 56151368 
1202.904 55575692 55042492 54561412 54142600 53794316 53523180 53333684 
1206.279 53227340 53201532 53250036 53364368 53535620 53757792 54029000 
1209.654 54351560 54730164 55169072 55670636 56235272 56862356 57552828 
1213.030 58310264 59140244 60050028 61045272 62128956 63301444 64562484 
1216.405 65913148 67358288 68906480 70569576 72361368 74294232 76380264 
1219.780 78631168 81058816 83676720 86498768 89537136 92799376 96284152 
1223.155 99979440 103857120 107874136 111971136 116064616 120053032 
1226.048 123813728 127194864 130036056 132169424 133432984 133705272 
1228.941 132915336 131062728 128217872 124521224 120167320 115368504 
1231.834 110357512 105358288 100557856 96118832 92156784 88738200 85892808 
1235.210 83616136 81881184 80645464 79860520 79474888 79432832 79681992 
1238.585 80171976 80855288 81693416 82652152 83699856 84806648 85936904 
1241.960 87048168 88095712 89031600 89812816 90409512 90805552 91002568 
1245.335 91016904 90878576 90626920 90305640 89965480 89656664 89424312 
1248.711 89306720 89325648 89484728 89769424 90152088 90597240 91067824 
1252.086 91534696 91976440 92382480 92752232 93094704 93427992 93777336 
1255.461 94175720 94659136 95259432 96001104 96893408 97928504 99078736 
1258.836 100300480 101538192 102722088 103778256 104629952 105196576 
1261.729 105406776 105200072 104532904 103387824 101772880 99721944 97285832 
1265.105 94529696 91527056 88350904 85080352 81796488 78573752 75484344 
1268.480 72587384 69923648 67520744 65392068 63542396 61971820 60676776 
1271.855 59649384 58875004 58333304 57999784 57847508 57854168 58002284 
1275.230 58279872 58679104 59192980 59813400 60531784 61340148 62233528 
1278.606 63211144 64276664 65435744 66694164 68056744 69528296 71114200 
1281.981 72823640 74668920 76662944 78815464 81126552 83582688 86151848 
1285.356 88787792 91430184 94007744 96450440 98688800 100658904 102310544 
1288.731 103603632 104511160 105019768 105125704 104831400 104140192 
1291.625 103052392 101563176 99667712 97367712 94682208 91654616 88360528 
1295.000 84898824 81384072 77944728 74700640 71762368 69230488 67180640 
1298.375 65667020 64716516 64325652 64461620 65065592 66066236 67379488 
1301.750 68918664 70604424 72354872 74090936 75738744 77221952 78471368 
1305.125 79431400 80058168 80326664 80228720 79770728 78973416 77874952 
1308.501 76540960 75062712 73562704 72187848 71074000 70331552 70011072 
1311.876 70084312 70438272 70889016 71233408 71270768 70860312 69950192 
1315.251 68575728 66846484 64907008 62917860 61013768 59286632 57788192 
1318.626 56529548 55496884 54664700 54008736 53510548 53156704 52937052 
1322.002 52841280 52857184 52972760 53176964 53461528 53820984 54250596 
1325.377 54743396 55289968 55876716 56488072 57110036 57730248 58340240 
1328.752 58934808 59510320 60064028 60593608 61097896 61577764 62037484 
1332.127 62484336 62926748 63372672 63828388 64297064 64779900 65277912 
1335.503 65792264 66325636 66880880 67460680 68065776 68695832 69350152 
1338.878 70029768 70738424 71482632 72270488 73109024 74001424 74947448 
1342.253 75944232 76988120 78077288 79213560 80402408 81652112 82970784 
1345.628 84365136 85838576 87391440 89021920 90728088 92508992 94364720 
1349.004 96295440 98299016 100369736 102497328 104670048 106876192 109109960 
1352.379 111373776 113679888 116047856 118500904 121064624 123762440 
1355.272 126615944 129644080 132858320 136256544 139811968 143470816 
1358.165 147143712 150712368 154058624 157071632 159677888 161854832 
1361.058 163628720 165064576 166241008 167242208 168136896 168972992 
1363.951 169783664 170585952 171383904 172171104 172933888 173658176 
1366.844 174338976 174991296 175655856 176398192 177289536 178395696 
1369.737 179762208 181407600 183332368 185528576 187993104 190728928 
1372.630 193741232 197027760 200568448 204325616 208256416 212331328 
1375.523 216548576 220929536 225502192 230268528 235178096 240104192 
1378.417 244860880 249216592 252911680 255705392 257365072 257671808 
1381.310 256456400 253620112 249194064 243352352 236398512 228680944 
1384.203 220472832 211938448 203098160 193882416 184216144 174109168 
1387.096 163698832 153230064 142979776 133178968 123984856 115476208 
1389.989 107691656 100664336 94414424 88952872 84268128 80315736 77029032 
1393.364 74331736 72161440 70465240 69196216 68304704 67719280 67355848 
1396.739 67138136 67010188 66959656 67020780 67270264 67800272 68688184 
1400.115 69983160 71695728 73811152 76300672 79128992 82243096 85549024 
1403.490 88910008 92127776 94956280 97156968 98521616 98919848 98320376 
1406.865 96781144 94433688 91445808 88019048 84360832 80663936 77117976 
1410.240 73876352 71044848 68684144 66805944 65392024 64410964 63835448 
1413.615 63645856 63824088 64347476 65179996 66271596 67574240 69048160 
1416.991 70673936 72457112 74416680 76568040 78900016 81372248 83925672 
1420.366 86506456 89086312 91662064 94242568 96824000 99375672 101832112 
1423.741 104090040 106038616 107581608 108651384 109213096 109245272 
1426.634 108722792 107616464 105903456 103594128 100747144 97480872 93954920 
1430.010 90329096 86753232 83347136 80198552 77378600 74935088 72886568 
1433.385 71223416 69906248 68880040 68089304 67503176 67127224 67001568 
1436.760 67173440 67663176 68444048 69451152 70604464 71829368 73072288 
1440.135 74293880 75465848 76569616 77587800 78506496 79316320 80012512 
1443.510 80595760 81069880 81438232 81699936 81849176 81878096 81785168 
1446.886 81583936 81311544 81022632 80776544 80620656 80573616 80627792 
1450.261 80760456 80952688 81200528 81519376 81933480 82463016 83107824 
1453.636 83845040 84628256 85399728 86106752 86707840 87189248 87566752 
1457.011 87881512 88172336 88456056 88728448 88976416 89193304 89385112 
1460.387 89567760 89759072 89972208 90210024 90467936 90738416 91019728 
1463.762 91321944 91669024 92091288 92621592 93287336 94108064 95103248 
1467.137 96291712 97689648 99305112 101132488 103152552 105326832 107607808 
1470.512 109940208 112250112 114449232 116431912 118084488 119309976 
1473.406 120041456 120243840 119905528 119027392 117626024 115744296 
1476.299 113459576 110879008 108110112 105244320 102332768 99386288 96395744 
1479.674 93352400 90264600 87168752 84119872 81175440 78384088 75771560 
1483.049 73343944 71094336 69009312 67074984 65278604 63609868 62062632 
1486.424 60637308 59340948 58185416 57182676 56339904 55657040 55129156 
1489.800 54753020 54529780 54464716 54560472 54809248 55189124 55666984 
1493.175 56201784 56756728 57304820 57831496 58337588 58833076 59327196 
1496.550 59817584 60285380 60698688 61026316 61245824 61352972 61361520 
1499.925 61300924 61210080 61127992 61091568 61127952 61250748 61458424 
1503.301 61732196 62038056 62323784 62530136 62606096 62532848 62347876 
1506.676 62144632 62035536 62088432 62307604 62647932 63049896 63460900 
1510.051 63845500 64189576 64493440 64769096 65032684 65300324 65582192 
1513.426 65880328 66188848 66495976 66789636 67062424 67319352 67581408 
1516.802 67883080 68257976 68724984 69277472 69884848 70498760 71066472 
1520.177 71552832 71956008 72319680 72712096 73199176 73807384 74515440 
1523.552 75271072 76014448 76702752 77313432 77852512 78345272 78826232 
1526.927 79322960 79850168 80414216 81020160 81677664 82401048 83201752 
1530.302 84080624 85021912 85999784 86987200 87971008 88966328 90020632 
1533.678 91199304 92550320 94088640 95790160 97612520 99506400 101432208 
1537.053 103370760 105311464 107262272 109248000 111312672 113507512 
1539.946 115872856 118435872 121190136 124109320 127168488 130346744 
1542.839 133632552 137015280 140476656 143978048 147458976 150850736 
1545.732 154082608 157091296 159825136 162218800 164188800 165645296 
1548.625 166502768 166730592 166377792 165572976 164466512 163163776 
1551.518 161693104 160007568 158038128 155759648 153241856 150654896 
1554.411 148221760 146109984 144373296 142923312 141566688 140040160 
1557.304 138075136 135493648 132306680 128796976 125421880 122581984 
1560.198 120416464 118826488 117600744 116531176 115453728 114237456 
1563.091 112789664 111058472 109048240 106824752 104499656 102196456 
1565.984 99990320 97886240 95813752 93660448 91309152 88691544 85828208 
1569.359 82837928 79900664 77181976 74781944 72713664 70929984 69357968 
1572.734 67926704 66577196 65262356 63947036 62616012 61292792 60054972 
1576.109 59028780 58356536 58136020 58398040 59116892 60242968 61732348 
1579.485 63562608 65737212 68274840 71196520 74512096 78204848 82223024 
1582.860 86480696 90842224 95129272 99139312 102640664 105417888 107300824 
1586.235 108171528 107990872 106799536 104728872 101987176 98848032 95632880 
1589.610 92638776 90123128 88280008 87219136 86990144 87589904 88980440 
1592.986 91095896 93850408 97151048 100886192 104934408 109176120 113486808 
1596.361 117755592 121893240 125819312 129459264 132731112 135529824 
1599.254 137741376 139258720 140000464 139936432 139090048 137533760 
1602.147 135367136 132712664 129709240 126494496 123209848 119981792 
1605.040 116898656 114013504 111339432 108861728 106554736 104396488 
1607.933 102377104 100495792 98754648 97150512 95672320 94306128 93043104 
1611.308 91884560 90841448 89925904 89140296 88466816 87864800 87272808 
1614.684 86626648 85875328 85009424 84079056 83191360 82473072 82014152 
1618.059 81844816 81933632 82217664 82624256 83092856 83584568 84078488 
1621.434 84576880 85101152 85688896 86382976 87220472 88225272 89399080 
1624.809 90727152 92182184 93732640 95344064 96981872 98618032 100230736 
1628.185 101810832 103360760 104893448 106426184 107973960 109548088 
1631.078 111154456 112797136 114476960 116197128 117965912 119798160 
1633.971 121723280 123788384 126063344 128616768 131498696 134727440 
1636.864 138274864 142098896 146161968 150444112 154942432 159665776 
1639.757 164632320 169852352 175323328 181030368 186935680 192985280 
1642.650 199121264 205267360 211351536 217320688 223142400 228830640 
1645.543 234442640 240075760 245806544 251658432 257592800 263511840 
1648.436 269306176 274872192 280124416 284930048 289048288 292102752 
1651.329 293489312 292479808 288546016 281864000 273544320 265052432 
1654.222 257378304 250662112 244518512 238410400 231934512 224892400 
1657.115 217280208 209228864 200926784 192563216 184242624 175987952 
1660.008 167760976 159496496 151148848 142727024 134311248 126051872 
1662.901 118145240 110782912 104108904 98186224 92993232 88447648 84431056 
1666.277 80818240 77500656 74406336 71512904 68849824 66486588 64503284 
1669.652 62960224 61875720 61225456 60955128 61004848 61319772 61856500 
1673.027 62589072 63507424 64621612 65959080 67557712 69448472 71634096 
1676.402 74097384 76810296 79754560 82929192 86347768 90026624 93958504 
1679.778 98108928 102421856 106829152 111292552 115819216 120464160 
1682.671 125320432 130479128 135969600 141682064 147383232 152792656 
1685.564 157676416 161883392 165316608 167912240 169601728 170334656 
1688.457 170095568 168902160 166808912 163896976 160281904 156112048 
1691.350 151558944 146806976 141985888 137130416 132159768 126887408 
1694.243 121100496 114700552 107850216 101008792 94767192 89541576 85425336 
1697.618 82201120 79509384 76971664 74327808 71533648 68784488 66411836 
1700.993 64657144 63528052 62823004 62275172 61634200 60723648 59435236 
1704.369 57715000 55565900 53042916 50247384 47300448 44325264 41429916 
1707.744 38689368 36148644 33819044 31681542 29702324 27850136 26111646 
1711.119 24497968 23034990 21743472 20624790 19650300 18771982 17936870 
1714.494 17112842 16298629 15519695 14807803 14179365 13622090 13106370 
1717.870 12607669 12129470 11703671 11370827 11153845 11043610 11003541 
1721.245 10982980 10941184 10858011 10743978 10629535 10549918 10522725 
1724.620 10538986 10569201 10581593 10559049 10505990 10444078 10396360 
1727.995 10374811 10372130 10367040 10338095 10278175 10198961 10124476 
1731.371 10073945 10049257 10027489 9970798 9844255 9645683 9416185 9222987 
1735.228 9116963 9105797 9158652 9227320 9270103 9261505 9201361 9109485 
1739.085 9016479 8944733 8897958 8860791 8812909 8742313 8652495 8559012 
1742.943 8478320 8417406 8368390 8312389 8230967 8117184 7979940 7839097 
1746.800 7714084 7614025 7531385 7447176 7340405 7201656 7039007 6874937 
1750.658 6734081 6630715 6562861 6516947 6478638 6442216 6411985 6397559 
1754.515 6405293 6431657 6462529 6478739 6467304 6430110 6384681 6353713 
1758.373 6354218 6386866 6436331 6477865 6489939 6465724 6417029 6369146 
1762.230 6346652 6362724 6410909 6473997 6533126 6578200 6610664 6639193 
1766.087 6671830 6711098 6750167 6778672 6788971 6783788 6774196 6774903 
1769.945 6793447 6824917 6851037 6850027 6809367 6735798 6655545 6598789 
1773.802 6585736 6615677 6670619 6725870 6763460 6778100 6779009 6781466 
1777.660 6798395 6831312 6869820 6897121 6900286 6879111 6847133 6824749 
1781.517 6827071 6855952 6898737 6936679 6953008 6943951 6919946 6900656 
1785.375 6903686 6935265 6988261 7047964 7101142 7142975 7178748 7219140 
1789.232 7271833 7335047 7396079 7435918 7440671 7409561 7358771 7312807 
1793.089 7292893 7304922 7339293 7377812 7405516 7418054 7422638 7432109 
1796.947 7457356 7500336 7551951 7596963 7622354 7624613 7611934 7600470 
1800.804 7603639 7626535 7662517 7698940 7725653 7740426 7750478 7767917 
1804.662 7801549 7852390 7911875 7967218 8009202 8036642 8057265 8082920 
1808.519 8123193 8178123 8239172 8293071 8330628 8352717 8370350 8398286 
1812.376 8447677 8519239 8603419 8685824 8754754 8808277 8853926 8905466 
1816.234 8973552 9061203 9160751 9259474 9345254 9414391 9471076 9524586 
1820.091 9581557 9641448 9695114 9730556 9738384 9717070 9673498 9619800 
1823.949 9567533 9522045 9482489 9444527 9406027 9369460 9340886 9325280 
1827.806 9321420 9319931 9307507 9272235 9212461 9140480 9077748 9043544 
1831.664 9045979 9077815 9121362 9157366 9173103 9168196 9153306 9143898 
1835.521 9150869 9175166 9207825 9236898 9254363 9262453 9272201 9297995 
1839.378 9348639 9422313 9506703 9584944 9643616 9677326 9689896 9690912 
1843.236 9690506 9693217 9697519 9699790 9700230 9704567 9722627 9761392 
1847.093 9820293 9890115 9956559 10006499 10035559 10050071 10064585 
1850.469 10094598 10147743 10220706 10301076 10375421 10435288 10482093 
1853.844 10525000 10574939 10636767 10706076 10771048 10818875 10843844 
1857.219 10849958 10848667 10852405 10867353 10889980 10909584 10915156 
1860.594 10903367 10880942 10862903 10862868 10887364 10930990 10980329 
1863.969 11020159 11042726 11050781 11056015 11071209 11102310 11144361 
1867.345 11184035 11207086 11207527 11192909 11180941 11191072 11232553 
1870.720 11300971 11380760 11455086 11512686 11552359 11581964 11611264 
1874.095 11645127 11680218 11706224 11711942 11693833 11658231 11619432 
1877.470 11592139 11585299 11596733 11615961 11630493 11634032 11629438 
1880.846 11627737 11640124 11672151 11719567 11771584 11816831 11850200 
1884.221 11876522 11907374 11954270 12021303 12101157 12178912 12239675 
1887.596 12275188 12288924 12293764 12306581 12339271 12393374 12462247 
1890.971 12536555 12611011 12687220 12771666 12869644 12980754 13096159 
1894.347 13202784 13288970 13352075 13400050 13446937 13505860 13582192 
1897.722 13670471 13759453 13838327 13903427 13960941 14023664 14103374 
1901.097 14203877 14319266 14436913 14544998 14638442 14720937 14801357 
1904.472 14886935 14976578 15059275 15118795 15142570 15127578 15084556 
1907.848 15031387 14986901 14961693 14954319 14954628 14952056 14942899 
1911.223 14933915 14938408 14968724 15029638 15115364 15211916 15304199 
1914.598 15383320 15448172 15504826 15559668 15615718 15669167 15715027 
1917.973 15751205 15784293 15827315 15894467 15991844 16113557 16241871 
1921.349 16354568 16436152 16483335 16507907 16530210 16569624 16633930 
1924.724 16717149 16804000 16880192 16940548 16991092 17045364 17115566 
1928.099 17205184 17306030 17402380 17480056 17533768 17570684 17605740 
1931.474 17653152 17718758 17797906 17878862 17950684 18010118 18063308 
1934.850 18121928 18194688 18280038 18366616 18438830 18484986 18505072 
1938.225 18510708 18518836 18542762 18582704 18625832 18651424 18643850 
1941.600 18599892 18533080 18466314 18421614 18407406 18417432 18434094 
1944.975 18441596 18433922 18418122 18409100 18419954 18454388 18503516 
1948.351 18552514 18588652 18610024 18626418 18654502 18706388 18782464 
1951.726 18870630 18952722 19013608 19050824 19072358 19093408 19124086 
1955.101 19161864 19192406 19198086 19167752 19107464 19039606 18992598 
1958.476 18989308 19033134 19107326 19182710 19234902 19255614 19256134 
1961.852 19259216 19286336 19344984 19427234 19514388 19589358 19647110 
1965.227 19696756 19754696 19833904 19933038 20035834 20121272 20172292 
1968.602 20187356 20179512 20169376 20171320 20185030 20196138 20184754 
1971.977 20139458 20065018 19981606 19915622 19885618 19892346 19920202 
1975.353 19946844 19959542 19963600 19981120 20035766 20139804 20281570 
1978.728 20430850 20551658 20619474 20633338 20613950 20592374 20592894 
1982.103 20625208 20681012 20742560 20793756 20830532 20860254 20897560 
1985.478 20951278 21020514 21092752 21154148 21196104 21224042 21253306 
1988.854 21301604 21376604 21471914 21566790 21637066 21669176 21666076 
1992.229 21647374 21638388 21659110 21712122 21785486 21858584 21914616 
1995.604 21948944 21969822 21989828 22018898 22055220 22087188 22099704 
1998.979 22084956 22047342 22004362 21977454 21980172 22012100 22057836 
2002.354 22096740 22112708 22103050 22077286 22053338 22044484 22051700 
2005.730 22064006 22065574 22045216 22003944 21954206 21911550 21885554 
2009.105 21873706 21863148 21839734 21799736 21752322 21718844 21719960 
2012.480 21765002 21845098 21937478 22014470 22056510 22060832 22040858 
2015.855 22016910 22004502 22008230 22021338 22033572 22040056 22046472 
2019.231 22065364 22110234 22183106 22273186 22359970 22424720 22460554 
2022.606 22476430 22491540 22525878 22586640 22664306 22735632 22776414 
2025.981 22774038 22734304 22678932 22631808 22610688 22616658 22636868 
2029.356 22654392 22659732 22655578 22657674 22681516 22735526 22813604 
2032.732 22899098 22973746 23026604 23060008 23085862 23115602 23152680 
2036.107 23188258 23206154 23193816 23149290 23085444 23022726 22980976 
2039.482 22967248 22974060 22982828 22974968 22942586 22892182 22840564 
2042.857 22805712 22796910 22810566 22832322 22847792 22849748 22844440 
2046.233 22847374 22874300 22934028 23022516 23126084 23227336 23313716 
2049.608 23381616 23434176 23476702 23510558 23533364 23541584 23534484 
2052.983 23519758 23511538 23525038 23570410 23646012 23738250 23827114 
2056.358 23896738 23940256 23963260 23979330 24001776 24036760 24080292 
2059.734 24120884 24147226 24155106 24148698 24139028 24136716 24146104 
2063.109 24163128 24178542 24183376 24175810 24162812 24157242 24169888 
2066.484 24204676 24255338 24309122 24354048 24383066 24398382 24408196 
2069.859 24420568 24438024 24456076 24464734 24456180 24428490 24389200 
2073.235 24350192 24324050 24316936 24325908 24341572 24353908 24356992 
2076.610 24351980 24344236 24339748 24340310 24341676 24336666 24318898 
2079.985 24287748 24249452 24213750 24189366 24178962 24177876 24177492 
2083.360 24169224 24149748 24122496 24095422 24076018 24067018 24064426 
2086.736 24060012 24045550 24017290 23977370 23932204 23888966 23851160 
2090.111 23817382 23783640 23746544 23707000 23670958 23646362 23639644 
2093.486 23651994 23677888 23708646 23735976 23755994 23770446 23784062 
2096.861 23800582 23819762 23836912 23845420 23841324 23825922 23805202 
2100.237 23787316 23777656 23774752 23771218 23757814 23727822 23681596 
2103.612 23626244 23573138 23531860 23505662 23491636 23481948 23470336 
2106.987 23454144 23436834 23424172 23420852 23426866 23437532 23445366 
2110.362 23445156 23436798 23425608 23418578 23420852 23432252 23446694 
2113.738 23456732 23456382 23445506 23429350 23416026 23410884 23414242 
2117.113 23420362 23421202 23410710 23388016 23358156 23328576 23306130 
2120.488 23291166 23279316 23263374 23238170 23203916 23165924 23132200 
2123.863 23108438 23094668 23085024 23070908 23046310 23011512 22973116 
2127.239 22941294 22923934 22922710 22932246 22942794 22945590 22937102 
2130.614 22921208 22905804 22898992 22904478 22920334 22941888 22964768 
2133.989 22989396 23020628 23064934 23125386 23197624 23270926 23331966 
2137.364 23371022 23385638 23381162 23367280 23352316 23337666 23319660 
2140.740 23291166 23248518 23194270 23138106 23091104 23061614 23050362 
2144.115 23050294 23051794 23048722 23042362 23040508 23053402 23085444 
2147.490 23131816 23179312 23211920 23217128 23193326 23147506 23091768 
2150.865 23035234 22978778 22914852 22833822 22729276 22603918 22469348 
2154.240 22341762 22233566 22149180 22085270 22036884 22005198 22002410 
2157.616 22047760 22159080 22340192 22574598 22829772 23066192 23254776 
2160.991 23383890 23460194 23499262 23518392 23528014 23530496 23525740 
2164.366 23515176 23504996 23505068 23524026 23561104 23607316 23646920 
2167.741 23664766 23653954 23618198 23569464 23522206 23484188 23454038 
2171.117 23422354 23379274 23320324 23251280 23186022 23140448 23124896 
2174.492 23139190 23172914 23210452 23239534 23254042 23254286 23244430 
2177.867 23226148 23196228 23149114 23081042 22994112 22899132 22811926 
2181.242 22746804 22709446 22695830 22693594 22690732 22680120 22664200 
2184.618 22652052 22653030 22669124 22694922 22717232 22723410 22707562 
2187.993 22673382 22631004 22593866 22570376 22560150 22557218 22553658 
2191.368 22546818 22539768 22541234 22557952 22591178 22634112 22672964 
2194.743 22693490 22688814 22659942 22616028 22568072 22523610 22482992 
2198.119 22441992 22394228 22337958 22277546 22222476 22183316 22165254 
2201.494 22166998 22181292 22199740 22217454 22234370 22255678 22285602 
2204.869 22324948 22369948 22412648 22446492 22470498 22490110 22514014 
2208.244 22550378 22601230 22661652 22722154 22773236 22810076 22835638 
2211.620 22857850 22884044 22918448 22958934 22998270 23029992 23051236 
2214.995 23064898 23078176 23097640 23125210 23157014 23184974 23201750 
2218.370 23203462 23192872 23175990 23159634 23146250 23133284 23114936 
2221.745 23086772 23048582 23005538 22965850 22936576 22918554 22907272 
2225.121 22893754 22869760 22833088 22788356 22744710 22711052 22692724 
2228.496 22687242 22688254 22688080 22681902 22670904 22659488 22652052 
2231.871 22649888 22649470 22644060 22627304 22597356 22556590 22512444 
2235.246 22472104 22438434 22410066 22382156 22349748 22311030 22269978 
2238.622 22232382 22205144 22191684 22190604 22196706 22204726 22211876 
2241.997 22218746 22228404 22243472 22263804 22286160 22304994 22316018 
2245.372 22318460 22315530 22312808 22315042 22323238 22334086 22342494 
2248.747 22343330 22334854 22319994 22304542 22293766 22291008 22295648 
2252.123 22304750 22315808 22327562 22341516 22360040 22383866 22410556 
2255.498 22435258 22451692 22455950 22447610 22431002 22411080 22392414 
2258.873 22375774 22358436 22336320 22306496 22269490 22230008 22193672 
2262.248 22164730 22143810 22127666 22111488 22091128 22066446 22040370 
2265.624 22017956 22002514 21993836 21987700 21978430 21961212 21935422 
2268.999 21904824 21875658 21853984 21842556 21840082 21842172 21844750 
2272.374 21845030 21843426 21841892 21842380 21844926 21847190 21845622 
2275.749 21837746 21823566 21806496 21790470 21779738 21776184 21777996 
2279.125 21782246 21785590 21785974 21783850 21780330 21776116 21770680 
2282.500 21762180 21748350 21728008 21702266 21673320 21643786 21614950 
2285.875 21585804 21554046 21517244 21474942 21429268 21384540 21345456 
2289.250 21315038 21293008 21276376 21260614 21242414 21220216 21195306 
2292.625 21170082 21146704 21125448 21105274 21084196 21061032 21036338 
2296.001 21012514 20992138 20977148 20967274 20960422 20954234 20946898 
2299.376 20938656 20931424 20927948 20929928 20937474 20949330 20963378 
2302.751 20978400 20995476 21015992 21042424 21075814 21114598 21155992 
2306.126 21196384 21233368 21266702 21297812 21329446 21363308 21399820 
2309.502 21437554 21474664 21510106 21544296 21579220 21617004 21659076 
2312.877 21704460 21750822 21795416 21836110 21873184 21908518 21944656 
2316.252 21983624 22025242 22067422 22107444 22142658 22172506 22198170 
2319.627 22222058 22246296 22272000 22298298 22322820 22342666 22354876 
2323.003 22356656 22346052 22321634 22282812 22230498 22167902 22100262 
2326.378 22034620 21977908 21934726 21906324 21889840 21879944 21870326 
2329.753 21857016 21839142 21819140 21801304 21789180 21784476 21786916 
2333.128 21794440 21804856 21816738 21829420 21842730 21855796 21866598 
2336.504 21872836 21872836 21866876 21857120 21847224 21840292 21837258 
2339.879 21836910 21835622 21829698 21816842 21796878 21770612 21738980 
2343.254 21700000 21649254 21581206 21491514 21380608 21255636 21129832 
2346.629 21019332 20939282 20901244 20910110 20965014 21060544 21188242 
2350.005 21338042 21498442 21659040 21809806 21943160 22054836 22144088 
2353.380 22213828 22268130 22311554 22347306 22375738 22396076 22406998 
2356.755 22407592 22398450 22381460 22358190 22329760 22296344 22256690 
2360.130 22210340 22157058 22097996 22034792 21968496 21899458 21826912 
2363.506 21750336 21669804 21587578 21506344 21429756 21359306 21294540 
2366.881 21232776 21170430 21104336 21033834 20959484 20883896 20809016 
2370.256 20735436 20662804 20589734 20515356 20440504 20366916 20296326 
2373.631 20229322 20164690 20099546 20030388 19955100 19873512 19787952 
2377.007 19702304 19619828 19542600 19470756 19403362 19339268 19278196 
2380.382 19221324 19170486 19127478 19092786 19065640 19044348 19027212 
2383.757 19013366 19002844 18996440 18994744 18997166 19002428 19008382 
2387.132 19013608 19017692 19021466 19026348 19033340 19042550 19052866 
2390.508 19062872 19071458 19079074 19087038 19096836 19109716 19124882 
2393.883 19140222 19153206 19161968 19165846 19166676 19166676 19167820 
2397.258 19170902 19174608 19177378 19177240 19173776 19167752 19160860 
2400.633 19154488 19149016 19143648 19137174 19128898 19119722 19111794 
2404.009 19107706 19109716 19117576 19129348 19141780 19151856 19158020 
2407.384 19160374 19160618 19161102 19162834 19166330 19170762 19175542 
2410.759 19180252 19185136 19190676 19197082 19203490 19208858 19212148 
2414.134 19213498 19214536 19217724 19225446 19238400 19255268 19272862 
2417.510 19287272 19296280 19299292 19298392 19296554 19296452 19299084 
2420.885 19303588 19308332 19311036 19311278 19309788 19307710 19306184 
2424.260 19305112 19302998 19298254 19289906 19278510 19266248 19255788 
2427.635 19248824 19245430 19243768 19241276 19235906 19227386 19217168 
2431.010 19207750 19201238 19198572 19198400 19198952 19198190 19195178 
2434.386 19190676 19186104 19182642 19180494 19178208 19173706 19165152 
2437.761 19151682 19133884 19113454 19092230 19071664 19051828 19032788 
2441.136 19014578 18997860 18984082 18974390 18969024 18967260 18967120 
2444.511 18966566 18963832 18958328 18950922 18942546 18933894 18924896 
2447.887 18914926 18903472 18890736 18878244 18867758 18860664 18857480 
2451.262 18856304 18854504 18849452 18839660 18825818 18809902 18794504 
2454.637 18781634 18771668 18763574 18756032 18747798 18739356 18731816 
2458.012 18726972 18726002 18728736 18734202 18740948 18748006 18755652 
2461.388 18764992 18776930 18791770 18808760 18825680 18841286 18854884 
2464.763 18866926 18879246 18893504 18910394 18928910 18947254 18963038 
2468.138 18975082 18983632 18989792 18995782 19002670 19010840 19019112 
2471.513 19026208 19031160 19034034 19035626 19036388 19036388 19034760 
2474.889 19029914 19021156 19008692 18994466 18980932 18970442 18964352 
2478.264 18961790 18961306 18960960 18959264 18957082 18955352 18955492 
2481.639 18958226 18963210 18968608 18973664 18978024 18982698 18989376 
2485.014 18999900 19014612 19032926 19053384 19074192 19095174 19117126 
2488.390 19141572 19169378 19200060 19231404 19260116 19282976 19297940 
2491.765 19305076 19306082 19302686 19296418 19287688 19276084 19261294 
2495.140 19243698 19225136 19207888 19194070 19184754 19179144 19175992 
2498.515 19173846 19172010 19170832 19171074 19173326 19177100 19180738 
2501.891 19182398 19181048 19177272 19173118 19171386 19173914 19180702 
2505.266 19189602 19197428 19200996 19199230 19193064 19185240 19178658 
2508.641 19174468 19172044 19169032 19162348 19149986 19131772 19109682 
2512.016 19086622 19065088 19047016 19032718 19021570 19012882 19005820 
2515.392 18999866 18994224 18987578 18978406 18965356 18948084 18928044 
2518.767 18907764 18890596 18878728 18872500 18870906 18871114 18870492 
2522.142 18867966 18863122 18856994 18850560 18843568 18835024 18822982 
2525.517 18805750 18783502 18757380 18729982 18703690 18679788 18658378 
2528.893 18638490 18618706 18598198 18577100 18555868 18534292 18511782 
2532.268 18486610 18456946 18422132 18383104 18342042 18302260 18266422 
2535.643 18235668 18209512 18186154 18163974 18142104 18120788 18101512 
2539.018 18085138 18072082 18061062 18050390 18038888 18026074 18012744 
2542.394 18000412 17989776 17980520 17971162 17959524 17944158 17924924 
2545.769 17903480 17882488 17864810 17851794 17843854 17839986 17838814 
2549.144 17839676 17842438 17847790 17856490 17868402 17882798 17898716 
2552.519 17915392 17932762 17951340 17972026 17994818 18018752 18042376 
2555.895 18064518 18084136 18102272 18120614 18141034 18164594 18190886 
2559.270 18218184 18244170 18267184 18286882 18304334 18321096 18338618 
2562.645 18356868 18374808 18391056 18404882 18416672 18428320 18441942 
2566.020 18459780 18482390 18509222 18538890 18569910 18601448 18633404 
2569.396 18666160 18699332 18732058 18762606 18789314 18811564 18829626 
2572.771 18845508 18861080 18877930 18896102 18914478 18931194 18944900 
2576.146 18955768 18964698 18973696 18984186 18996716 19010562 19024200 
2579.521 19036180 19045700 19052694 19057504 19060516 19061452 19059790 
2582.896 19055220 19047880 19039364 19031300 19025898 19024374 19026348 
2586.272 19030780 19036180 19041684 19047880 19056016 19067718 19084026 
2589.647 19104868 19128934 19154314 19179558 19203836 19227386 19250798 
2593.022 19274178 19297316 19319488 19339544 19357386 19373602 19389608 
2596.397 19406722 19425848 19446292 19466322 19484480 19499174 19510126 
2599.773 19517784 19522880 19525860 19526624 19524612 19519240 19510436 
2603.148 19499382 19487462 19476128 19466218 19457244 19448580 19439224 
2606.523 19428968 19418920 19410570 19405442 19403984 19405442 19407694 
2609.898 19408386 19405684 19399274 19389744 19378590 19367018 19356106 
2613.274 19346058 19336912 19329360 19324338 19323160 19326554 19334418 
2616.649 19345330 19356486 19365388 19369998 19369444 19364490 19356312 
2620.024 19346404 19335664 19324338 19312526 19300434 19288624 19277886 
2623.399 19268534 19260636 19253156 19245120 19235630 19224580 19212804 
2626.775 19202172 19193898 19188876 19186590 19185446 19184200 19181602 
2630.150 19177724 19173362 19169794 19168062 19168200 19170138 19173258 
2633.525 19177412 19183126 19191194 19202554 19217584 19235630 19255614 
2636.900 19276084 19296382 19316370 19337018 19359084 19383440 19409530 
2640.276 19436486 19463272 19488638 19512378 19534870 19556706 19578752 
2643.651 19601490 19624716 19648392 19672210 19696098 19720228 19744154 
2647.026 19767978 19790726 19811880 19831094 19848366 19864530 19880136 
2650.401 19895954 19912050 19927486 19941328 19952812 19961414 19967380 
2653.777 19971580 19974806 19977548 19979802 19981502 19982334 19982784 
2657.152 19983618 19985700 19989864 19996664 20005892 20017170 20030006 
2660.527 20044338 20060542 20079038 20100380 20124222 20149870 20176666 
2663.902 20203912 20231614 20260254 20290494 20322610 20356116 20389696 
2667.278 20421784 20450854 20475966 20497050 20514870 20530154 20543702 
2670.653 20555376 20565138 20572466 20577400 20580492 20582854 20585634 
2674.028 20589906 20596404 20605438 20617494 20632816 20651580 20673680 
2677.403 20698770 20725670 20752986 20779610 20804600 20828342 20851668 
2680.779 20875412 20900480 20926730 20953746 20980904 21007820 21034842 
2684.154 21063048 21093482 21126980 21163054 21200698 21238240 21273940 
2687.529 21307696 21339642 21371246 21404312 21439886 21478876 21521526 
2690.904 21567938 21618782 21674122 21734974 21801304 21872766 21947934 
2694.280 22025660 22105074 22186210 22270186 22358644 22453332 22554670 
2697.655 22662212 22774422 22889074 23004070 23117732 23228874 23337212 
2701.030 23441694 23541900 23636984 23725826 23807686 23881756 23947468 
2704.405 24003982 24049962 24084528 24106944 24117312 24117068 24108520 
2707.781 24094580 24077594 24059242 24040156 24020020 23998448 23975620 
2711.156 23951846 23928598 23907240 23889036 23874508 23863832 23857076 
2714.531 23853994 23854834 23859702 23868698 23881616 23898208 23917990 
2717.906 23940676 23966622 23996000 24029230 24065966 24105194 24145472 
2721.281 24184918 24223034 24259226 24294546 24329656 24365192 24400626 
2724.657 24434660 24465154 24490254 24508870 24521386 24529274 24534532 
2728.032 24539020 24543930 24549574 24555360 24560724 24564756 24567490 
2731.407 24568612 24568366 24566998 24565000 24562968 24561740 24562162 
2734.782 24564896 24570050 24577238 24585372 24593192 24600204 24606060 
2738.158 24611602 24618298 24627346 24639866 24656452 24676724 24700466 
2741.533 24727334 24757324 24790720 24828398 24870676 24917904 24970124 
2744.908 25027156 25088408 25153006 25220002 25288200 25355988 25422768 
2748.283 25488046 25552492 25617264 25684084 25754606 25829712 25909928 
2751.659 25994874 26083814 26176854 26273714 26374856 26480496 26590528 
2755.034 26704394 26821038 26939442 27058934 27179626 27301798 27425942 
2758.409 27551998 27679216 27806368 27932072 28055162 28175422 28293312 
2761.784 28409888 28525860 28641792 28757292 28871764 28984318 29094348 
2765.160 29201714 29306412 29408654 29508506 29605654 29699698 29789968 
2768.535 29876456 29958738 30036846 30110494 30179678 30244220 30304046 
2771.910 30359652 30411888 30461786 30510516 30558862 30607068 30655460 
2775.285 30704462 30755032 30808134 30865654 30929018 30999044 31076164 
2778.661 31160064 31250528 31347390 31450682 31561018 31678584 31802990 
2782.036 31933456 32068354 32206322 32346372 32488428 32633036 32780938 
2785.411 32932896 33089094 33248634 33410348 33572512 33733916 33893232 
2788.786 34049376 34201420 34348284 34489164 34623712 34752300 34876476 
2792.162 34998104 35119368 35242216 35367896 35496740 35628364 35761712 
2795.537 35896144 36030656 36164132 36295736 36424428 36549080 36669264 
2798.912 36785048 36897252 37006892 37114932 37221700 37326904 37429356 
2802.287 37527964 37621932 37711116 37795768 37876960 37955096 38030456 
2805.663 38102436 38170116 38232604 38289524 38341024 38387420 38429268 
2809.038 38466736 38499792 38528356 38552544 38573220 38592016 38610700 
2812.413 38630836 38653800 38680056 38709576 38742108 38777176 38814744 
2815.788 38854564 38896240 38939220 38982136 39023928 39063440 39100128 
2819.164 39134068 39165536 39194836 39222256 39247024 39268568 39285468 
2822.539 39297292 39303572 39304552 39301140 39294392 39285576 39276548 
2825.914 39268968 39264908 39266032 39273752 39288772 39310900 39339516 
2829.289 39373984 39413964 39460368 39514764 39579404 39656684 39748244 
2832.665 39854936 39976840 40113928 40266148 40434096 40619644 40824600 
2836.040 41051140 41300752 41574644 41872828 42194700 42539828 42907728 
2839.415 43298740 43713592 44153492 44619944 45114320 45637600 46190476 
2842.790 46772944 47384100 48022132 48684416 49365824 50059272 50754988 
2846.166 51439284 52095296 52704044 53243368 53691608 54028852 54237756 
2849.541 54307064 54231936 54014816 53664724 53196740 52630392 51985932 
2852.916 51284440 50545516 49785032 49016012 48248348 47488620 46741320 
2856.291 46009640 45295260 44599088 43921372 43261584 42619280 41994132 
2859.667 41386796 40799156 40234960 39698252 39193640 38724972 38294592 
2863.042 37903172 37550288 37234552 36954796 36710008 36499380 36322428 
2866.417 36177816 36063672 35977416 35916408 35877900 35859548 35859296 
2869.792 35875056 35904460 35944448 35991528 36041996 36092404 36140148 
2873.167 36183360 36221572 36255140 36284748 36311660 36337560 36363968 
2876.543 36392432 36424320 36461180 36503420 36551968 36606716 36667608 
2879.918 36734204 36805464 36880412 36957752 37035792 37113272 37188708 
2883.293 37261880 37332432 37400752 37467568 37533420 37599064 37664860 
2886.668 37731104 37797972 37865608 37934196 38003300 38072524 38140928 
2890.044 38207892 38272768 38335560 38396256 38455188 38512860 38568440 
2893.419 38621568 38670856 38715264 38754280 38788264 38818332 38846344 
2896.794 38874464 38904864 38939364 38979124 39024904 39077068 39135188 
2900.169 39198720 39266828 39338428 39412876 39489976 39570436 39656104 
2903.545 39749228 39852720 39969828 40103864 40258260 40436676 40643256 
2906.920 40882404 41159572 41480400 41850976 42277924 42766716 43322312 
2910.295 43947328 44641352 45399092 46210376 47060580 47930216 48796812 
2913.670 49638688 50433820 51163200 51812000 52368424 52825340 53179212 
2917.046 53430612 53583564 53645040 53625248 53535436 53387296 53191908 
2920.421 52958012 52691808 52396872 52074488 51724316 51344404 50932592 
2923.796 50486184 50002760 49480736 48919692 48321040 47687892 47025464 
2927.171 46339972 45638664 44928788 44218164 43514376 42825876 42161364 
2930.547 41529468 40939020 40397112 39909092 39478040 39104260 38786592 
2933.922 38521984 38306752 38136548 38006120 37910148 37842756 37797720 
2937.297 37768912 37750584 37737360 37725032 37710180 37690228 37663920 
2940.672 37630824 37591296 37546428 37498380 37449400 37402452 37360668 
2944.048 37327340 37305748 37298744 37308672 37337196 37385188 37453300 
2947.423 37542020 37652252 37785356 37942296 38122764 38324048 38539872 
2950.798 38760508 38973544 39164380 39319424 39427276 39479276 39470784 
2954.173 39400612 39270020 39082692 38843408 38558808 38236004 37883612 
2957.549 37510844 37126372 36738820 36355500 35981736 35622068 35279120 
2960.924 34954576 34648616 34360584 34088904 33831472 33586440 33352454 
2964.299 33129070 32916420 32715056 32525282 32346408 32177240 32015704 
2967.674 31860248 31709556 31563622 31422898 31288308 31160882 31040932 
2971.050 30928732 30824142 30727256 30638394 30558044 30486382 30423402 
2974.425 30369282 30324190 30289372 30266388 30257932 30266708 30294348 
2977.800 30341210 30406024 30485742 30577206 30677078 30783628 30895894 
2981.175 31014134 31138776 31269972 31407152 31548976 31693232 31837572 
2984.551 31979106 32114838 32241580 32356154 32455508 32537102 32599244 
2987.926 32641500 32664542 32669540 32658324 32632284 32592532 32539744 
2991.301 32474502 32397386 32309820 32212962 32109484 32002148 31894266 
2994.676 31789336 31690524 31600714 31521682 31454492 31398926 31354654 
2998.052 31321072 31297922 31285744 31285462 31297818 31323102 31360958 
3001.427 31409968 31468316 31533976 31605418 31681254 31760708 31842850 
3004.802 31926896 32012026 32097642 32183520 32270134 32358438 32449152 
3008.177 32542996 32639966 32739208 32839578 32940120 33040214 33139798 
3011.552 33238940 33337676 33435576 33531562 33624636 33713900 33799384 
3014.928 33881980 33963700 34046904 34133420 34224760 34321388 34423024 
3018.303 34528988 34638316 34750400 34864484 34980576 35098496 35218424 
3021.678 35340544 35464956 35591608 35719728 35847888 35974212 36096828 
3025.053 36214116 36325384 36431200 36533404 36634044 36735284 36838136 
3028.429 36942708 37048280 37153764 37258556 37362368 37466052 37570628 
3031.804 37677368 37786800 37899052 38013532 38129424 38246064 38363136 
3035.179 38480672 38599256 38719468 38842644 38969920 39102776 39242996 
3038.554 39391432 39549132 39715932 39891512 40074608 40263748 40457880 
3041.930 40655520 40855468 41055544 41252724 41442816 41620556 41780344 
3045.305 41917528 42029172 42114884 42177208 42220844 42252616 42279204 
3048.680 42306668 42339688 42380380 42429300 42485384 42547064 42612740 
3052.055 42681532 42752968 42827268 42904540 42984720 43067364 43151384 
3055.431 43235668 43319348 43401768 43483136 43563748 43644088 43724184 
3058.806 43803964 43883024 43960452 44035656 44107904 44177076 44243440 
3062.181 44307244 44369480 44431248 44493796 44558112 44625124 44694672 
3065.556 44765852 44837120 44906192 44971012 45030072 45082964 45130532 
3068.932 45174096 45215204 45255284 45295188 45335236 45375108 45415348 
3072.307 45456224 45499268 45546112 45598660 45658508 45726456 45802480 
3075.682 45885776 45974720 46067368 46161620 46255560 46347676 46437120 
3079.057 46523376 46606440 46686716 46764424 46839556 46911976 46980792 
3082.433 47045072 47103452 47154824 47197820 47231324 47254784 47268120 
3085.808 47272588 47270148 47264128 47258072 47255412 47258736 47268932 
3089.183 47285632 47307504 47333036 47361708 47393928 47431444 47476200 
3092.558 47529800 47592792 47663708 47740700 47821668 47904904 47990344 
3095.934 48078868 48172300 48271600 48376700 48485348 48594060 48698312 
3099.309 48794028 48878340 48950768 49012524 49066832 49117508 49168340 
3102.684 49222296 49281120 49345668 49415836 49491244 49571832 49657560 
3106.059 49749216 49847464 49953172 50066824 50189208 50320892 50463820 
3109.435 50620864 50796964 50999064 51235336 51514896 51847728 52242432 
3112.810 52707520 53249624 53873904 54583576 55379656 56260316 57219604 
3116.185 58246868 59326096 60432156 61533588 62590368 63553252 64371720 
3119.560 64993740 65371232 65468804 65265164 64757480 63960740 62907592 
3122.936 61643824 60219676 58689760 57105880 55510816 53943228 52433208 
3126.311 51002940 49669040 48441488 47324352 46316640 45413220 44606396 
3129.686 43886656 43244708 42671516 42158476 41697872 41282532 40905816 
3133.061 40562852 40249792 39963904 39703768 39467480 39252936 39057316 
3136.437 38876996 38708272 38547764 38392492 38240092 38089016 37937556 
3139.812 37784668 37629668 37472732 37315424 37159724 37008264 36862628 
3143.187 36723672 36590536 36461180 36333416 36205188 36075336 35943832 
3146.562 35810932 35677204 35542732 35407760 35272148 35136648 35002236 
3149.938 34870268 34741532 34616208 34492792 34368796 34241360 34107900 
3153.313 33967244 33819620 33666780 33510982 33354636 33199776 33047474 
3156.688 32897942 32751248 32606926 32464508 32323420 32182842 32042206 
3160.063 31901222 31759818 31618532 31478432 31340338 31205206 31073316 
3163.438 30944282 30817490 30692370 30568140 30444300 30320530 30196620 
3166.814 30072318 29947486 29821800 29695690 29569652 29444074 29319634 
3170.189 29197036 29076032 28956762 28839010 28722742 28607958 28494510 
3173.564 28382368 28271492 28161810 28053146 27945816 27840388 27737066 
3176.939 27636242 27537662 27440838 27344528 27248204 27151266 27054316 
3180.315 26957846 26862806 26769936 26679130 26589928 26501522 26413058 
3183.690 26324090 26234750 26144828 26054294 25962830 25869766 25774752 
3187.065 25678144 25580678 25483654 25388410 25295926 25205570 25116072 
3190.440 25025928 24933416 24837520 24738768 24638322 24537548 24437848 
3193.816 24339644 24242898 24146594 24050242 23953490 23856200 23758898 
3197.191 23662108 23565756 23470092 23374482 23278792 23183120 23087784 
3200.566 22993450 22901508 22812626 22727566 22646572 22569538 22495344 
3203.941 22422976 22351074 22278312 22203540 22126864 22048632 21969786 
3207.317 21891756 21815448 21741488 21669908 21600568 21533224 21467632 
3210.692 21404172 21342810 21283510 21225332 21167298 21108126 21046562 
3214.067 20982678 20916926 20850488 20784406 20720038 20657210 20596022 
3217.442 20536268 20477702 20420258 20364312 20309796 20256400 20203184 
3220.818 20149176 20093508 20035870 19976852 19917426 19859152 19802760 
3224.193 19749112 19698212 19649986 19604470 19562078 19522774 19486386 
3227.568 19452012 19417984 19382816 19344984 19304280 19261986 19219594 
3230.943 19179282 19142124 19108020 19075266 19041304 19003950 18961444 
3234.319 18913612 18861806 18808310 18755616 18706008 18661146 18621542 
3237.694 18587546 18558496 18533670 18511814 18491416 18471052 18449652 
3241.069 18426384 18401184 18374498 18347364 18320786 18295798 18273092 
3244.444 18252704 18234008 18215764 18195932 18172610 18143726 18108318 
3247.820 18066588 18020064 17971922 17925510 17883696 17848134 17818100 
3251.195 17792004 17766596 17739468 17708784 17674410 17636830 17597562 
3254.570 17557194 17516036 17473780 17430180 17385414 17340650 17297652 
3257.945 17257932 17222526 17191568 17163818 17137726 17111910 17085650 
3261.321 17059320 17033888 17010318 16989162 16970452 16953226 16936620 
3264.696 16919532 16901756 16883498 16865690 16849364 16835792 16825940 
3268.071 16819742 16816434 16813886 16809444 16799386 16781132 16752755 
3271.446 16714634 16668772 16618919 16569072 16522674 16481372 16445065 
3274.822 16412305 16381027 16349616 16317585 16285179 16253635 16223572 
3278.197 16195508 16169231 16144024 16119540 16095160 16071264 16047986 
3281.572 16025364 16003361 15981395 15958982 15936363 15913678 15891511 
3284.947 15870340 15850099 15830167 15809927 15789103 15768178 15748801 
3288.323 15732892 15722310 15717501 15717398 15719322 15719665 15715405 
3291.698 15704378 15686274 15662502 15634919 15605896 15576908 15548129 
3295.073 15519489 15489820 15458575 15425684 15391593 15357368 15324381 
3298.448 15293766 15266961 15244688 15227907 15216926 15212190 15213734 
3301.823 15221181 15233638 15249562 15266309 15280689 15289235 15288205 
3305.199 15274854 15248017 15208244 15157565 15099136 15036841 14973319 
3308.574 14910664 14849561 14790284 14732660 14677408 14624974 14577172 
3311.949 14535268 14499842 14471237 14448868 14431946 14419307 14410573 
3315.324 14405161 14402387 14401873 14402592 14403928 14405537 14407627 
3318.700 14410710 14415608 14422972 14432905 14445237 14459693 14475998 
3322.075 14494532 14515876 14540304 14567406 14595538 14622198 14644370 
3325.450 14659449 14666304 14665551 14659964 14652870 14648071 14648414 
3328.825 14655200 14668497 14687588 14710449 14735368 14760220 14783496 
3332.201 14803380 14818705 14829093 14834750 14837253 14837904 14838693 
3335.576 14840270 14842567 14843527 14841196 14832555 14815413 14788535 
3338.951 14751616 14705239 14650437 14588411 14520261 14447190 14370431 
3342.326 14290947 14210279 14129729 14050460 13973088 13898226 13825944 
3345.702 13756580 13690270 13627766 13569270 13515431 13465632 13419461 
3349.077 13375447 13331335 13285007 13234312 13177508 13114122 13044769 
3352.452 12971092 12895447 12820772 12749384 12682956 12622472 12567591 
3355.827 12517490 12470874 12426616 12383658 12341521 12299594 12258079 
3359.203 12216875 12175982 12135433 12095433 12055778 12016603 11977670 
3362.578 11939115 11901415 11865420 11832324 11803553 11780266 11762698 
3365.953 11749762 11739584 11728724 11713509 11690736 11657822 11613953 
3369.328 11559709 11497136 11429402 11359672 11291482 11227384 11169483 
3372.704 11118593 11074539 11037220 11005478 10978393 10955421 10935815 
3376.079 10918588 10903060 10887772 10871259 10852337 10830119 10804642 
3379.454 10776245 10746254 10715585 10685055 10654798 10625087 10595887 
3382.829 10567843 10541532 10518211 10498658 10483179 10471503 10462848 
3386.205 10456569 10452563 10451376 10453819 10460879 10472114 10485725 
3389.580 10498556 10506805 10507043 10496655 10475508 10444418 10406236 
3392.955 10363782 10319839 10276512 10235225 10197333 10163887 10136143 
3396.330 10115420 10102024 10095852 10095716 10099413 10104195 10107078 
3399.706 10105551 10097344 10081473 10057498 10026369 9989784 9949710 
3403.081 9908623 9868523 9830968 9796230 9764544 9735300 9707989 9682849 
3406.938 9659844 9639381 9621800 9606725 9594259 9583690 9574714 9567363 
3410.796 9561606 9557372 9553578 9549141 9542197 9530987 9514526 9492919 
3414.653 9467622 9440870 9415034 9391908 9372271 9355512 9340277 9324671 
3418.510 9307371 9287501 9265228 9241535 9217945 9196318 9178280 9164879 
3422.368 9156520 9152290 9150497 9148974 9145286 9138145 9126641 9111515 
3426.225 9094022 9075413 9057177 9039484 9022162 9004842 8986779 8968275 
3430.083 8949570 8931441 8914395 8898634 8883855 8870091 8857038 8845067 
3433.940 8834382 8825285 8817068 8808446 8797931 8783865 8765607 8743632 
3437.798 8718986 8693531 8668415 8643909 8619405 8593787 8566818 8538804 
3441.655 8511535 8487747 8469096 8456630 8448960 8442913 8434636 8420413 
3445.512 8397846 8366634 8328837 8287227 8245859 8208276 8176705 8152463 
3449.370 8135414 8124307 8117082 8111310 8104288 8094161 8079847 8061552 
3453.227 8040489 8018348 7996849 7977308 7959793 7943966 7928848 7914102 
3457.085 7899222 7884443 7870103 7855933 7841425 7826108 7809139 7790383 
3460.942 7770514 7750309 7730881 7712937 7696411 7680222 7663563 7645318 
3464.800 7624950 7602999 7580171 7557446 7535666 7515000 7495245 7476199 
3468.657 7457592 7439154 7420987 7402955 7384957 7366455 7347381 7327634 
3472.514 7307517 7287805 7268869 7250910 7233829 7216782 7198759 7179490 
3476.372 7159009 7137855 7117646 7099155 7083191 7069214 7056013 7041734 
3480.229 7024661 7003548 6978126 6949102 6918196 6887561 6858981 6833971 
3484.087 6813170 6795971 6781567 6767936 6753667 6736908 6717222 6694610 
3487.944 6670383 6645922 6623112 6603330 6587048 6574264 6564005 6554821 
3491.802 6545268 6533967 6520007 6503022 6483515 6461890 6439559 6417903 
3495.659 6398198 6380914 6366288 6353713 6342450 6331859 6321437 6311116 
3499.516 6301064 6291046 6280456 6268186 6252757 6233362 6210304 6184794 
3503.374 6159789 6138920 6124940 6119160 6121378 6128872 6137911 6145070 
3507.231 6147254 6143389 6134013 6121143 6107533 6095873 6088144 6085086 
3511.089 6086464 6090833 6096108 6100510 6101720 6098494 6090665 6078736 
3514.946 6064523 6050344 6039189 6032940 6033141 6040197 6053032 6070067 
3518.803 6089153 6107869 6124167 6136937 6144800 6148027 6147288 6144061 
3522.661 6140633 6139693 6143288 6153034 6169569 6191516 6216387 6241631 
3526.518 6263985 6281061 6292256 6297635 6298845 6298610 6299282 6303552 
3530.376 6313301 6329607 6352200 6380141 6411245 6442351 6470466 6492159 
3534.233 6505477 6509211 6504569 6494008 6480993 6469827 6463739 6464278 
3538.091 6472147 6486307 6505309 6527441 6551559 6577091 6603801 6631388 
3541.948 6658674 6683674 6703830 6715809 6716818 6704671 6679300 6641986 
3545.805 6595929 6546210 6498078 6456475 6425234 6406033 6397862 6397424 
3549.663 6400316 6401123 6395239 6379805 6354285 6320697 6282406 6243748 
3553.520 6208321 6177937 6152967 6131863 6113111 6094562 6074468 6052293 
3557.378 6027732 6001561 5974383 5947443 5921344 5897328 5876303 5858671 
3561.235 5845070 5835599 5829521 5825861 5822536 5816323 5803227 5778211 
3565.093 5736946 5676213 5596056 5500511 5397974 5299454 5215174 5152302 
3568.950 5113141 5094702 5091182 5095003 5099730 5100703 5095942 5085248 
3572.807 5070062 5051926 5031947 5010126 4986597 4960790 4933108 4904623 
3576.665 4876777 4851211 4829064 4810637 4795158 4781925 4769497 4757135 
3580.522 4744875 4733955 4725614 4721461 4722901 4729801 4740989 4753249 
3584.380 4761993 4761859 4747689 4715465 4664822 4599150 4525853 4455314 
3588.237 4398710 4363667 4353627 4366880 4397606 4437438 4477844 4511055 
3592.094 4531311 4536165 4525384 4501714 4470244 4435664 4403196 4376888 
3595.952 4357877 4346465 4340909 4338199 4334918 4327924 4314404 4293489 
3599.809 4265883 4233929 4201442 4173038 4152665 4142529 4143667 4155007 
3603.667 4173640 4196825 4219910 4238078 4246877 4241223 4217501 4174443 
3607.524 4114063 4042320 3968281 3902079 3850729 3817201 3798449 3787485 
3611.382 3775820 3756636 3727192 3690733 3654611 3627346 3616153 3623470 
3615.239 3645923 3675060 3700156 3710416 3696648 3654611 3585182 3495789 
3619.096 3398234 3306142 3232696 3186165 3168308 3176118 3201919 3237436 
3622.954 3274425 3309046 3339998 3369348 3399636 3431262 3459750 3476116 
3626.811 3465695 3413862 3312118 3164970 2993316 2828833 2703986 2636143 
3630.669 2624542 2654078 2703920 2754635 2791616 2808623 2806322 2790948 
3634.526 2770173 2750866 2736495 2726892 2719991 2713989 2707354 2700653 
3638.384 2694484 2689317 2684149 2677648 2668180 2655445 2641477 2629943 
3642.241 2626076 2634310 2656545 2691684 2735528 2780844 2819562 2844241 
3646.098 2848744 2828900 2783812 2714923 2625742 2521783 2410385 2300681 
3649.956 2203560 2130767 2091778 2091711 2128603 2194569 2276865 2358978 
3653.813 2425379 2463431 2465697 2433742 2378734 2319136 2274600 2259379 
3657.671 2278664 2327197 2393959 2464764 2527982 2575009 2602408 2610642 
3661.528 2604308 2589309 2571876 2557811 2551778 2556511 2574243 2605675 
3665.385 2650411 2706287 2769973 2835670 2896373 2945075 2977302 2994584 
3669.243 3007596 3037191 3110570 3250956 3471474 3768601 4125971 4515976 
3673.100 4905729 5260783 5541921 5712907 5749436 5648116 5430149 5132318 
3676.958 4791909 4433924 4071918 3714459 3370851 3054809 2783579 2570310 
3680.815 2420348 2328563 2281928 2264175 2262610 2270703 2288257 2317337 
3684.673 2359044 2408586 2455467 2485891 2485491 2445471 2365774 2257447 
3688.530 2138858 2029356 1943645 1887101 1857651 1849731 1857817 1878549 
3692.387 1909332 1948570 1992773 2037711 2079026 2112920 2137826 2155307 
3696.245 2168893 2182680 2200396 2223076 2248954 2274501 2294452 2304046 
3700.102 2299915 2281462 2250852 2213917 2178351 2151278 2138692 2143320 
3703.960 2164398 2198731 2241327 2287258 2332694 2375002 2413051 2446437 
3707.817 2474628 2495989 2506986 2502954 2479526 2433709 2366574 2283227 
3711.675 2194036 2112221 2049630 2015641 2013710 2041240 2091678 2156406 
3715.532 2225940 2292121 2349583 2395459 2429844 2455234 2474261 2489390 
3719.389 2500821 2508319 2510385 2507153 2500188 2493089 2489624 2492490 
3723.247 2501154 2512252 2519983 2518450 2504520 2479493 2449669 2424446 
3727.104 2414783 2427145 2463065 2517051 2579243 2637343 2679748 2698685 
3730.962 2692684 2666280 2628776 2591042 2559511 2533348 2504720 2462965 
3734.819 2400123 2316038 2221544 2133797 2072201 2048431 2063978 2111588 
3738.677 2180882 2261544 2347185 2435675 2525582 2613042 2689384 2737729 
3742.534 2736328 2667346 2524816 2329429 2127004 1974965 1913026 1947006 
3746.391 2053125 2192903 2329096 2429444 2475294 2462465 2400856 2309209 
3750.249 2209455 2118514 2044669 1991042 1959887 1953397 1974832 2023564 
3754.106 2094208 2176253 2256514 2323766 2369905 2392727 2395125 2383165 
3757.964 2363009 2337924 2309209 2277965 2247089 2223775 2216382 2231402 
3761.821 2269738 2325565 2386930 2439273 2471895 2479393 2465831 2441306 
3765.678 2419415 2409585 2413717 2425878 2434708 2429644 2403488 2356379 
3769.536 2295818 2234200 2183679 2152743 2144252 2155973 2182480 2217814 
3773.393 2256381 2294819 2331328 2364908 2395692 2423513 2446737 2462898 
3777.251 2468396 2460166 2436807 2401456 2360677 2324632 2303546 2302913 
3781.108 2323033 2358078 2398724 2434542 2458733 2468130 2464731 2453934 
3784.966 2441239 2430876 2424146 2419914 2416283 2412751 2410019 2410152 
3788.823 2415083 2425012 2438707 2454168 2469729 2485591 2503553 2526216 
3792.680 2554845 2587842 2619775 2643444 2652144 2642677 2617475 2585809 
3796.538 2560544 2552745 2567943 2602642 2645677 2680215 2687850 2654311 
3800.395 2574643 2458233 2327663 2214750 2147282 2137826 2181847 2260645 
3804.253 2349017 2420381 2454101 2439540 2380033 2293420 2206857 2147482 
3808.110 2130234 2155507 2210853 2280596 2350083 2411418 2463864 2512018 
3811.968 2560944 2612842 2663313 2702153 2716990 2696952 2639810 2555911 
3815.825 2468496 2404854 2385497 2416682 2487524 2576509 2655678 2699619 
3819.682 2690117 2621309 2503853 2365508 2242526 2163632 2142787 2174754 
3823.540 2241826 2321001 2391827 2440939 2463798 2465631 2457433 2453235 
3827.397 2463365 2490823 2531748 2577443 2618009 2645010 2655245 2649377 
3831.255 2632576 2611842 2594242 2585309 2587942 2602242 2624976 2651244 
3835.112 2672647 2679948 2664913 2622109 2552778 2465098 2373870 2294919 
3838.969 2240461 2215416 2216382 2235532 2262043 2287191 2305778 2316104 
3842.827 2319635 2320435 2323133 2331361 2348684 2377001 2416649 2466730 
3846.684 2525416 2590009 2658345 2729527 2803121 2878962 2955250 3026247 
3850.542 3080369 3100492 3066321 2960121 2777543 2535114 2275966 2053158 
3854.399 1907900 1855288 1883141 1965445 2074565 2190106 2299182 2395725 
3858.257 2478693 2548345 2604842 2647977 2677248 2693184 2697852 2694251 
3862.114 2684716 2670413 2650544 2624042 2592842 2563377 2545346 2549745 
3865.971 2582409 2640743 2712722 2778677 2818261 2814693 2762504 2670813 
3869.829 2563544 2470829 2414417 2401323 2422147 2458799 2491356 2506520 
3873.686 2500688 2481326 2462398 2458633 2479893 2527815 2595408 2669713 
3877.544 2737162 2784179 2801086 2784412 2738062 2673847 2608642 2560344 
3881.401 2542680 2560044 2606675 2668446 2727259 2763704 2763871 2724058 
3885.259 2653278 2572143 2505120 2472462 2481659 2526782 2591609 2656645 
3889.116 2703320 2718857 2698652 2648711 2583642 2520916 2476594 2460532 
3892.973 2473495 2510485 2563177 2623142 2683216 2739129 2787514 2826632 
3896.831 2854681 2869923 2871257 2858983 2834669 2802887 2768339 2735328 
3900.688 2705687 2678681 2650611 2616875 2574943 2525382 2473128 2426278 
3904.546 2393426 2381166 2391461 2421614 2465497 2516351 2567277 2614009 
3908.403 2654111 2687050 2713289 2733794 2749599 2762270 2773275 2785246 
3912.260 2799952 2818761 2841006 2863986 2883398 2894339 2892871 2877461 
3916.118 2850111 2815160 2779044 2747899 2725125 2712122 2707821 2710155 
3919.975 2717056 2727093 2739529 2753201 2766972 2778410 2785046 2785080 
3923.833 2778343 2766705 2754101 2745165 2743698 2752134 2769740 2793783 
3927.690 2821096 2847677 2870190 2886900 2896407 2898141 2892604 2880396 
3931.548 2862952 2842941 2824031 2809557 2802887 2805288 2816127 2832835 
3935.405 2851679 2868756 2881730 2889669 2893405 2895173 2897474 2901777 
3939.262 2908048 2914853 2919556 2919656 2913785 2901844 2886567 2871791 
3943.120 2861885 2860884 2870623 2890002 2915753 2942673 2964858 2976901 
3946.977 2975901 2961188 2935801 2904645 2873625 2848177 2831468 2824497 
3950.835 2825665 2832935 2843174 2854180 2865254 2875993 2886600 2897007 
3954.692 2907114 2915987 2923059 2928163 2931165 2932666 2933567 2933900 
3958.550 2934401 2934868 2935168 2935435 2936002 2937002 2938904 2941539 
3962.407 2944175 2946543 2947944 2948211 2947844 2947677 2948445 2950480 
3966.264 2953916 2958052 2962056 2965825 2969095 2972464 2976735 2982240 
3970.122 2988712 2995985 3002925 3008430 3012400 3014469 3015103 3014969 
3973.979 3014402 3013701 3013134 3012901 3013201 3015036 3018806 3024645 
3977.837 3032553 3041629 3050137 3056877 3060781 3061382 3059113 3055076 
3981.694 3050070 3045332 3041395 3038058 3035356 3033320 3032119 3032686 
3985.552 3036156 3043163 3054475 3069958 3088612 3108902 3128992 3147047 
3989.409 3161699 3172713 3180223 3185263 3189102 3192674 3196545 3201051 
3993.266 3205758 3210565 3215338 3220011 3224384 3228624 3231861 3233163 
3997.124 3231795 3226854 3218276 3206793 3193474 3180257 3168308 3158195 
##END=
