##TITLE=966_1_a
##JCAMP-DX=5.01  $$ Nicolet v. 1
##DATATYPE=INFRARED SPECTRUM
##ORIGIN=UniL
##OWNER=Nicolet
##LONGDATE=2011/09/29
##TIME=09:58:34
##SPECTROMETER/DATA SYSTEM=Nicolet iS5
##DATA PROCESSING=
Ratio against background
%Transmittance->Absorbance
Truncated
ElementMultiply or ElementDivide
##COMMENTS=
Number of sample scans: 32
Collection length: 51.19 sec
Sample gain: 2.0
Background collected on: Jeu Sep 29 09:56:32 2011 (GMT+02:00);
Number of background scans: 32
Background gain: 2.0
Sample spacing:  1.000
Number of scan points: 12415
Resolution points: 8192
Number of FFT points: 65536
Apodization: N-B fort;
Phase correction: Mertz;
Laser frequency: 15798.0 cm-1
Number of rejected sample scans: 0
Number of rejected background scans: 0
Bench serial number: ASB1000141;
##RESOLUTION=4.000
##XUNITS=1/CM
##YUNITS=ABSORBANCE
##FIRSTX=649.893372
##LASTX=4000.122314
##FIRSTY=0.074688
##MAXX=4000.122314
##MINX=649.893372
##MAXY=0.269266
##MINY=0.002787
##XFACTOR=1.000000
##YFACTOR=1.000000E-009
##NPOINTS=6950
##DELTAX=0.482117
##ZPD=6100
##XYDATA=(X++(Y..Y))
649.893 74688240 75311384 75996648 76758016 77601664 78525440 79519248 
653.268 80574176 81689464 82873648 84142552 85511952 86993392 88590200 
656.643 90304736 92143224 94119960 96257512 98581608 101111376 103861328 
660.018 106839536 110049144 113485304 117116288 120866192 124587264 
662.911 128070968 131089616 133418384 134897680 135431904 134963504 
665.803 133455144 130891960 127345752 123044512 118423776 114035480 
668.696 110314152 107439896 105335272 103792776 102583424 101530400 
671.589 100534840 99563816 98635416 97789984 97068672 96492976 96062528 
674.963 95760872 95569536 95477056 95483416 95598192 95834448 96202680 
678.338 96705752 97341056 98102440 98985632 99992280 101130984 102413344 
681.713 103852408 105459320 107243984 109220304 111414752 113867312 
684.606 116638088 119797552 123414160 127551632 132260304 137579328 
687.498 143545856 150190992 157523664 165483584 173891168 182378624 
690.391 190324160 196938448 201310208 202575024 200182048 193987568 
693.284 184350864 172036656 158121952 143792432 130085904 117881536 
696.177 107748888 99927344 94413800 91000976 89383928 89223048 90239880 
699.551 92257576 95190744 99015184 103685952 109031928 114707928 120154824 
702.926 124633352 127426400 127950832 125942752 121537472 115241248 
705.819 107811992 100025408 92595064 86016064 80517944 76131064 72734664 
709.194 70150160 68191600 66713208 65614836 64821944 64276316 63924268 
712.569 63713148 63601732 63564264 63589960 63677424 63825012 64022704 
715.943 64253188 64494596 64730868 64957456 65182464 65420844 65686524 
719.318 65985924 66316412 66669436 67036940 67417216 67816224 68245528 
722.693 68716360 69235120 69801368 70409008 71048712 71709096 72377920 
726.068 73039000 73671016 74250832 74756912 75178760 75524280 75823480 
729.443 76125536 76482760 76942712 77532664 78255512 79094600 80025696 
732.817 81030264 82102928 83255056 84506072 85875080 87370200 88985848 
736.192 90707512 92523264 94432824 96454576 98621152 100971632 103540920 
739.567 106349872 109407176 112716288 116284512 120132672 124297600 
742.460 128827032 133783760 139246432 145315600 152133136 159866432 
745.352 168668896 178605408 189536896 201016432 212155824 221738480 
748.245 228361296 230736496 228196240 220918432 210001216 197082144 
751.138 184051088 172625728 163964544 158708320 156897360 158099792 
754.031 161522784 166205248 171242720 175815376 179346384 181510352 
756.923 182161536 181284144 178911504 175080992 169826768 163207248 
759.816 155355712 146506992 137018368 127362056 118029784 109514056 
762.709 102236784 96464624 92317848 89741312 88538312 88395288 88945264 
766.083 89846232 90783616 91522344 91914488 91877520 91396816 90510384 
769.458 89305016 87899072 86429224 85039168 83844480 82922856 82306600 
772.833 81986056 81926272 82086512 82436336 82958872 83646064 84490056 
776.208 85474712 86575200 87765832 89026192 90348760 91737816 93201624 
779.583 94742384 96350368 98001576 99666840 101319976 102943904 104532992 
782.958 106087136 107602456 109065704 110451672 111725896 112856288 
785.850 113816112 114588160 115163184 115533832 115689232 115614944 
788.743 115294128 114713488 113869640 112769768 111430128 109870352 
791.636 108109432 106162440 104042592 101766776 99357176 96841968 94252448 
795.010 91613984 88942816 86246440 83528984 80800968 78087720 75428208 
798.385 72872736 70471904 68262208 66265076 64484680 62914944 61545924 
801.760 60367916 59371336 58542016 57858332 57292528 56812236 56389932 
805.135 56007120 55655272 55333848 55043996 54784820 54553220 54347052 
808.510 54172476 54046148 53997780 54064760 54282020 54677104 55262456 
811.885 56033020 56963056 58003840 59085952 60109308 60954900 61502440 
815.259 61637600 61287300 60434512 59125816 57462428 55578896 53624272 
818.634 51722112 49963392 48402852 47060136 45934352 45012540 44275688 
822.009 43699340 43252580 42904508 42623376 42385712 42180096 42005924 
825.384 41869076 41774692 41722020 41703196 41706840 41723256 41750576 
828.759 41794168 41864472 41969936 42112440 42285596 42478768 42681276 
832.133 42887868 43099380 43321108 43557964 43810856 44076544 44350140 
835.508 44629932 44919676 45228736 45567636 45944220 46359952 46810292 
838.883 47288696 47791448 48321964 48889576 49506172 50180768 50916124 
842.258 51708712 52552672 53444628 54387196 55389140 56461280 57609992 
845.633 58833040 60116920 61438692 62766568 64061992 65282420 66375860 
849.008 67284464 67952080 68326496 68377256 68104496 67546328 66773480 
852.382 65878360 64964184 64118056 63404420 62860952 62496732 62301640 
855.757 62252112 62319728 62472744 62679820 62915640 63160592 63405796 
859.132 63652532 63910760 64194032 64515276 64883232 65302864 65776496 
862.507 66307144 66898428 67551368 68257512 68992648 69712464 70350600 
865.882 70833320 71086880 71051400 70697136 70026920 69078648 67914848 
869.256 66619680 65287156 64005584 62861412 61926500 61251856 60871180 
872.631 60797960 61030360 61558140 62370408 63461328 64833568 66498296 
876.006 68473024 70776648 73420920 76399264 79670328 83149624 86691008 
879.381 90081664 93077624 95408448 96831160 97189624 96435632 94658640 
882.756 92062936 88954736 85676672 82542712 79830688 77733296 76360192 
886.131 75758224 75919520 76800056 78323880 80392168 82874576 85595392 
889.505 88349568 90890960 92947136 94272984 94662552 93996064 92266464 
892.880 89581728 86152736 82239840 78138328 74115968 70372344 67044168 
896.255 64189576 61806724 59856448 58282524 57027664 56036376 55261144 
899.630 54659400 54191132 53823796 53531948 53298620 53115252 52977104 
903.005 52879564 52815384 52774416 52746504 52724916 52708644 52701500 
906.379 52709316 52735580 52779428 52836116 52899324 52965500 53035688 
909.754 53115888 53213068 53331884 53472020 53628432 53794616 53965364 
913.129 54140156 54322720 54518468 54731444 54961632 55205792 55459876 
916.504 55722204 55995816 56287056 56604052 56951156 57327500 57726276 
919.879 58137836 58554492 58972000 59391664 59818992 60261052 60724560 
923.254 61215536 61741860 62312996 62940724 63635612 64399852 65221928 
926.628 66070668 66900588 67653152 68269912 68708136 68945856 68990048 
930.003 68873160 68649800 68384584 68139536 67973664 67931240 68042024 
933.378 68322576 68776024 69394904 70161096 71048712 72022808 73038296 
936.753 74046384 74995248 75837640 76543376 77103336 77536584 77885848 
940.128 78214968 78595272 79088408 79743736 80586904 81620640 82828664 
943.502 84180080 85634408 87138456 88630952 90041992 91291200 92302240 
946.877 93007632 93358400 93335888 92952024 92249952 91291736 90154280 
950.252 88919568 87660928 86447296 85336000 84368272 83572480 82960312 
953.627 82529720 82268160 82157968 82182632 82328104 82584544 82944392 
957.002 83399648 83940672 84556584 85236968 85975312 86769936 87624320 
960.377 88544168 89535384 90602176 91746976 92973032 94288016 95705232 
963.751 97245128 98932032 100788176 102830736 105066280 107491120 110092088 
967.126 112852560 115758784 118805016 121997840 125355720 128903704 
970.019 132661360 136629120 140769120 144999200 149180688 153120224 
972.912 156607248 159423216 161386416 162397184 162454304 161673872 
975.804 160261664 158506480 156723040 155194448 154165968 153792640 
978.697 154127360 155116640 156603552 158348144 160031648 161324240 
981.590 161915632 161550768 160091584 157522800 153958816 149604736 
984.482 144732416 139635264 134567760 129750864 125346344 121448504 
987.375 118103704 115311976 113041352 111238056 109839120 108784040 
990.268 108014200 107481280 107145976 106974016 106937904 107014160 
993.160 107182616 107428192 107739296 108107560 108526344 108988744 
996.053 109486808 110012304 110557192 111115776 111686304 112269424 
998.946 112867768 113482936 114114840 114760656 115416560 116078984 
1001.839 116746936 117422256 118109280 118812592 119535848 120280992 
1004.731 121048648 121839416 122655192 123499664 124377496 125293288 
1007.624 126249464 127246352 128281936 129353296 130458104 131594864 
1010.517 132762912 133961264 135187888 136439856 137713920 139008848 
1013.409 140327200 141676032 143066128 144509968 146020320 147607104 
1016.302 149277296 151035856 152885936 154830832 156873840 159017616 
1019.195 161262656 163605568 166037920 168542992 171093328 173650224 
1022.087 176157136 178540224 180715952 182589568 184074016 185108000 
1024.980 185665424 185768848 185485856 184925568 184210976 183460192 
1027.873 182774656 182215488 181803344 181514480 181286320 181019264 
1030.766 180579936 179824768 178597504 176750064 174171648 170792064 
1033.659 166603808 161664608 156098656 150084304 143826112 137555632 
1036.552 131490800 125810192 120654504 116099848 112164696 108821584 
1039.446 106013064 103669296 101717936 100099040 98762216 97664680 96772816 
1042.821 96056576 95490176 95054464 94734792 94520800 94404904 94378880 
1046.196 94433408 94558448 94745216 94987200 95281712 95627264 96021272 
1049.571 96455936 96916184 97379656 97819584 98205456 98510600 98713264 
1052.947 98798736 98762424 98610296 98359760 98037952 97681520 97332016 
1056.322 97027360 96800184 96671056 96647176 96725496 96895272 97142432 
1059.697 97448528 97790616 98139824 98455648 98690424 98793616 98715760 
1063.072 98422312 97897408 97148352 96202560 95104112 93908072 92668104 
1066.448 91437552 90263464 89180896 88215496 87380328 86677616 86101624 
1069.823 85642968 85293008 85046216 84900392 84855144 84908696 85055728 
1073.198 85287728 85593376 85962144 86385360 86857104 87372512 87926984 
1076.573 88513776 89126872 89761760 90420072 91110528 91849928 92661128 
1079.948 93566768 94589632 95749024 97060672 98541688 100210664 102088384 
1083.324 104199112 106566304 109209352 112141024 115362920 118862336 
1086.217 122605664 126538832 130584600 134640896 138599488 142349984 
1089.110 145794432 148866368 151529120 153774832 155611040 157044000 
1092.003 158062448 158635696 158719584 158281008 157324832 155918704 
1094.896 154200704 152361392 150638064 149259728 148415424 148238624 
1097.789 148774880 149979632 151711632 153757552 155835600 157614528 
1100.682 158778048 159032000 158153040 156031024 152669408 148189744 
1103.575 142793568 136748000 130338864 123825976 117452608 111410168 
1106.468 105831328 100804016 96363064 92502312 89186920 86364904 83977608 
1109.844 81963320 80265392 78829656 77602656 76537088 75588952 74720784 
1113.219 73906400 73128504 72378544 71654848 70959160 70295248 69667736 
1116.594 69082608 68547280 68068496 67652408 67301288 67013584 66783920 
1119.969 66605428 66472344 66381028 66330576 66321232 66352656 66422344 
1123.344 66526444 66660204 66821128 67009760 67229608 67486376 67785584 
1126.720 68131280 68525792 68970784 69468688 70023576 70640560 71324184 
1130.095 72075568 72890880 73760336 74669312 75598296 76527048 77434320 
1133.470 78298088 79099016 79820464 80451224 80989256 81444064 81838688 
1136.845 82205568 82586352 83025776 83563520 84235624 85070072 86086072 
1140.221 87296544 88706992 90315800 92112992 94080120 96191104 98410008 
1143.596 100694624 102997120 105259568 107419872 109408624 111146888 
1146.489 112557432 113562680 114093216 114099760 113554248 112454656 
1149.382 110823112 108703304 106154992 103245336 100052360 96657816 93140240 
1152.757 89579120 86044424 82592800 79272736 76120440 73163680 70425608 
1156.133 67922560 65664248 63653252 61883628 60343016 59013712 57876696 
1159.508 56911156 56094884 55404912 54815304 54298388 53829456 53386548 
1162.883 52954832 52527840 52104936 51689232 51284588 50893512 50517264 
1166.258 50156260 49812308 49489016 49191456 48925292 48694904 48503356 
1169.634 48352704 48244756 48182148 48168264 48205768 48295780 48436932 
1173.009 48625892 48859248 49135316 49455152 49823344 50245412 50726240 
1176.384 51269116 51874796 52543064 53274196 54069600 54931288 55859496 
1179.759 56850192 57893012 58970676 60062928 61148244 62208060 63230648 
1183.135 64210972 65151356 66060176 66951580 67844968 68761696 69726008 
1186.510 70759104 71874800 73075024 74346568 75660920 76973408 78230992 
1189.885 79378176 80358912 81127072 81648352 81900144 81874024 81572544 
1193.260 81007584 80196080 79158328 77916216 76491016 74907760 73198352 
1196.635 71402168 69573216 67774744 66068432 64511584 63141392 61969340 
1200.011 60982160 60147248 59425020 58775828 58171932 57599552 57056760 
1203.386 56550304 56090624 55688340 55351916 55087588 54898840 54785908 
1206.761 54745688 54771660 54856204 54991868 55174260 55403748 55684308 
1210.136 56022084 56422644 56889132 57421848 58020124 58683692 59414948 
1213.512 60218648 61101292 62068444 63123576 64267792 65501512 66826156 
1216.887 68246264 69769656 71407448 73172032 75075160 77128112 79341624 
1220.262 81725968 84292872 87053832 90017896 93189144 96562576 100122408 
1223.637 103837216 107660616 111532200 115369400 119074296 122531496 
1226.531 125600856 128135976 129985632 131005528 131090344 130182344 
1229.424 128289152 125483544 121901136 117726168 113156520 108407712 
1232.317 103685696 99162496 94987656 91267656 88064296 85405456 83286920 
1235.692 81683456 80554912 79854752 79533856 79538832 79819184 80327016 
1239.067 81016848 81851616 82798872 83828568 84912312 86016584 87100840 
1242.442 88122416 89034936 89796688 90378176 90763896 90955496 90969552 
1245.818 90836016 90593408 90284184 89956632 89658168 89431312 89312336 
1249.193 89322064 89464784 89727504 90084400 90502016 90944712 91384344 
1252.568 91800320 92182640 92531304 92855872 93174528 93511656 93898448 
1255.943 94368504 94950832 95667232 96525160 97515464 98610712 99767808 
1259.319 100932880 102038848 103015008 103789112 104285632 104438544 
1262.212 104192920 103509720 102374632 100797368 98811464 96465952 93822736 
1265.587 90951048 87919440 84802344 81676024 78611240 75676968 72929840 
1268.962 70408696 68139768 66135332 64399012 62930076 61724560 60774636 
1272.337 60066728 59581880 59297040 59186868 59230008 59409744 59714468 
1275.713 60136784 60669804 61305272 62034656 62849084 63742460 64713172 
1279.088 65763660 66899316 68125736 69448280 70871536 72400976 74045040 
1282.463 75814880 77722560 79777096 81978576 84313512 86750280 89243400 
1285.838 91733640 94151680 96430752 98505864 100319056 101826120 102992456 
1289.214 103795592 104224976 104278224 103958520 103269920 102213432 
1292.107 100785336 98980808 96800392 94259896 91397600 88282080 85005512 
1295.482 81676304 78417384 75345360 72568048 70183616 68265688 66866076 
1298.857 66010064 65692880 65881988 66520036 67538392 68856392 70391672 
1302.232 72068296 73808400 75535752 77178528 78661832 79917352 80889816 
1305.608 81536080 81832168 81771648 81363216 80629792 79610944 78371896 
1308.983 77001376 75617024 74358600 73354928 72708968 72465728 72594008 
1312.358 72981056 73446976 73794584 73831968 73426688 72532720 71188520 
1315.733 69502712 67616056 65682976 63832028 62150288 60686684 59451348 
1319.109 58431240 57602200 56941376 56430980 56058312 55814432 55690336 
1322.484 55676172 55762248 55939464 56200956 56541664 56956712 57438828 
1325.859 57978540 58562188 59174640 59801728 60430288 61050648 61656272 
1329.234 62242284 62805468 63343764 63856676 64345360 64814060 65268824 
1332.610 65716624 66164500 66617712 67080012 67553768 68040976 68544056 
1335.985 69066096 69609776 70177256 70768808 71383664 72020624 72680288 
1339.360 73366112 74083624 74840832 75644400 76498288 77403272 78357376 
1342.735 79357888 80403208 81495104 82638848 83842432 85114328 86461608 
1346.111 87887840 89392968 90974536 92629144 94354712 96150424 98016568 
1349.486 99952200 101952768 104009584 106111208 108246176 110407584 
1352.379 112596984 114825136 117110472 119475120 121943128 124535704 
1355.272 127271712 130166784 133229896 136457376 139822848 143274784 
1358.165 146728496 150072592 153195648 155994144 158400624 160395296 
1361.058 162005216 163293520 164335168 165210208 165984880 166706272 
1363.951 167408752 168112016 168823024 169537584 170243088 170924400 
1366.844 171573664 172201152 172841392 173552720 174399968 175443456 
1369.737 176724288 178258080 180042832 182068624 184329936 186826800 
1372.630 189561760 192530752 195713072 199072496 202569216 206176448 
1375.523 209892640 213736720 217731264 221872112 226105808 230308976 
1378.417 234308576 237895200 240842096 242944704 244010528 243860640 
1381.310 242358928 239430288 235111824 229563264 223055872 215895792 
1384.203 208318880 200460672 192326336 183841824 174930320 165596304 
1387.096 155965008 146263456 136750496 127643496 119091072 111168976 
1389.989 103915120 97362032 91530360 86432416 82059376 78371624 75307560 
1393.364 72796440 70779968 69208304 68037528 67221912 66695668 66381840 
1396.739 66210196 66129544 66128812 66239676 66533088 67093820 67993624 
1400.115 69277896 70956472 73015952 75429192 78162400 81163568 84340792 
1403.490 87560792 90632552 93319824 95395656 96663400 97001760 96384576 
1406.865 94870608 92588544 89700984 86402096 82891336 79353592 75969968 
1410.240 72886960 70204792 67980760 66224860 64918168 64029196 63530320 
1413.615 63401124 63622988 64173596 65017872 66108128 67398680 68851416 
1416.991 70447664 72192032 74102256 76192776 78453344 80846584 83317264 
1420.366 85815208 88313096 90807232 93304216 95798624 98258672 100620840 
1423.741 102785688 104648544 106119792 107138088 107672968 107705880 
1426.634 107213568 106167048 104542304 102346072 99631160 96508648 93130096 
1430.010 89649336 86211608 82934280 79903216 77188112 74835552 72863680 
1433.385 71263624 69997840 69013360 68256384 67695352 67333448 67205936 
1436.760 67356544 67805376 68529784 69470904 70555616 71713984 72894992 
1440.135 74059416 75177928 76229544 77195352 78060312 78815144 79456392 
1443.510 79986696 80412224 80738632 80967064 81093120 81109696 81014656 
1446.886 80820080 80560464 80287112 80056736 79915160 79880192 79944240 
1450.261 80084504 80280784 80527192 80836448 81231240 81732248 82341928 
1453.636 83041304 83788496 84529016 85210920 85790416 86248744 86595824 
1457.011 86868640 87106392 87330248 87541792 87732456 87898344 88046928 
1460.387 88194912 88360976 88558424 88790640 89051128 89329264 89618544 
1463.762 89923128 90261216 90660064 91152168 91767120 92527608 93454744 
1467.137 94567928 95882128 97404536 99128696 101035056 103085032 105230560 
1470.512 107414736 109561472 111582056 113374088 114833248 115875240 
1473.406 116447512 116525368 116103056 115182888 113780416 111935032 
1476.299 109719704 107235800 104585096 101853776 99089192 96299616 93474632 
1479.674 90603936 87693896 84778176 81907784 79136504 76509192 74049720 
1483.049 71762800 69641712 67674056 65847164 64149976 62573724 61113304 
1486.424 59769256 58547668 57459100 56513808 55717536 55069724 54565652 
1489.800 54203368 53985776 53920496 54012192 54255852 54631632 55108240 
1493.175 55645852 56207892 56766580 57305120 57821388 58321976 58813844 
1496.550 59294036 59745412 60139680 60448716 60653344 60750896 60755656 
1499.925 60696436 60611440 60538032 60511940 60559364 60693428 60912884 
1503.301 61200124 61522900 61830752 62065576 62175372 62136680 61979848 
1506.676 61790144 61676016 61707296 61894060 62198236 62565416 62945516 
1510.051 63304088 63627132 63914524 64178088 64434208 64698792 64981772 
1513.426 65284884 65601504 65919236 66225552 66512348 66783996 67059524 
1516.802 67372016 67753440 68221920 68771520 69373440 69982040 70546152 
1520.177 71031112 71433728 71794072 72176848 72646016 73228944 73907104 
1523.552 74631464 75344296 76002800 76583456 77090360 77547752 77990640 
1526.927 78449176 78941536 79477032 80062352 80706872 81423280 82220784 
1530.302 83098072 84038040 85014296 85998048 86974280 87954336 88981496 
1533.678 90119048 91415264 92889600 94523352 96278896 98109880 99977184 
1537.053 101859880 103744384 105633720 107546592 109519776 111597480 
1539.946 113815296 116198424 118742816 121427592 124233600 127144560 
1542.839 130151392 133243952 136403168 139591120 142750256 145817152 
1545.732 148728304 151427648 153867616 155986896 157705184 158937008 
1548.625 159602960 159678608 159217072 158346608 157213328 155917248 
1551.518 154481824 152857728 150974080 148802128 146404672 143940784 
1554.411 141622000 139607888 137951712 136571680 135285744 133843960 
1557.304 131989240 129547536 126521632 123173280 119936408 117199040 
1560.198 115105128 113570512 112399120 111393944 110397800 109283832 
1563.091 107961384 106378984 104537712 102497328 100361680 98246048 96221456 
1566.466 94292992 92395312 90423216 88266728 85860744 83223272 80463224 
1569.841 77748160 75231824 73009168 71094568 69445864 67997072 66683380 
1573.216 65450468 64253724 63059092 61850352 60647060 59521456 58591992 
1576.592 57994524 57823772 58111092 58834140 59946172 61405904 63191944 
1579.967 65307064 67767728 70592072 73786368 77330936 81172328 85225312 
1583.342 89358656 93402896 97168248 100440216 103021736 104759056 105547824 
1586.717 105356216 104225696 102281696 99719232 96793560 93803856 91025736 
1590.093 88698168 87001408 86038240 85855416 86451544 87792192 89816000 
1593.468 92441632 95579320 99120576 102947640 106944424 110991088 114982016 
1596.843 118832760 122467880 125818880 128810944 131349864 133334336 
1599.736 134670864 135289504 135166848 134326368 132833896 130779432 
1602.629 128272952 125440584 122409504 119311728 116266712 113358952 
1605.522 110639512 108121800 105792600 103627864 101606592 99719112 97963216 
1608.897 96339408 94843816 93465672 92192952 91019192 89947992 88991256 
1612.273 88161176 87459024 86866616 86343360 85829944 85264464 84598096 
1615.648 83821656 82981128 82177032 81529128 81123152 80990376 81104144 
1619.023 81407416 81833168 82324504 82843456 83368608 83900632 84458096 
1622.398 85075880 85794328 86647928 87657776 88823528 90128960 91546800 
1625.774 93047616 94600224 96174560 97746920 99298448 100821408 102317888 
1629.149 103800520 105286840 106793560 108334480 109917808 111547952 
1632.042 113224112 114945312 116715032 118542296 120450560 122481632 
1634.935 124699352 127166808 129930344 133007048 136370784 139982800 
1637.828 143808432 147828208 152036912 156438064 161042832 165854624 
1640.721 170867232 176065328 181415088 186867408 192367824 197840608 
1643.614 203209040 208409712 213396560 218168832 222773072 227305408 
1646.507 231857120 236481920 241179744 245889504 250527440 255002224 
1649.400 259229296 263075328 266304768 268557088 269265696 267760224 
1652.293 263573104 256905280 248826480 240719584 233504688 227300352 
1655.187 221733648 216293328 210593664 204437936 197807824 190808560 
1658.080 183599168 176340048 169117840 161947040 154787856 147576992 
1660.973 140269984 132871328 125450312 118140632 111118552 104557984 
1663.866 98592832 93285816 88623480 84537872 80927176 77681304 74703352 
1667.241 71928320 69334376 66947556 64830868 63059896 61694156 60755616 
1670.616 60226108 60057716 60195508 60587244 61191272 61982904 62952676 
1673.991 64109148 65476620 67086704 68962744 71103464 73490296 76097696 
1677.367 78909832 81927352 85162704 88629776 92319448 96197800 100212208 
1680.742 104298904 108420216 112574992 116798480 121152520 125692952 
1683.635 130426376 135254624 139994736 144435760 148399424 151763520 
1686.528 154438000 156357552 157456272 157692976 157066032 155610032 
1689.421 153392672 150499904 147041712 143149312 138969664 134658224 
1692.314 130321920 125983224 121561408 116881264 111743384 106049952 
1695.207 99939856 93822736 88233192 83552840 79872944 77001496 74614696 
1698.583 72367896 70021544 67529840 65064324 62923184 61327176 60287700 
1701.958 59625780 59100604 58483632 57612380 56384912 54749448 52707296 
1705.333 50309992 47654060 44856188 42035304 39296172 36710912 34322284 
1708.708 32139882 30143806 28298864 26572456 24950332 23441798 22071990 
1712.083 20862376 19816736 18910878 18100924 17337272 16589278 15854394 
1715.459 15154373 14516904 13955193 13454627 12984577 12520253 12064158 
1718.834 11648633 11314744 11087728 10962524 10906764 10874182 10826858 
1722.209 10745439 10638907 10534912 10465326 10445504 10466548 10500084 
1725.584 10516038 10498556 10452360 10397853 10357573 10342846 10346748 
1728.960 10349157 10329646 10281533 10216261 10157308 10123323 10116608 
1732.335 10114098 10077370 9969137 9782810 9554899 9350671 9223190 9185082 
1736.192 9211616 9258864 9287196 9271355 9209043 9117370 9024091 8950518 
1740.050 8900867 8861908 8815242 8749311 8666928 8581451 8507716 8451291 
1743.907 8404738 8350420 8271693 8162896 8032929 7901415 7787077 7698738 
1747.765 7628930 7559099 7468547 7347482 7202498 7054363 6925973 6831077 
1751.622 6768610 6726274 6691009 6657530 6629807 6617123 6625063 6650532 
1755.479 6679972 6695619 6685861 6653156 6615037 6593507 6605113 6650196 
1759.337 6713891 6771032 6799909 6792067 6756999 6717592 6697537 6709516 
1763.194 6749225 6801457 6849219 6884565 6909577 6933514 6965836 7009003 
1767.052 7056989 7098380 7124247 7134352 7137687 7147084 7169586 7200915 
1770.909 7224092 7218332 7171304 7088883 6995836 6922573 6890355 6900589 
1774.767 6938497 6981291 7011797 7024593 7027052 7033012 7054026 7091274 
1778.624 7134521 7167699 7177906 7164432 7139607 7123271 7130277 7163826 
1782.481 7212874 7259333 7286356 7288310 7272844 7256739 7256469 7279044 
1786.339 7319883 7367668 7411583 7448019 7482301 7524170 7580205 7648926 
1790.196 7717389 7767242 7783839 7764780 7723528 7682111 7661101 7667576 
1794.054 7694724 7727811 7754053 7769705 7780567 7797703 7829752 7877087 
1797.911 7930603 7975925 8000662 8002283 7988749 7975789 7976026 7994487 
1801.769 8025098 8056422 8078633 8090211 8098042 8114044 8146893 8197639 
1805.626 8257881 8315091 8359473 8388794 8409299 8432508 8467610 8516705 
1809.483 8573070 8625658 8666353 8694985 8720170 8753639 8803881 8870802 
1813.341 8945816 9017088 9076124 9123460 9168838 9226033 9305104 9407382 
1817.198 9522757 9636977 9736351 9815819 9879811 9938150 9998905 10063331 
1821.056 10124103 10169925 10191566 10186241 10158868 10119796 10079065 
1824.431 10041662 10007042 9971815 9934590 9898250 9869235 9852626 9847983 
1828.288 9846864 9836425 9804838 9749871 9681358 9618819 9580540 9574443 
1832.146 9595207 9627593 9654423 9664824 9658997 9647275 9644057 9659098 
1836.003 9692166 9733334 9769763 9792366 9802397 9810633 9832053 9877302 
1839.861 9946659 10029930 10111012 10176200 10217652 10237361 10243027 
1843.236 10244723 10248658 10255987 10265316 10276818 10294697 10325676 
1846.611 10374030 10438410 10509826 10576297 10626818 10658228 10676701 
1849.986 10695718 10728661 10781951 10852065 10928170 10998443 11056050 
1853.362 11103160 11148609 11202122 11267712 11340217 11407427 11457060 
1856.737 11483357 11490026 11488562 11491523 11505812 11529119 11552087 
1860.112 11564098 11561717 11550011 11541607 11549161 11578322 11624809 
1863.487 11677087 11721916 11752179 11769984 11785134 11808115 11843049 
1866.863 11884660 11920009 11936936 11931452 11912108 11897737 11907851 
1870.238 11951649 12024437 12110219 12191351 12254738 12297446 12325363 
1873.613 12347760 12370771 12393272 12408545 12408886 12391703 12363099 
1876.988 12335248 12320250 12324614 12344930 12371759 12393783 12406193 
1880.364 12412603 12423138 12448335 12491812 12548184 12605997 12653446 
1883.739 12686026 12708918 12734917 12777262 12841487 12922277 13005641 
1887.114 13076491 13124709 13151176 13165657 13182906 13213646 13261333 
1890.489 13321222 13386518 13452884 13522234 13599492 13689039 13789447 
1893.865 13892787 13986707 14061651 14116243 14159236 14205350 14267663 
1897.240 14351252 14451403 14556339 14653590 14737699 14812020 14886902 
1900.615 14972771 15073922 15186215 15299703 15404639 15495967 15577045 
1903.990 15655186 15736569 15820133 15896976 15953586 15979744 15974004 
1907.365 15945576 15910551 15884465 15875082 15880374 15890410 15895842 
1910.741 15893780 15891304 15900996 15934337 15995249 16077796 16169438 
1914.116 16256353 16331071 16394448 16453704 16516134 16584976 16656790 
1917.491 16724931 16784680 16838582 16895418 16966044 17055666 17159270 
1920.866 17263138 17349756 17407450 17435838 17447564 17461464 17494682 
1924.242 17553020 17629582 17709854 17780680 17837984 17888288 17944950 
1927.617 18018994 18112912 18217978 18319022 18401944 18462684 18508184 
1930.992 18553552 18612136 18689438 18779420 18869696 18947358 19007586 
1934.367 19055566 19102688 19158574 19224580 19293194 19352190 19392862 
1937.743 19416458 19434408 19462234 19511652 19582078 19659416 19722518 
1941.118 19753864 19747968 19715168 19674982 19646798 19640348 19650888 
1944.493 19664790 19670338 19665032 19658480 19667390 19704732 19772484 
1947.868 19859430 19946530 20015296 20058842 20082612 20102148 20131822 
1951.244 20177776 20233836 20287682 20327714 20350700 20363896 20380388 
1954.619 20409804 20452590 20497258 20528418 20535574 20520358 20498126 
1957.994 20489548 20511778 20567082 20642790 20717258 20773076 20807554 
1961.369 20832132 20866132 20925722 21013384 21117380 21218372 21299656 
1964.745 21357254 21401386 21449600 21514596 21597990 21686104 21759742 
1968.120 21804578 21819700 21817714 21817678 21833148 21862730 21891826 
1971.495 21900330 21876006 21821372 21755108 21702822 21684606 21705260 
1974.870 21754202 21814578 21875762 21940232 22023080 22139276 22291184 
1978.246 22460274 22614318 22717162 22748200 22709900 22626816 22533382 
1981.621 22457344 22411882 22392274 22383552 22373156 22358296 22348702 
1984.996 22359692 22401694 22473220 22560952 22647550 22719920 22777076 
1988.371 22828724 22889006 22966584 23057316 23146284 23214054 23249182 
1991.747 23253446 23242122 23234258 23243940 23272394 23308334 23335462 
1995.122 23343646 23333924 23318228 23312702 23325990 23354938 23385638 
1998.497 23400638 23389134 23355146 23314486 23288372 23290398 23319834 
2001.872 23361196 23395150 23406654 23395254 23374904 23367000 23387700 
2005.248 23439316 23508670 23573662 23617114 23631736 23625614 23614314 
2008.623 23610640 23617882 23628168 23628972 23613158 23583772 23553968 
2011.998 23538158 23544768 23568974 23595526 23607736 23596610 23567750 
2015.373 23538752 23530322 23553512 23605322 23667880 23720718 23749062 
2018.749 23755294 23753368 23765442 23804782 23872442 23954856 24034658 
2022.124 24097698 24142426 24179068 24221036 24277376 24344446 24408406 
2025.499 24452186 24465858 24452886 24427370 24407776 24406374 24423268 
2028.874 24447244 24462770 24460002 24440198 24415136 24399644 24402764 
2032.250 24424074 24454324 24483524 24507188 24530046 24563248 24616474 
2035.625 24688858 24768058 24833696 24869272 24867658 24835836 24790508 
2039.000 24748872 24720108 24700434 24676478 24635692 24572574 24495058 
2042.375 24419658 24363440 24335298 24331410 24337892 24338034 24323700 
2045.750 24297908 24275098 24272680 24302428 24364070 24447312 24534076 
2049.126 24606902 24655962 24677706 24673638 24647616 24603990 24547400 
2052.501 24486118 24432696 24401746 24405288 24447768 24521808 24610970 
2055.876 24695206 24759674 24800508 24825030 24846080 24875974 24918958 
2059.251 24969210 25014836 25044530 25054182 25048532 25038914 25035440 
2062.627 25043372 25058746 25072508 25075104 25063274 25041442 25020348 
2066.002 25009782 25014416 25030842 25050638 25065100 25070892 25071454 
2069.377 25074928 25089182 25116354 25151286 25184256 25206272 25213400 
2072.752 25208624 25199600 25194402 25196054 25201110 25201988 25191418 
2076.128 25167120 25133028 25097536 25068504 25049900 25039442 25030666 
2079.503 25017012 24995428 24968158 24940468 24916782 24897624 24878992 
2082.878 24854852 24821136 24778932 24733928 24695278 24669708 24658558 
2086.253 24656172 24654032 24644284 24623594 24595050 24564614 24538390 
2089.629 24518196 24501298 24481772 24455762 24423548 24391056 24366594 
2093.004 24357062 24363336 24381174 24401746 24417028 24423900 24424284 
2096.379 24424038 24428140 24437744 24449066 24456286 24454464 24442860 
2099.754 24425300 24407390 24393300 24382366 24369820 24349456 24318058 
2103.130 24277936 24235856 24200928 24179346 24170906 24169748 24167016 
2106.505 24156578 24137592 24115386 24097276 24089572 24093110 24103302 
2109.880 24112898 24116122 24112478 24106876 24105508 24113038 24128030 
2113.255 24144282 24152724 24146594 24125614 24094930 24063830 24039422 
2116.631 24023978 24013998 24002618 23983882 23956398 23923662 23892468 
2120.006 23868628 23852876 23841814 23828408 23807932 23779686 23748364 
2123.381 23720928 23703222 23695556 23693002 23687334 23671974 23644858 
2126.756 23610956 23577756 23552952 23539626 23535394 23534030 23529062 
2130.132 23517870 23502060 23486634 23476422 23473380 23476772 23483802 
2133.507 23493946 23510140 23538576 23584926 23650594 23730060 23812062 
2136.882 23883680 23937036 23970472 23990046 24004018 24018794 24035148 
2140.257 24048666 24053288 24046846 24033294 24021702 24022016 24039036 
2143.633 24069120 24103092 24128906 24140114 24139624 24137768 24147016 
2147.008 24174618 24218234 24265534 24300888 24312102 24295176 24257438 
2150.383 24210456 24163618 24120570 24076228 24022646 23953140 23868698 
2153.758 23775312 23683906 23602558 23534832 23481144 23444282 23434490 
2157.134 23473066 23584436 23784656 24070520 24414084 24770302 25089392 
2160.509 25337020 25500134 25587320 25619338 25617792 25598322 25567322 
2163.884 25526912 25480844 25437172 25406958 25399652 25414722 25441986 
2167.259 25462538 25459026 25420766 25350474 25260560 25169122 25089778 
2170.635 25027330 24976510 24928574 24876220 24819416 24764796 24722808 
2174.010 24700678 24699274 24712042 24728246 24739084 24739190 24728562 
2177.385 24708534 24679142 24638952 24585546 24520438 24451696 24392494 
2180.760 24358008 24357726 24389900 24440688 24490640 24522052 24525768 
2184.135 24506100 24474864 24446330 24428456 24420604 24414680 24402236 
2187.511 24380088 24352680 24330988 24325662 24340344 24371184 24406444 
2190.886 24433186 24445630 24445000 24439812 24438900 24446648 24459022 
2194.261 24465858 24456392 24424670 24373568 24313256 24254706 24205410 
2197.636 24165020 24127050 24083232 24029370 23967426 23906506 23857216 
2201.012 23827218 23817452 23823822 23839958 23861872 23889772 23927092 
2204.387 23977126 24039596 24108240 24173918 24229550 24272048 24306388 
2207.762 24340380 24381420 24431610 24485592 24532920 24563388 24572434 
2211.137 24563002 24545472 24530816 24527590 24536916 24555078 24574924 
2214.513 24591720 24604588 24616088 24629380 24644600 24656980 24659574 
2217.888 24646842 24617702 24577342 24535444 24501648 24480720 24471640 
2221.263 24467818 24461650 24448820 24429926 24409598 24392670 24381700 
2224.638 24373462 24361408 24339048 24303724 24258490 24210422 24167682 
2228.014 24135106 24112442 24094546 24074652 24049016 24017780 23984408 
2231.389 23954296 23930592 23912668 23897298 23880390 23859282 23834324 
2234.764 23808246 23783640 23761698 23740490 23716728 23688454 23656158 
2238.139 23623340 23594758 23574186 23562154 23555788 23551134 23544804 
2241.515 23537736 23533470 23536266 23548792 23569254 23591432 23607736 
2244.890 23612110 23602802 23584052 23562398 23543964 23531544 23523290 
2248.265 23514232 23499960 23478626 23452186 23425712 23404590 23390708 
2251.640 23384030 23381896 23381442 23382770 23387456 23398436 23417074 
2255.016 23441484 23466244 23484326 23490692 23483452 23465580 23441728 
2258.391 23417214 23394554 23373294 23350426 23323714 23292076 23257154 
2261.766 23221324 23186616 23152540 23117278 23078804 23036876 22994044 
2265.141 22955128 22924840 22904930 22893230 22883906 22870318 22848280 
2268.517 22818142 22784234 22753262 22730884 22718978 22715312 22715068 
2271.892 22714298 22710598 22704942 22700194 22697994 22698204 22697716 
2275.267 22692758 22680924 22662666 22641616 22622452 22609258 22602940 
2278.642 22601230 22600008 22594704 22583708 22567514 22548458 22529402 
2282.018 22511362 22494402 22477164 22458844 22439968 22421372 22404068 
2285.393 22387040 22367470 22341412 22304786 22257038 22200194 22139242 
2288.768 22079972 22026844 21981358 21941730 21904788 21867468 21828654 
2292.143 21788936 21749708 21712226 21675862 21638736 21599000 21555892 
2295.519 21511150 21468048 21430906 21401666 21380330 21364250 21349876 
2298.894 21334492 21317160 21299552 21284588 21274218 21269068 21267712 
2302.269 21267572 21266806 21265344 21264580 21267432 21275854 21290504 
2305.644 21310062 21332126 21354468 21375562 21395052 21413154 21429756 
2309.020 21443750 21453916 21459068 21459520 21457362 21455830 21458094 
2312.395 21465752 21478388 21493462 21508364 21520934 21531170 21540572 
2315.770 21551260 21564178 21578630 21592210 21602380 21606976 21606208 
2319.145 21601892 21597154 21594404 21594648 21596598 21597470 21593498 
2322.521 21580858 21555996 21515572 21457012 21378868 21282014 21170116 
2325.896 21050388 20932016 20825040 20736790 20670656 20624686 20593660 
2329.271 20570624 20549678 20528834 20508860 20492292 20481072 20475688 
2332.646 20473604 20472388 20469402 20464192 20458286 20453806 20452244 
2336.021 20452972 20453668 20450854 20442172 20427064 20406748 20383724 
2339.397 20359866 20336116 20311776 20286154 20258762 20230990 20204642 
2342.772 20181142 20160456 20140152 20116968 20088304 20054678 20020014 
2346.147 19992118 19978622 19985700 20015574 20066372 20132620 20207176 
2349.522 20282856 20353374 20413866 20461378 20494618 20514140 20521782 
2352.898 20520914 20515598 20509242 20503684 20498648 20491666 20478884 
2356.273 20457106 20425258 20384382 20337748 20289000 20241022 20194542 
2359.648 20148620 20101734 20053012 20002664 19952740 19904558 19859014 
2363.023 19815798 19773456 19730458 19686840 19644198 19604990 19571854 
2366.399 19545582 19525548 19509538 19495294 19480912 19466426 19452530 
2369.774 19439986 19428828 19417984 19405546 19390300 19372216 19352710 
2373.149 19334280 19319210 19308714 19302478 19299536 19298182 19297976 
2376.524 19299048 19301924 19307328 19314950 19323540 19331716 19338230 
2379.900 19342558 19345296 19347722 19350768 19354822 19359744 19364940 
2383.275 19370516 19377446 19387320 19401422 19420236 19442688 19466632 
2386.650 19489262 19508670 19524612 19538338 19551404 19565510 19581176 
2390.025 19597400 19612686 19626066 19637438 19648358 19660560 19675156 
2393.401 19692146 19709968 19725916 19738434 19746790 19751922 19755804 
2396.776 19760036 19765202 19770336 19773838 19774010 19770682 19764476 
2400.151 19756810 19749286 19742214 19735002 19726748 19717178 19707364 
2403.526 19699426 19696304 19699878 19710174 19725708 19743496 19760626 
2406.902 19775224 19786876 19796274 19803764 19809626 19813580 19814828 
2410.277 19813822 19812124 19812262 19817324 19828528 19845660 19866192 
2413.652 19887180 19905460 19920028 19931198 19940702 19950382 19960928 
2417.027 19971962 19982230 19990764 19997288 20002874 20008806 20015678 
2420.403 20023484 20030354 20034482 20034760 20031498 20026502 20022130 
2423.778 20020500 20021888 20025218 20028446 20029174 20026224 20019876 
2427.153 20010992 20000584 19989550 19977894 19965994 19954684 19945838 
2430.528 19941952 19944624 19954060 19968110 19983062 19994616 19999958 
2433.904 19998398 19991564 19982680 19974946 19970088 19968214 19967694 
2437.279 19966376 19962836 19956070 19945768 19931788 19914234 19892312 
2440.654 19866542 19838134 19809904 19785142 19766868 19756604 19753796 
2444.029 19756082 19760348 19763816 19765514 19765306 19764232 19762984 
2447.405 19761422 19758892 19754730 19749044 19742906 19738120 19736354 
2450.780 19737566 19740652 19742664 19741034 19734446 19723384 19710314 
2454.155 19697900 19688712 19683476 19681398 19680738 19680392 19679872 
2457.530 19679490 19680530 19683234 19687292 19691832 19695890 19699254 
2460.906 19703102 19709030 19718392 19731742 19747276 19763296 19777582 
2464.281 19789546 19800228 19811776 19826550 19845210 19866332 19886830 
2467.656 19903344 19913576 19917392 19916662 19915170 19915622 19920028 
2471.031 19928492 19939490 19951146 19962144 19971198 19977372 19980114 
2474.406 19978482 19971684 19960130 19945596 19931406 19921518 19918848 
2477.782 19924502 19936888 19952706 19967902 19979628 19986914 19990868 
2481.157 19993784 19997566 20003116 20010264 20017654 20024732 20031430 
2484.532 20038854 20048396 20060786 20076158 20093856 20112422 20131372 
2487.907 20150598 20171008 20193084 20216826 20241160 20264212 20283792 
2491.283 20299172 20310144 20317402 20322054 20324624 20325386 20324068 
2494.658 20320492 20315630 20310596 20307124 20306118 20307228 20308790 
2498.033 20308928 20306324 20301152 20295076 20290250 20288618 20290736 
2501.408 20295216 20300216 20303792 20305734 20306986 20309590 20315040 
2504.784 20323720 20333790 20342436 20347020 20345908 20339796 20330872 
2508.159 20321742 20314416 20309554 20306360 20303478 20300006 20295908 
2511.534 20291430 20287300 20283306 20278480 20271538 20261712 20249040 
2514.909 20234808 20220886 20208426 20198012 20188536 20178296 20166356 
2518.285 20152752 20138902 20126720 20118010 20112838 20109682 20106662 
2521.660 20101872 20095140 20087470 20081084 20077580 20077232 20078552 
2525.035 20078656 20074700 20064984 20049542 20030076 20008496 19986360 
2528.410 19963982 19940738 19916004 19889538 19861718 19833800 19806678 
2531.786 19780356 19754314 19727440 19699322 19670234 19641840 19615494 
2535.161 19592372 19572096 19552826 19532722 19510992 19487738 19465214 
2538.536 19445842 19431116 19420894 19412926 19403846 19391166 19373844 
2541.911 19353264 19332304 19313772 19299916 19290736 19285054 19281072 
2545.287 19277330 19273486 19269710 19265902 19261432 19254852 19244774 
2548.662 19230850 19214674 19199646 19190018 19189360 19199056 19217898 
2552.037 19242798 19269920 19296208 19320146 19342074 19363068 19383786 
2555.412 19404470 19423874 19441580 19456966 19470792 19484828 19500630 
2558.788 19519552 19541180 19564712 19588838 19612236 19634526 19655534 
2562.163 19675538 19694364 19711596 19727302 19742004 19756880 19773942 
2565.538 19794750 19819580 19847638 19876668 19904176 19928976 19951458 
2568.913 19973104 19996628 20023658 20054226 20086464 20117418 20144282 
2572.289 20165420 20181490 20193916 20204954 20216340 20228178 20239946 
2575.664 20250568 20259490 20266920 20273758 20280702 20288376 20296186 
2579.039 20303096 20308164 20310944 20311500 20310318 20307574 20302784 
2582.414 20295076 20283446 20267614 20248624 20228628 20210336 20196346 
2585.790 20187946 20185342 20187702 20194366 20204608 20218214 20235502 
2589.165 20256122 20279106 20302888 20325560 20346048 20363860 20380112 
2592.540 20396086 20412858 20430710 20449188 20466866 20482808 20496738 
2595.915 20508790 20520010 20530918 20541478 20550928 20558154 20562496 
2599.291 20564198 20563850 20562670 20561524 20560376 20558500 20554958 
2602.666 20549016 20540784 20531370 20522164 20514244 20508132 20503198 
2606.041 20498368 20492568 20485484 20477008 20467838 20458668 20449638 
2609.416 20440852 20432136 20423592 20415810 20409664 20405810 20404490 
2612.792 20404838 20405288 20404558 20401678 20396538 20390078 20383724 
2616.167 20378584 20375390 20374000 20373964 20374556 20375390 20376118 
2619.542 20376500 20375736 20372714 20366672 20357054 20344068 20329172 
2622.917 20314276 20300840 20289764 20280668 20272580 20264072 20254630 
2626.292 20244250 20234218 20225714 20219534 20215368 20212348 20209050 
2629.668 20204572 20198672 20192078 20186106 20181768 20179580 20179304 
2633.043 20180204 20182150 20184960 20189404 20196380 20206934 20221268 
2636.418 20239250 20260150 20283168 20307470 20332784 20358548 20384486 
2639.793 20409872 20434114 20456550 20477216 20496494 20514938 20533316 
2643.169 20552040 20570764 20589178 20606862 20623748 20640356 20657278 
2646.544 20675104 20693940 20713262 20732132 20749684 20765324 20779366 
2649.919 20792260 20804636 20817184 20829524 20841102 20850974 20858760 
2653.294 20864462 20868216 20870720 20872110 20872492 20871450 20868842 
2656.670 20864636 20859596 20854658 20850834 20849236 20850070 20853510 
2660.045 20859142 20867000 20877116 20889806 20905208 20923670 20944708 
2663.420 20968038 20992660 21018218 21044128 21069902 21095258 21119606 
2666.795 21142320 21163020 21181700 21198714 21214614 21230028 21245302 
2670.171 21260022 21273418 21284832 21293566 21300142 21305188 21309852 
2673.546 21315038 21321546 21329238 21338146 21348240 21360002 21374030 
2676.921 21391606 21412874 21437658 21465160 21493672 21522014 21549170 
2680.296 21574868 21599592 21624248 21649498 21676072 21704284 21734346 
2683.672 21766500 21800816 21836910 21873950 21910922 21946504 21979616 
2687.047 22010148 22039324 22068642 22100366 22136104 22176550 22221570 
2690.422 22270116 22321286 22374378 22429258 22486550 22546818 22610584 
2693.797 22678376 22750436 22827048 22908738 22996314 23090230 23190354 
2697.173 23295922 23405256 23516470 23628342 23739648 23850390 23960388 
2700.548 24069084 24175494 24277796 24373708 24461474 24539686 24608094 
2703.923 24666764 24716180 24756482 24787352 24808330 24819416 24821172 
2707.298 24815312 24803630 24788228 24770690 24751854 24731964 24711024 
2710.674 24689700 24668482 24648598 24630642 24615248 24602588 24592034 
2714.049 24583620 24577484 24574538 24575836 24582216 24593894 24610478 
2717.424 24631168 24654840 24680932 24709586 24741084 24775810 24813910 
2720.799 24854536 24896604 24939206 24981284 25022488 25062818 25101856 
2724.175 25139068 25172914 25201882 25224566 25240262 25249886 25255046 
2727.550 25257926 25260876 25265548 25272220 25281000 25290588 25300070 
2730.925 25308534 25315104 25319634 25322092 25322902 25322690 25322444 
2734.300 25322936 25325150 25329188 25335052 25342148 25349806 25357744 
2737.676 25366034 25375448 25386690 25400530 25417358 25437172 25459446 
2741.051 25484078 25510958 25540932 25574738 25613328 25657230 25706478 
2744.426 25760512 25818388 25879014 25941374 26004338 26067594 26130472 
2747.801 26192796 26254916 26317330 26380946 26446794 26515890 26588802 
2751.177 26666060 26747770 26834148 26925340 27021910 27123368 27230000 
2754.552 27340718 27454110 27568802 27683454 27797888 27912108 28026958 
2757.927 28143426 28261804 28381980 28503074 28623954 28743734 28862026 
2761.302 28979038 29095092 29210714 29326120 29440778 29554506 29666738 
2764.677 29777120 29885224 29991080 30093840 30192856 30287062 30375678 
2768.053 30457876 30533976 30604580 30670502 30732626 30791558 30848044 
2771.428 30902334 30955098 31007016 31058868 31110904 31163374 31215780 
2774.803 31267904 31319254 31370610 31422968 31478256 31538144 31603992 
2778.178 31676196 31754646 31838820 31928394 32023012 32123078 32229018 
2781.554 32340874 32458614 32581602 32709588 32841940 32979046 33121276 
2784.929 33268880 33421762 33579100 33739216 33900464 34060844 34219092 
2788.304 34374568 34526728 34675456 34820504 34961868 35099072 35232512 
2791.679 35362540 35490164 35615916 35740160 35863108 35984580 36104536 
2795.055 36223012 36341196 36459740 36579468 36700740 36822304 36942564 
2798.430 37059684 37172320 37279968 37383380 37483644 37582408 37680292 
2801.805 37777332 37872728 37965292 38053928 38137956 38217224 38291912 
2805.180 38362556 38429448 38492912 38552976 38609832 38663400 38713564 
2808.556 38759896 38801740 38838480 38869712 38895620 38917328 38936104 
2811.931 38954188 38972964 38993952 39017800 39044880 39075584 39109772 
2815.306 39147956 39189944 39235236 39282860 39330956 39377972 39422232 
2818.681 39462948 39499780 39533020 39562812 39589168 39611452 39629164 
2822.057 39641652 39648912 39651492 39650512 39647168 39642416 39636932 
2825.432 39631560 39626844 39623792 39623868 39628584 39639220 39656648 
2828.807 39681116 39712120 39749664 39794108 39846472 39908288 39981416 
2832.182 40067416 40167136 40280908 40408748 40550376 40706716 40878764 
2835.558 41068220 41276992 41506392 41757364 42029756 42323212 42637008 
2838.933 42970784 43324876 43700112 44097596 44518684 44964432 45435360 
2842.308 45931552 46452240 46996332 47562072 48146940 48746984 49356472 
2845.683 49967556 50568744 51145716 51681620 52156864 52551480 52846708 
2849.059 53026068 53078032 52997392 52785600 52450520 52006248 51471400 
2852.434 50866132 50211264 49526600 48827804 48127616 47435100 46754936 
2855.809 46090064 45441176 44808172 44190944 43589132 43002572 42431088 
2859.184 41875204 41335552 40814008 40313376 39836960 39389000 38972924 
2862.560 38591400 38245776 37936040 37660924 37418808 37207660 37026124 
2865.935 36872872 36746716 36647096 36573016 36523780 36497940 36494192 
2869.310 36510268 36543420 36589992 36646120 36707124 36768856 36827784 
2872.685 36880876 36926544 36964752 36996176 37022948 37047596 37073252 
2876.061 37102700 37137996 37180552 37230292 37286828 37348932 37415524 
2879.436 37485808 37559216 37635448 37713976 37793960 37874320 37953684 
2882.811 38030856 38105440 38177320 38246680 38313844 38378916 38441936 
2886.186 38502396 38560548 38616604 38671544 38726604 38782792 38840436 
2889.562 38899284 38958324 39016676 39073628 39129172 39183996 39238648 
2892.937 39293196 39346988 39398324 39444984 39484900 39517048 39541332 
2896.312 39559620 39574032 39587928 39604228 39625284 39652616 39687176 
2899.687 39728892 39777400 39831840 39891148 39954788 40022144 40093432 
2903.063 40169604 40252044 40342788 40443808 40558088 40688448 40838432 
2906.438 41012572 41215384 41452768 41730660 42054868 42431600 42865632 
2909.813 43360828 43918916 44538216 45212960 45932216 46681000 47439832 
2913.188 48186408 48899224 49557532 50143908 50645996 51055484 51368940 
2916.563 51586980 51713604 51755744 51722040 51623216 51469760 51271800 
2919.939 51038600 50777072 50491992 50186528 49862104 49518908 49156320 
2923.314 48772972 48366444 47934356 47474240 46984776 46466068 45920396 
2926.689 45351788 44765596 44167396 43562908 42957616 42356856 41766556 
2930.064 41193812 40646492 40133044 39661148 39236724 38863516 38542512 
2933.440 38272444 38050312 37872476 37734464 37631368 37558308 37509796 
2936.815 37480100 37464100 37456768 37453916 37452688 37451024 37447632 
2940.190 37442176 37434412 37424768 37413644 37401908 37390208 37379808 
2943.565 37371900 37367964 37369984 37380204 37401004 37434592 37483208 
2946.941 37548340 37631584 37734104 37856820 38000368 38163896 38344892 
2950.316 38537916 38734464 38923928 39093280 39230052 39323376 39364728 
2953.691 39349492 39276080 39146104 38962884 38731348 38457468 38147872 
2957.066 37809900 37451748 37081296 36706548 36334748 35971908 35622824 
2960.442 35291156 34978996 34687196 34415420 34162240 33925576 33703016 
2963.817 33492622 33293136 33103824 32924392 32754712 32593924 32440834 
2967.192 32293868 32151588 32013274 31878896 31749300 31625230 31507682 
2970.567 31396858 31292476 31194310 31102362 31016944 30939052 30869818 
2973.943 30810198 30761220 30723344 30697206 30683692 30683942 30698984 
2977.318 30729532 30775304 30835204 30907350 30989578 31080150 31178220 
2980.693 31283610 31396538 31517052 31644582 31777464 31913522 32049946 
2984.068 32184090 32313318 32435476 32548104 32649252 32736812 32808956 
2987.444 32864776 32904196 32927680 32936792 32932434 32915346 32885182 
2990.819 32840938 32781762 32707050 32617748 32515962 32405526 32291080 
2994.194 32177598 32069888 31971332 31884138 31809050 31745594 31692554 
2997.569 31649072 31614612 31589526 31575166 31572956 31584430 31609870 
3000.945 31648752 31699472 31759926 31828054 31902182 31981532 32065104 
3004.320 32152478 32242510 32333914 32425266 32515854 32605636 32695622 
3007.695 32787442 32882750 32982442 33086340 33193302 33301148 33407986 
3011.070 33512056 33612536 33709600 33803536 33895416 33986168 34076472 
3014.446 34167044 34258636 34351584 34446412 34543016 34641404 34741284 
3017.821 34842264 34944344 35047632 35152528 35259140 35367644 35478120 
3021.196 35590308 35703972 35819136 35935484 36052872 36170900 36288964 
3024.571 36406016 36521292 36634368 36745348 36854872 36963636 37072060 
3027.947 37179864 37286176 37389956 37490180 37586960 37681412 37775668 
3031.322 37872080 37972632 38078200 38188176 38301104 38414824 38527524 
3034.697 38639056 38749752 38861668 38977092 39098352 39227112 39364116 
3038.072 39509284 39661804 39820836 39985376 40154816 40329188 40508292 
3041.448 40691872 40879020 41068072 41256152 41439392 41613516 41774180 
3044.823 41917568 42041328 42144640 42228440 42295272 42348672 42392800 
3048.198 42431928 42469560 42508876 42551632 42598812 42650936 42707816 
3051.573 42769200 42835096 42905604 42980992 43061000 43145268 43232556 
3054.948 43321000 43408872 43494376 43576132 43654164 43728692 43800736 
3058.324 43871368 43941352 44011196 44081128 44151180 44221320 44291688 
3061.699 44362620 44434000 44505468 44576396 44646344 44714728 44781540 
3065.074 44846928 44910748 44973216 45033636 45091344 45145052 45194284 
3068.449 45239068 45280328 45319312 45357820 45396844 45437164 45478628 
3071.825 45520976 45564068 45608524 45655596 45707384 45765628 45831864 
3075.200 45906068 45987280 46073520 46162024 46250180 46336136 46418504 
3078.575 46497116 46572652 46645988 46718444 46790992 46864140 46937784 
3081.950 47011068 47082072 47148436 47207316 47256076 47292648 47316000 
3085.326 47326680 47326456 47318404 47306540 47294940 47287072 47285776 
3088.701 47292132 47306728 47328748 47357308 47391788 47431776 47477528 
3092.076 47529760 47588836 47655276 47728940 47809128 47894844 47985012 
3095.451 48078612 48174816 48272860 48371816 48470380 48567308 48660584 
3098.827 48748764 48830104 48903968 48970168 49029624 49083412 49133648 
3102.202 49182440 49232092 49284756 49342476 49406960 49479400 49560432 
3105.577 49650020 49747764 49852776 49964064 50081360 50205088 50336668 
3108.952 50479152 50636612 50814172 51017960 51254352 51530156 51852956 
3112.328 52229804 52667980 53174868 53756176 54416864 55159064 55981868 
3115.703 56879804 57842624 58854212 59889952 60919060 61903036 62795208 
3119.078 63547844 64113028 64446664 64517080 64305864 63811920 63049740 
3122.453 62050020 60854980 59510776 58067536 56572872 55067200 53586824 
3125.829 52160564 50810184 49551960 48395592 47344636 46397192 45547252 
3129.204 44786240 44104308 43492400 42942876 42448992 42005376 41607208 
3132.579 41249520 40927804 40637836 40375620 40137912 39922020 39725116 
3135.954 39544560 39377464 39220516 39070984 38926064 38783480 38641884 
3139.330 38500552 38359372 38218964 38080372 37945044 37813732 37687340 
3142.705 37565284 37446800 37329900 37213108 37095084 36975248 36853612 
3146.080 36730600 36606608 36481756 36355828 36228632 36100680 35972952 
3149.455 35846808 35723828 35604624 35488724 35374080 35257956 35137620 
3152.831 35011212 34878380 34740136 34598520 34455880 34314000 34174000 
3156.206 34036152 33900396 33766576 33634804 33505112 33377644 33252138 
3159.581 33128354 33005644 32883790 32762502 32642216 32522816 32404382 
3162.956 32286302 32168072 32048802 31928252 31806766 31685140 31564582 
3166.332 31445980 31330258 31217310 31106918 30998476 30891304 30785122 
3169.707 30679248 30573222 30466656 30359190 30250826 30142244 30034574 
3173.082 29929096 29827052 29728970 29634210 29541880 29450140 29357954 
3176.457 29264622 29170210 29075818 28982758 28892126 28804380 28719484 
3179.833 28636906 28555760 28475512 28395596 28315484 28235210 28154634 
3183.208 28074212 27993912 27914298 27835370 27757586 27680560 27603932 
3186.583 27527426 27450438 27372794 27294776 27216594 27138428 27060346 
3189.958 26982242 26903414 26823470 26742096 26659540 26576508 26493632 
3193.333 26411580 26330602 26250164 26169568 26087756 26003528 25916858 
3196.709 25827672 25736958 25646262 25556780 25469882 25386198 25305654 
3200.084 25227656 25151322 25075702 25000516 24926046 24853236 24783178 
3203.459 24717022 24655120 24596838 24540914 24485312 24428174 24367996 
3206.834 24304392 24237608 24168628 24098820 24029756 23963014 23899504 
3210.210 23840134 23785110 23734086 23686004 23639572 23593252 23546166 
3213.585 23498212 23449948 23402878 23358574 23317842 23280294 23244918 
3216.960 23209614 23172532 23132446 23089288 23044074 22998166 22952890 
3220.335 22908948 22866232 22824046 22781408 22737866 22693212 22647898 
3223.711 22602660 22558092 22514852 22473290 22434038 22397054 22362762 
3227.086 22331330 22302136 22274998 22249330 22224882 22201972 22181154 
3230.461 22163126 22147924 22134780 22121704 22106050 22084852 22056544 
3233.836 22020710 21978952 21934028 21889630 21848896 21813916 21785346 
3237.212 21762702 21744484 21728982 21714700 21701012 21687324 21673774 
3240.587 21660608 21647862 21635672 21623656 21611468 21598722 21585002 
3243.962 21570028 21553908 21536846 21519088 21501018 21482636 21464010 
3247.337 21444864 21425406 21405668 21386140 21367382 21349804 21333344 
3250.713 21317578 21301744 21285248 21267468 21248434 21228532 21208248 
3254.088 21187930 21167648 21146774 21124894 21101796 21077586 21053310 
3257.463 21029904 21008724 20990710 20975932 20964180 20954686 20946758 
3260.838 20939560 20932536 20925236 20917134 20907884 20897108 20885008 
3264.214 20871658 20857892 20844854 20833348 20824380 20818296 20815584 
3267.589 20816106 20819478 20824762 20830602 20834914 20835436 20830256 
3270.964 20817844 20798240 20772346 20742560 20711072 20680004 20650260 
3274.339 20621976 20594284 20566352 20537796 20508790 20479996 20452244 
3277.715 20425986 20401330 20377508 20353826 20329658 20304764 20279244 
3281.090 20253658 20228318 20203602 20179998 20157886 20138138 20121342 
3284.465 20108188 20098472 20091392 20085562 20079386 20071682 20062346 
3287.840 20052284 20043052 20036010 20031636 20029486 20027716 20024108 
3291.216 20017030 20005754 19990764 19973486 19955690 19938448 19922144 
3294.591 19905944 19888808 19869004 19845452 19818156 19787224 19753932 
3297.966 19719604 19685766 19654008 19625546 19601870 19583744 19572408 
3301.341 19568352 19571610 19581698 19597364 19616258 19635288 19650680 
3304.717 19658378 19655186 19638754 19608596 19566342 19514736 19457554 
3308.092 19398650 19341034 19286578 19236218 19189948 19147320 19108330 
3311.467 19072636 19040230 19011394 18985916 18963660 18944588 18928910 
3314.842 18916310 18907416 18901984 18899768 18900252 18903160 18908144 
3318.218 18915688 18926452 18941126 18960336 18983528 19009836 19037840 
3321.593 19065918 19093304 19119828 19146038 19172044 19198190 19223334 
3324.968 19246228 19264862 19278510 19287064 19292330 19296764 19303242 
3328.343 19314186 19330468 19351566 19375644 19400244 19423250 19442862 
3331.719 19458768 19470756 19479698 19486248 19490960 19494046 19495362 
3335.094 19494428 19490856 19483648 19472110 19455406 19432744 19403916 
3338.469 19368578 19327490 19281384 19231092 19176720 19118476 19055496 
3341.844 18987024 18912366 18831354 18745134 18655852 18565792 18477758 
3345.219 18394098 18316154 18244134 18177792 18115848 18056780 17999066 
3348.595 17940980 17880520 17815856 17745024 17666990 17581932 17491130 
3351.970 17397382 17304306 17215354 17133004 17058494 16991506 16930350 
3355.345 16873612 16819844 16768597 16720317 16675623 16634308 16595958 
3358.720 16558573 16519954 16477793 16430544 16377760 16320268 16260171 
3362.096 16199462 16140964 16086908 16039116 15999133 15967438 15943479 
3365.471 15925778 15911479 15897181 15879447 15854703 15821094 15778074 
3368.846 15726365 15667552 15604041 15538273 15472309 15408174 15347482 
3372.221 15290917 15239266 15192940 15151388 15114129 15080337 15049395 
3375.597 15020616 14993692 14968278 14944203 14921295 14899177 14878123 
3378.972 14857893 14838419 14819562 14800466 14779828 14756003 14727690 
3382.347 14694134 14655920 14614762 14573711 14535644 14503097 14477437 
3385.722 14458734 14445853 14437701 14432871 14430610 14430371 14431707 
3389.098 14433659 14434344 14431535 14423075 14406770 14382042 14348923 
3392.473 14309027 14264307 14217434 14170807 14126101 14085164 14048989 
3395.848 14018086 13992763 13972951 13958204 13947665 13940240 13934458 
3399.223 13928368 13919814 13906676 13887142 13860287 13825978 13785412 
3402.599 13740711 13694407 13648760 13605748 13566125 13529993 13497247 
3405.974 13467819 13441401 13418470 13398615 13381358 13365913 13350606 
3409.349 13334308 13316234 13296588 13275715 13254569 13233253 13212177 
3412.724 13190692 13168048 13143629 13117742 13090935 13064369 13039170 
3416.100 13015918 12994717 12975222 12956788 12938594 12919682 12899510 
3419.475 12877016 12851589 12822956 12791322 12757983 12724715 12693873 
3422.850 12666853 12644372 12625406 12608248 12590613 12571069 12549037 
3426.225 12525436 12501838 12479877 12460440 12443800 12428832 12414307 
3429.601 12398453 12380213 12359418 12336067 12310331 12282755 12254500 
3432.976 12226281 12199222 12174278 12152095 12132196 12113729 12094990 
3436.351 12074446 12050872 12024437 11995824 11966362 11936663 11907204 
3439.726 11877202 11846250 11813665 11779789 11746290 11715074 11688183 
3443.102 11666229 11648429 11632569 11615178 11593058 11564133 11527894 
3446.477 11485331 11439200 11392835 11349502 11312125 11281961 11259415 
3449.852 11243331 11231532 11221094 11208990 11192909 11171285 11144429 
3453.227 11113426 11079638 11045037 11010338 10975640 10940946 10905745 
3456.603 10869969 10834298 10799649 10766666 10735521 10706008 10677346 
3459.978 10649127 10621114 10593849 10568352 10545029 10523744 10503716 
3463.353 10483451 10461320 10436713 10409698 10381598 10353704 10327373 
3466.728 10302705 10279261 10255919 10231425 10204999 10176607 10146386 
3470.104 10114912 10082152 10048071 10012298 9975137 9937269 9900250 9865405 
3473.961 9834358 9807820 9785486 9766136 9748177 9730252 9711344 9690676 
3477.818 9668179 9643684 9616752 9587077 9554391 9518895 9481608 9443884 
3481.676 9407246 9373151 9342275 9314751 9289871 9266650 9243870 9220754 
3485.533 9196690 9171580 9145387 9118520 9091281 9064113 9037081 9010254 
3489.391 8983633 8956606 8929276 8901644 8874082 8846994 8821058 8796780 
3493.248 8773722 8751407 8729297 8706613 8683525 8660810 8639988 8622177 
3497.105 8608488 8598722 8591725 8585879 8579221 8569454 8555768 8537453 
3500.963 8514204 8486599 8455042 8420312 8383929 8347516 8312896 8282196 
3504.820 8256564 8236336 8220836 8208579 8197707 8187003 8175929 8164888 
3508.678 8155063 8148175 8144664 8144901 8147770 8151586 8154522 8155131 
3512.535 8152598 8146859 8138655 8128661 8117690 8106110 8093857 8081097 
3516.393 8067662 8054024 8040996 8030398 8023681 8022567 8027596 8038430 
3520.250 8053384 8069856 8084742 8095477 8100372 8099258 8093890 8086126 
3524.107 8079408 8075595 8076404 8081738 8090582 8101418 8112322 8122146 
3527.965 8129843 8135515 8139634 8143179 8147737 8154219 8163740 8176874 
3531.822 8193148 8211449 8229954 8246804 8260109 8268721 8273043 8274192 
3535.680 8274327 8275543 8279595 8287769 8299217 8313402 8328804 8344509 
3539.537 8359608 8374268 8388726 8402847 8416426 8428250 8436460 8438926 
3543.395 8433454 8418217 8392509 8357041 8313639 8265951 8218371 8175422 
3547.252 8141187 8117690 8104524 8099494 8098042 8094936 8085485 8065974 
3551.109 8035258 7994520 7946497 7895037 7844023 7796252 7753345 7716074 
3554.967 7684337 7657222 7634055 7613519 7593996 7573664 7550906 7524743 
3558.824 7495414 7464367 7433356 7404943 7380812 7362074 7348594 7339394 
3562.682 7332621 7325949 7316783 7301114 7274327 7231909 7169957 7087401 
3566.539 6986779 6875879 6765580 6667388 6590277 6538541 6510994 6501912 
3570.396 6503863 6508976 6510422 6503930 6488156 6463773 6433170 6399274 
3574.254 6365145 6333406 6305434 6282036 6262405 6245194 6228589 6210237 
3578.111 6188760 6163486 6135021 6104710 6074771 6047623 6025414 6010094 
3581.969 6002468 6002770 6010430 6023029 6036703 6046312 6045371 6027430 
3585.826 5987921 5925744 5845103 5755278 5669332 5600788 5559574 5549338 
3589.684 5567226 5606192 5655770 5705219 5746078 5771865 5779084 5768004 
3593.541 5741277 5703540 5660604 5618108 5581020 5552627 5534370 5525142 
3597.398 5521987 5520208 5514470 5500309 5474572 5437362 5392204 5345575 
3601.256 5304183 5275104 5262728 5267994 5288855 5320518 5357114 5392003 
3605.113 5419010 5432463 5428035 5402637 5355873 5290566 5213296 5132922 
3608.971 5059737 5001713 4962064 4939207 4927310 4918262 4905159 4884149 
3612.828 4855801 4824842 4797537 4779815 4774120 4778709 4788023 4794388 
3616.686 4789631 4766783 4721862 4654875 4570586 4477040 4384920 4304733 
3620.543 4244167 4206727 4191840 4195386 4212416 4238044 4269229 4305201 
3624.400 4346264 4392117 4439748 4481359 4505196 4495520 4438275 4326452 
3628.258 4167719 3986372 3816432 3690933 3626811 3621098 3656582 3711151 
3632.115 3763588 3798382 3809011 3795975 3766662 3730601 3696414 3669213 
3635.973 3650267 3637570 3628014 3619460 3610473 3601218 3592164 3584213 
3639.830 3576930 3570750 3565672 3562665 3563634 3570917 3586652 3612210 
3643.688 3646692 3687291 3729999 3768735 3797078 3809044 3799050 3763487 
3647.545 3701727 3615785 3510987 3395729 3281269 3179723 3103629 3062683 
3651.402 3060781 3096521 3161633 3244079 3328245 3398768 3442483 3451100 
3655.260 3424315 3370884 3308880 3257700 3233464 3243245 3284040 3344906 
3659.117 3411625 3470872 3512357 3530762 3526554 3504908 3473711 3441615 
3662.975 3416701 3404745 3409054 3431462 3471273 3527455 3596942 3675929 
3666.832 3759176 3839831 3911407 3970020 4017973 4066032 4135437 4253636 
3670.689 4443865 4718345 5073313 5491182 5943009 6392549 6800246 7118825 
3674.547 7302563 7319007 7162108 6859452 6460343 6016948 5566118 5126786 
3678.404 4708799 4319390 3968415 3668879 3431162 3259169 3147114 3083439 
3682.262 3053174 3043764 3049103 3067822 3101026 3148382 3205391 3262440 
3686.119 3307578 3328178 3316025 3270553 3199082 3114908 3032586 2962756 
3689.977 2909449 2872525 2849578 2838938 2840539 2854447 2879229 2911283 
3693.834 2944141 2971530 2987744 2990880 2982473 2968795 2957319 2954750 
3697.691 2964658 2986410 3015303 3044098 3065153 3072494 3063418 3039894 
3701.549 3007229 2974033 2948278 2936135 2940338 2960388 2992849 3033821 
3705.406 3079201 3126155 3172814 3217808 3260170 3297595 3327109 3344305 
3709.264 3344138 3323303 3280134 3217341 3140773 3061182 2989846 2937236 
3713.121 2910149 2909449 2931899 2970229 3016104 3061282 3099324 3127490 
3716.979 3145679 3157427 3167140 3179389 3196145 3216540 3236835 3252592 
3720.836 3260237 3258801 3250589 3240174 3232396 3230927 3235433 3242344 
3724.693 3246550 3243078 3229692 3208662 3186331 3171779 3173114 3195177 
3728.551 3236802 3292286 3351584 3403143 3437941 3450399 3441047 3416334 
3732.408 3385444 3356292 3330949 3305107 3270252 3219210 3150051 3069658 
3736.266 2992348 2934501 2907815 2915120 2952481 3011466 3084574 3167106 
3740.123 3257266 3354322 3454507 3548701 3620296 3647661 3610373 3500165 
3743.980 3332151 3146246 2997253 2925627 2941106 3026180 3147949 3272055 
3747.838 3368581 3418137 3414397 3362103 3275493 3171645 3065553 2966793 
3751.695 2882564 2820029 2786647 2788848 2827899 2898408 2988612 3083272 
3755.553 3168909 3234599 3275260 3291953 3288714 3271354 3244180 3210531 
3759.410 3173548 3138804 3114208 3107900 3125788 3167473 3225886 3288614 
3763.268 3341300 3373122 3378832 3361902 3331984 3302169 3283239 3278665 
3767.125 3285342 3295692 3300867 3294456 3274492 3243579 3207627 3173081 
3770.982 3145045 3126522 3118179 3119647 3129392 3146246 3168441 3194242 
3774.840 3222515 3252225 3282538 3312452 3340131 3361969 3374124 3372554 
3778.697 3355925 3327009 3292854 3262941 3245882 3246383 3263275 3291018 
3782.555 3320699 3343938 3355424 3353688 3340766 3321400 3300933 3282104 
3786.412 3266680 3254662 3245782 3240207 3238605 3241275 3247952 3257833 
3790.270 3269885 3284574 3303271 3328445 3362269 3404946 3452937 3499230 
3794.127 3534771 3551975 3546964 3522645 3488241 3458047 3444754 3455375 
3797.984 3488074 3532834 3572721 3588423 3564636 3493618 3382472 3252291 
3801.842 3135066 3060481 3044398 3085174 3165838 3262173 3346242 3394961 
3805.699 3394560 3344572 3259369 3164603 3088211 3047668 3046734 3077066 
3809.557 3125154 3178788 3231161 3282671 3337694 3401005 3473010 3547499 
3813.414 3611408 3649432 3647093 3599648 3515363 3417436 3335490 3294122 
3817.271 3303872 3358129 3437908 3516098 3567609 3572286 3520842 3420007 
3821.129 3292821 3172380 3087477 3054075 3070926 3124219 3193675 3259469 
3824.986 3308212 3333487 3338128 3331650 3326776 3333887 3357327 3394393 
3828.844 3437273 3476851 3505175 3518336 3518002 3509852 3501034 3498528 
3832.701 3507113 3527222 3556719 3590260 3620764 3640477 3641345 3617823 
3836.559 3567709 3495455 3410623 3328545 3263876 3225953 3217007 3230894 
3840.416 3257332 3283907 3301468 3305007 3295091 3276094 3255229 3239906 
3844.273 3236001 3246516 3272289 3311484 3361234 3418170 3480325 3546396 
3848.131 3617155 3693841 3777759 3867210 3956712 4033859 4080280 4074628 
3851.988 3996905 3838560 3612444 3357762 3125955 2960621 2881430 2880863 
3855.846 2936469 3022209 3117778 3209496 3290751 3359431 3416467 3462723 
3859.703 3499163 3526487 3545995 3559625 3569313 3576529 3580004 3577431 
3863.561 3566006 3545928 3522077 3504173 3502971 3525986 3572921 3634195 
3867.418 3692370 3728362 3725688 3677233 3590895 3488141 3397599 3340833 
3871.275 3325473 3343337 3377463 3408052 3421310 3413362 3390319 3365475 
3875.133 3353554 3365074 3402041 3458782 3523814 3584480 3629083 3648797 
3878.990 3640911 3608769 3562698 3516532 3485869 3481928 3508115 3559324 
3882.848 3622434 3680708 3715562 3713423 3669948 3593601 3504942 3429058 
3886.705 3388115 3391054 3433266 3499464 3569413 3623637 3646692 3632023 
3890.563 3582776 3511823 3436472 3374357 3338061 3332385 3355491 3401840 
3894.420 3464159 3535005 3608001 3677968 3739992 3789557 3824019 3841135 
3898.277 3841268 3826593 3801457 3770640 3738254 3706506 3675094 3641479 
3902.135 3602555 3555783 3501501 3443185 3386512 3338796 3306375 3292520 
3905.992 3297428 3318362 3351083 3390620 3432464 3473344 3510754 3543590 
3909.850 3571351 3594403 3614115 3632157 3650868 3672254 3697483 3725722 
3913.707 3754965 3780934 3799017 3805602 3798148 3777692 3747211 3712087 
3917.564 3677400 3647894 3625575 3610840 3603490 3602421 3607032 3616988 
3921.422 3631021 3647059 3662129 3672454 3674559 3667475 3652004 3632391 
3925.279 3614382 3604058 3605294 3619594 3644887 3677166 3711853 3743635 
3929.137 3768902 3785313 3792098 3789491 3779129 3763354 3745373 3729197 
3932.994 3718770 3716865 3724685 3741128 3762919 3785547 3804465 3816097 
3936.852 3819239 3814627 3804900 3793268 3782438 3773581 3766295 3759276 
3940.709 3750653 3739925 3727359 3715195 3706539 3704167 3710182 3724685 
3944.566 3746141 3771241 3796209 3817501 3831875 3837691 3834884 3824521 
3948.424 3808844 3790193 3771375 3753828 3739257 3728395 3721678 3719739 
3952.281 3722714 3730835 3742966 3757839 3773213 3786549 3796009 3800287 
3956.139 3799852 3796443 3792098 3789157 3789090 3792131 3797178 3802961 
3959.996 3807774 3810448 3811251 3810749 3810315 3811384 3814393 3819039 
3963.854 3824655 3829869 3833513 3835418 3835686 3835452 3835752 3837223 
3967.711 3840299 3844243 3847486 3848890 3847620 3844143 3839864 3836956 
3971.568 3837624 3843441 3854372 3868747 3884126 3897565 3907160 3911473 
3975.426 3911240 3908097 3903249 3898535 3894857 3892684 3892216 3893687 
3979.283 3897131 3902948 3910838 3920033 3928759 3935380 3938689 3938121 
3983.141 3934544 3929729 3925683 3924246 3926252 3931635 3939826 3949523 
3986.998 3960190 3971525 3983396 3995936 4008376 4019980 4029511 4036032 
3990.855 4039243 4039611 4038106 4036266 4035364 4036467 4040246 4046902 
3994.713 4056233 4067738 4080815 4093860 4105667 4114632 4119515 4119883 
3998.570 4116371 4109948 4102255 4094529 4087371 
##END=
