##TITLE=966_3_a
##JCAMP-DX=5.01  $$ Nicolet v. 1
##DATATYPE=INFRARED SPECTRUM
##ORIGIN=UniL
##OWNER=Nicolet
##LONGDATE=2011/09/29
##TIME=10:08:05
##SPECTROMETER/DATA SYSTEM=Nicolet iS5
##DATA PROCESSING=
Ratio against background
%Transmittance->Absorbance
Truncated
ElementMultiply or ElementDivide
##COMMENTS=
Number of sample scans: 32
Collection length: 51.17 sec
Sample gain: 2.0
Background collected on: Jeu Sep 29 10:06:40 2011 (GMT+02:00);
Number of background scans: 32
Background gain: 2.0
Sample spacing:  1.000
Number of scan points: 12415
Resolution points: 8192
Number of FFT points: 65536
Apodization: N-B fort;
Phase correction: Mertz;
Laser frequency: 15798.0 cm-1
Number of rejected sample scans: 0
Number of rejected background scans: 0
Bench serial number: ASB1000141;
##RESOLUTION=4.000
##XUNITS=1/CM
##YUNITS=ABSORBANCE
##FIRSTX=649.893372
##LASTX=4000.122314
##FIRSTY=0.072687
##MAXX=4000.122314
##MINX=649.893372
##MAXY=0.255658
##MINY=0.004545
##XFACTOR=1.000000
##YFACTOR=1.000000E-009
##NPOINTS=6950
##DELTAX=0.482117
##ZPD=6100
##XYDATA=(X++(Y..Y))
649.893 72686552 73326568 74004528 74723776 75484816 76284440 77118656 
653.268 77988256 78901840 79876928 80934120 82092080 83362584 84750224 
656.643 86258488 87895832 89679352 91635104 93792344 96174232 98797944 
660.018 101672168 104797192 108160184 111718144 115383752 119001160 
662.911 122362640 125252128 127468512 128881160 129420608 129045816 
665.803 127717168 125393392 122091536 117972568 113419264 108975376 
668.696 105112952 102072416 99826800 98197600 96967008 95953368 95043240 
672.071 94182472 93366496 92617904 91966576 91431744 91017392 90715464 
675.446 90515440 90411224 90405592 90506912 90725640 91068512 91535800 
678.820 92123352 92826040 93643096 94582296 95660384 96897672 98315344 
682.195 99930848 101755592 103801448 106085824 108637256 111501008 114733856 
685.570 118392568 122534136 127206024 132449400 138306576 144816032 
688.463 151994128 159789024 168028000 176349696 184138160 190609376 
691.355 194858176 196026576 193571744 187357264 177748592 165512240 
694.248 151722384 137556544 124040712 112037824 102099032 94447080 89063696 
697.623 85733624 84151640 83985288 84967632 86933112 89804144 93559448 
700.998 98151128 103404480 108973160 114302720 118666296 121364104 121832232 
704.373 119821736 115473648 109289840 102015208 94409144 87169120 80777336 
707.747 75455488 71229112 67974328 65511108 63651300 62247984 61200656 
711.122 60435392 59896764 59534828 59301596 59161508 59093736 59092252 
714.497 59158692 59292976 59484632 59714312 59958268 60198400 60429452 
717.872 60659596 60904040 61176128 61480184 61809240 62151320 62495624 
721.247 62841228 63198224 63584932 64019600 64512932 65064936 65665328 
724.621 66298344 66945508 67590544 68217768 68810264 69350896 69823984 
727.996 70221696 70550712 70836944 71124104 71460448 71892280 72448344 
731.371 73134464 73937584 74835000 75807736 76847864 77962760 79168192 
734.746 80480376 81906264 83441720 85075720 86801296 88624408 90569448 
738.121 92674376 94980888 97523800 100321192 103376016 106684136 110246288 
741.496 114077144 118209752 122691136 127585576 132976128 138969472 
744.388 145715552 153390800 162157200 172086976 183045104 194584048 
747.281 205808736 215489136 222205280 224651024 222147472 214871440 
750.174 203929408 190971584 177897888 166430688 157727280 152423840 
753.066 150554928 151684768 155019024 159598256 164522128 168977152 
755.959 172394672 174457296 175028720 174103072 171723424 167937552 
758.852 162787216 156333776 148705856 140125968 130931560 121570656 
761.744 112511928 104228512 97130496 91481112 87405536 84859744 83660976 
765.119 83510192 84052640 84954616 85906016 86672808 87106192 87121616 
768.494 86701688 85881704 84744904 83406032 81997096 80657320 79498640 
771.869 78595992 77980800 77644256 77553656 77671160 77970056 78437304 
775.244 79068680 79859968 80798168 81860216 83020200 84255456 85554720 
778.619 86917408 88347616 89845336 91400416 92991384 94592600 96181968 
781.993 97745176 99278256 100780448 102245800 103658896 104992088 106210120 
785.368 107281312 108180536 108892936 109412208 109732408 109843384 
788.261 109729808 109372656 108756464 107875832 106737760 105360280 
791.154 103766432 101979840 100019936 97903352 95647616 93274352 90809840 
794.528 88282648 85716464 83126280 80519816 77900800 75279384 72679032 
797.903 70135824 67696864 65409520 63307928 61412164 59725872 58242284 
801.278 56950628 55840052 54899556 54114184 53462168 52916876 52447900 
804.653 52029964 51647284 51293352 50968956 50676716 50416296 50184560 
808.028 49979192 49805360 49678364 49626356 49685272 49888720 50263156 
811.402 50819828 51552096 52432124 53409176 54412772 55344088 56089380 
814.777 56536228 56582612 56167692 55285640 53990124 52383528 50595472 
818.152 48764592 47001316 45383056 43952056 42719624 41680876 40822744 
821.527 40129880 39583032 39158068 38828300 38565508 38347320 38161832 
824.902 38006916 37887948 37809756 37772780 37770392 37792548 37829348 
828.277 37877252 37938604 38019680 38125584 38255508 38402952 38559028 
831.651 38716644 38874748 39038932 39217936 39418968 39643252 39886464 
835.026 40141368 40403328 40673564 40959740 41272072 41619204 42003656 
838.401 42422684 42870088 43342376 43841460 44374984 44953080 45583680 
841.776 46269308 47007076 47792708 48624372 49506396 50448672 51462264 
845.151 52553272 53718228 54941216 56197180 57451988 58666284 59798648 
848.525 60800436 61619536 62205920 62513872 62517396 62218540 61654668 
851.900 60893480 60023548 59143356 58336260 57663532 57159664 56831384 
855.275 56665848 56637420 56716628 56871684 57072932 57297596 57528508 
858.650 57758216 57988160 58227508 58488408 58782508 59119096 59504200 
862.025 59942520 60439272 60999280 61623240 62301560 63007684 63696036 
865.400 64299756 64745708 64962224 64892040 64508468 63817448 62860148 
868.774 61701640 60428688 59136332 57911976 56838444 55981116 55383040 
872.149 55068856 55044068 55302084 55831272 56622928 57675868 58998796 
875.524 60608428 62525392 64769476 67350504 70257224 73441880 76813576 
878.899 80220152 83445616 86246840 88359760 89553624 89689416 88739176 
882.274 86812464 84127832 80999280 77768008 74737784 72169896 70237088 
885.648 69029000 68574168 68850448 69804408 71355152 73402480 75818784 
889.023 78433536 81049312 83431160 85321288 86490768 86752304 86002936 
892.398 84248736 81604608 78281184 74531920 70638608 66852704 63356496 
895.773 60270608 57639844 55454040 53669036 52228008 51076240 50162656 
899.148 49445312 48886836 48451528 48109664 47837684 47618932 47445076 
902.523 47311456 47213704 47145444 47097584 47061356 47031188 47007300 
905.897 46994596 46999436 47026352 47074760 47139792 47214592 47294496 
909.272 47378632 47470948 47576856 47699468 47837948 47987644 48142576 
912.647 48298748 48457120 48622636 48802000 49000064 49217212 49449956 
916.022 49693372 49943656 50201856 50472008 50760240 51070132 51401500 
919.397 51749440 52107700 52471416 52839936 53216700 53607516 54018644 
922.771 54454496 54918016 55414136 55950096 56536528 57184152 57897176 
926.146 58665904 59462252 60243200 60952152 61532520 61942168 62159580 
929.521 62191656 62070472 61849740 61592768 61360452 61209508 61182572 
932.896 61306836 61596892 62053496 62666952 63417456 64278276 65214804 
936.271 66183492 67139064 68033928 68825600 69487240 70012280 70419912 
939.646 70750872 71066312 71434240 71913816 72552336 73374584 74382704 
943.020 75559536 76872984 78281544 79731232 81160736 82502040 83677840 
946.395 84615488 85252248 85542776 85471328 85051456 84326952 83360016 
949.770 82227032 81008984 79777736 78600080 77530760 76607992 75857576 
953.145 75288800 74898072 74671240 74589752 74635552 74792888 75050744 
956.520 75400968 75835592 76346256 76924400 77561496 78252576 78996664 
959.894 79796888 80658152 81585616 82583744 83655704 84806248 86044424 
963.269 87383936 88844992 90450352 92220656 94171360 96308880 98629464 
966.644 101121200 103768792 106559272 109486856 112557776 115788712 
969.537 119203320 122820112 126638384 130620584 134685776 138697424 
972.429 142466864 145789520 148454240 150287792 151197792 151188224 
975.322 150376272 148965200 147236816 145495984 144015712 143030368 
978.215 142686320 143029136 144000528 145441280 147112320 148699008 
981.108 149879120 150353552 149881696 148340544 145729408 142174400 
984.000 137886848 133139256 128220024 123374008 118808752 114671120 
986.893 111040888 107951400 105392536 103326376 101696248 100439336 99497480 
990.268 98815456 98348256 98059880 97918992 97900272 97982472 98147128 
993.643 98380624 98672840 99016728 99406952 99838224 100303944 100797128 
997.017 101310808 101839576 102380800 102934416 103501600 104083768 
999.910 104680544 105290096 105909584 106537128 107172056 107815608 
1002.803 108470360 109138880 109823240 110524536 111244384 111985552 
1005.695 112753144 113553552 114393520 115277968 116208176 117182200 
1008.588 118195480 119243048 120321072 121427904 122563304 123727408 
1011.481 124919472 126137584 127379256 128643992 129934328 131257328 
1014.374 132623944 134046288 135536752 137104688 138756576 140496544 
1017.266 142327744 144252496 146273792 148394016 150613456 152928256 
1020.159 155329968 157801376 160314240 162829872 165291056 167623792 
1023.052 169745024 171560624 172985904 173962000 174466016 174524352 
1025.945 174208512 173631152 172917856 172188896 171546176 171050192 
1028.838 170719104 170524352 170397872 170232512 169887296 169212400 
1031.731 168047648 166244512 163696272 160341840 156186192 151299696 
1034.624 145819280 139931344 133843096 127782760 121959320 116539536 
1037.517 111649968 107353848 103659872 100533344 97913888 95731296 93916048 
1040.892 92411712 91172080 90158360 89339560 88686912 88174896 87783800 
1044.267 87498336 87308128 87206136 87185600 87238744 87357808 87534736 
1047.643 87764088 88043120 88370760 88744464 89157824 89595984 90037552 
1051.018 90455576 90819072 91100920 91279144 91340224 91281512 91111424 
1054.393 90850152 90525848 90174960 89837224 89547808 89336224 89220896 
1057.768 89208400 89296016 89473944 89728728 90042200 90391224 90746056 
1061.144 91065448 91301744 91405448 91328368 91037872 90520096 89784008 
1064.519 88858528 87788744 86630208 85436952 84260768 83147016 82128064 
1067.894 81226888 80454048 79810272 79288720 78879632 78574304 78366504 
1071.269 78253136 78232784 78302568 78457080 78688200 78985496 79339512 
1074.645 79742736 80189424 80675312 81195968 81745808 82320056 82916600 
1078.020 83538256 84194520 84901152 85678728 86546888 87525208 88630872 
1081.395 89878752 91286168 92872856 94660792 96675240 98939360 101472304 
1084.770 104285464 107379736 110741480 114337680 118115712 122000520 
1087.663 125894128 129692944 133291584 136597264 139547104 142106064 
1090.556 144265664 146030704 147403616 148369728 148896992 148942128 
1093.449 148475344 147506208 146106640 144417424 142628976 140975488 
1096.343 139680000 138924896 138836528 139454096 140728928 142517136 
1099.236 144605056 146712016 148509264 149684064 149946880 149079600 
1102.129 146978768 143655104 139237536 133933800 128015432 121768984 
1105.022 115451952 109300840 103498872 98168776 93388920 89186672 85550360 
1108.397 82441184 79804968 77582296 75710776 74134368 72800480 71658288 
1111.772 70664192 69777832 68965112 68202536 67473720 66770740 66091740 
1115.147 65438672 64815640 64227908 63681952 63184848 62742712 62360192 
1118.523 62038516 61775360 61565740 61404112 61286040 61209392 61173764 
1121.898 61179296 61224844 61307256 61421708 61563216 61729104 61919700 
1125.273 62138592 62390796 62681420 63014500 63392340 63817180 64292528 
1128.648 64822720 65413788 66070096 66793076 67578384 68416704 69293680 
1132.024 70190696 71087656 71963640 72796440 73566512 74256880 74856544 
1135.399 75364552 75791560 76162176 76509944 76876976 77307496 77839952 
1138.774 78508168 79337360 80343840 81537960 82922776 84495520 86245712 
1142.149 88155656 90201184 92348424 94558120 96784536 98971616 101058976 
1145.525 102977704 104650104 105999536 106950656 107436256 107409776 
1148.418 106846480 105747368 104136784 102060016 99577280 96754640 93668416 
1151.793 90397472 87017360 83604168 80225056 76934320 73778320 70791504 
1155.168 67999552 65423532 63077368 60968740 59098176 57458572 56036524 
1158.543 54813760 53771140 52887836 52141884 51511692 50972756 50500068 
1161.919 50071136 49666028 49270912 48878752 48487388 48098156 47713148 
1165.294 47334436 46964140 46605188 46262784 45943708 45655340 45404572 
1168.669 45194948 45027756 44902112 44817280 44773384 44772396 44816696 
1172.044 44908176 45046612 45230424 45457476 45726568 46038964 46398336 
1175.420 46809372 47275988 47800400 48383000 49023280 49721608 50479560 
1178.795 51299244 52181224 53121992 54111744 55133932 56168900 57196060 
1182.170 58197348 59161692 60084732 60969576 61825212 62666416 63512788 
1185.545 64385288 65307064 66297808 67369120 68521328 69739352 70994080 
1188.921 72240832 73427472 74500336 75406136 76102240 76557760 76754144 
1192.296 76685904 76357944 75783240 74978200 73962496 72756680 71381160 
1195.671 69860600 68226880 66518956 64789408 63098520 61503812 60057144 
1199.046 58790548 57711400 56804080 56035736 55368024 54763768 54197964 
1202.422 53659100 53147416 52670900 52240528 51867408 51559780 51323220 
1205.797 51160328 51070428 51049632 51090924 51186648 51329636 51516204 
1209.172 51746524 52024848 52356948 52747924 53200784 53715792 54292344 
1212.547 54930576 55632784 56403624 57249092 58174240 59182540 60275100 
1215.923 61452776 62717408 64073704 65528868 67093008 68776920 70590816 
1219.298 72544312 74647432 76910440 79345240 81964200 84777336 87789760 
1222.673 90997576 94386048 97924808 101569088 105259480 108914904 112439544 
1226.048 115720456 118621232 121000664 122713864 123624600 123634688 
1228.941 122692760 120810432 118061136 114578240 110540568 106139424 
1231.834 101581848 97065312 92753624 88788160 85268376 82249936 79755640 
1235.210 77777520 76287952 75245736 74604744 74317624 74333752 74606832 
1238.585 75092728 75750104 76545192 77448024 78429608 79462240 80512192 
1241.960 81539080 82500552 83351344 84051512 84574184 84906320 85052424 
1245.335 85030824 84872672 84617104 84305384 83984288 83698248 83487056 
1248.711 83383584 83405984 83556248 83820048 84170824 84575024 84997656 
1252.086 85411384 85796760 86145016 86457728 86745264 87026824 87326768 
1255.461 87675568 88105776 88645096 89314488 90121088 91056256 92093616 
1258.836 93192344 94300488 95353848 96284064 97021776 97494352 97638288 
1262.212 97400840 96744504 95655424 94142712 92238560 89990016 87457000 
1265.587 84706528 81804848 78823768 75836536 72910832 70112496 67495704 
1268.962 65097928 62944284 61047064 59409364 58029932 56903788 56021860 
1272.337 55369604 54927304 54671728 54578240 54626260 54800192 55089360 
1275.713 55487244 55988312 56585744 57272340 58040420 58884760 59803816 
1279.088 60799600 61876788 63040584 64296296 65649136 67104956 68672544 
1282.463 70362680 72186168 74150240 76253120 78480776 80801680 83171816 
1285.838 85534744 87824520 89977504 91931896 93632984 95038704 96117504 
1289.214 96849464 97225688 97244920 96910680 96226336 95191768 93802624 
1292.589 92054584 89949336 87504944 84761096 81786728 78672480 75522432 
1295.964 72453392 69573880 66983312 64770980 63002928 61725092 60958712 
1299.339 60697580 60910256 61541720 62527000 63789664 65251036 66838600 
1302.715 68477720 70095720 71624960 72995920 74146200 75025928 75596792 
1306.090 75838040 75744024 75322896 74595616 73599128 72395456 71069856 
1309.465 69735304 68525744 67563992 66946744 66714444 66834852 67198360 
1312.840 67632512 67950616 67972464 67575912 66720820 65446800 63858784 
1316.216 62090004 60285644 58565032 57008092 55658020 54522376 53587236 
1319.591 52829308 52227112 51764256 51429512 51214720 51111648 51110832 
1322.966 51202976 51379384 51633476 51960872 52357132 52815836 53328212 
1326.341 53881444 54461000 55053360 55645968 56229352 56797168 57344896 
1329.717 57869312 58368512 58842224 59292480 59724008 60143904 60560200 
1333.092 60980368 61410180 61852528 62308600 62778740 63263572 63764564 
1336.467 64284004 64823644 65384404 65966444 66569432 67194336 67844576 
1339.842 68525128 69243272 70005192 70814904 71673064 72578264 73528248 
1343.218 74521816 75561032 76651120 77800352 79017016 80308128 81676984 
1346.593 83123504 84644560 86236016 87894896 89619680 91409664 93263928 
1349.968 95177832 97143128 99149176 101185360 103245840 105332952 107458360 
1353.343 109640960 111903056 114268360 116757600 119388616 122175856 
1356.236 125126632 128235816 131476224 134796016 138111888 141314704 
1359.129 144296832 146959568 149240256 151122992 152637632 153847504 
1362.022 154825856 155648640 156376704 157052000 157705520 158355440 
1364.916 159010304 159669712 160325168 160965440 161585088 162193968 
1367.809 162824080 163529776 164371344 165405632 166671504 168184192 
1370.702 169941728 171934304 174156352 176607424 179289504 182198240 
1373.595 185313264 188599072 192016112 195538000 199163376 202911744 
1376.488 206806752 210846944 214982256 219093312 223009664 226523680 
1379.381 229408912 231461232 232489696 232319808 230821536 227926336 
1382.274 223675984 218230960 211860160 204865600 197480272 189839264 
1385.167 181950064 173741456 165137360 156138432 146861472 137523376 
1388.060 128373448 119623296 111419288 103836704 96912416 90676272 85145128 
1391.435 80327016 76209680 72752016 69892472 67560504 65697044 64250768 
1394.811 63176072 62427180 61941592 61648712 61485908 61409456 61412700 
1398.186 61527788 61821316 62371056 63240656 64469068 66063068 68009440 
1401.561 70283280 72853768 75672824 78653376 81668504 84535536 87029744 
1404.936 88936440 90071752 90325584 89678296 88191904 85993928 83241648 
1408.312 80120880 76819944 73511056 70360968 67502088 65022992 62971672 
1411.687 61353504 60148164 59325220 58859296 58732660 58929912 59431628 
1415.062 60207000 61213248 62409120 63761072 65252960 66889732 68687216 
1418.437 70656544 72784648 75033376 77349344 79686128 82020832 84353424 
1421.813 86692904 89036200 91353800 93584688 95632592 97395616 98786304 
1425.188 99744416 100240624 100258160 99776976 98772032 97222792 95137728 
1428.563 92568040 89618752 86432824 83155160 79921896 76842800 73998288 
1431.938 71452912 69250080 67406464 65913760 64737440 63828996 63139364 
1435.313 62640356 62335024 62254600 62435936 62893004 63599780 64499052 
1438.689 65521388 66602612 67696936 68769776 69795960 70758160 71640360 
1442.064 72429632 73117640 73701080 74181568 74564336 74854216 75053024 
1445.439 75157840 75164024 75071776 74893784 74662072 74423368 74227592 
1448.814 74114240 74097976 74171040 74312984 74507104 74749240 75051880 
1452.190 75435696 75917784 76498760 77160328 77864328 78563032 79212008 
1455.565 79774824 80235664 80601064 80898312 81155024 81384552 81587136 
1458.940 81757688 81897224 82017232 82136872 82275560 82447272 82655672 
1462.315 82895824 83158496 83438752 83740848 84081424 84484776 84979328 
1465.691 85590832 86339080 87243520 88321544 89586856 91045384 92690496 
1469.066 94503912 96450440 98486656 100561200 102603816 104529920 106239448 
1472.441 107628136 108611384 109137048 109183792 108750456 107844960 
1475.334 106486568 104715712 102602184 100241248 97727664 95141240 92525472 
1478.709 89887880 87218648 84508120 81762328 79012680 76306872 73695232 
1482.085 71220016 68903600 66750996 64756208 62907904 61194476 59605520 
1485.460 58132684 56770508 55518948 54383480 53373808 52500060 51768772 
1488.835 51180236 50730596 50417076 50240128 50203676 50309024 50549052 
1492.210 50904540 51347164 51841868 52356984 52869308 53365788 53845924 
1495.586 54316672 54783952 55243720 55678244 56059256 56359144 56558912 
1498.961 56654976 56659696 56599524 56509732 56426036 56382684 56405776 
1502.336 56508864 56692312 56941184 57226640 57503464 57719728 57828616 
1505.711 57809200 57688092 57539932 57459704 57507552 57691156 57976120 
1509.087 58314964 58664160 58994320 59293812 59563068 59811952 60054140 
1512.462 60302696 60565532 60843964 61132184 61419760 61696140 61954856 
1515.837 62200224 62450208 62734560 63082576 63510256 64012728 64564020 
1519.212 65123484 65645940 66101112 66486672 66838212 67212624 67664992 
1522.588 68217736 68853352 69528032 70191592 70807696 71357224 71844616 
1525.963 72291112 72725968 73173680 73648008 74156408 74704888 75303224 
1529.338 75964592 76698912 77506592 78373600 79277704 80195360 81115400 
1532.713 82050128 83038528 84134992 85377824 86779208 88318864 89962016 
1536.089 91668776 93407824 95165288 96934160 98723080 100552968 102458816 
1539.464 104478576 106638168 108953312 111413816 113997480 116687896 
1542.357 119473200 122348416 125305800 128326776 131371600 134379456 
1545.250 137284704 140023424 142543072 144803120 146752144 148321008 
1548.143 149433024 150014512 150040112 149555312 148677584 147544000 
1551.036 146250880 144825792 143228208 141395456 139302544 137007296 
1553.929 134655600 132442088 130514472 128922704 127593400 126361280 
1556.822 124998520 123270312 121015552 118231104 115147288 112153160 
1559.715 109599552 107620664 106144840 104999048 104007224 103027776 
1562.608 101945480 100675656 99168744 97423064 95491216 93467888 91460416 
1565.984 89536648 87704400 85906296 84046480 82023840 79776504 77318384 
1569.359 74747072 72214920 69863440 67781248 65983572 64433864 63073380 
1572.734 61844544 60699032 59597576 58510208 57422264 56350468 55356772 
1576.109 54545480 54035980 53912920 54205956 54897488 55949152 57327200 
1579.485 59015384 61018384 63352392 66032984 69064320 72425400 76063000 
1582.860 79893856 83791232 87592016 91114280 94154192 96526200 98088568 
1586.235 98748696 98483952 97341384 95446504 92988960 90213208 87402776 
1589.610 84817160 82679448 81155384 80336464 80260616 80919072 82273568 
1592.986 84261488 86803328 89813920 93191936 96827768 100613368 104436768 
1596.361 108199200 111821176 115232304 118367728 121156416 123507632 
1599.254 125324144 126515240 127014176 126800568 125900192 124382536 
1602.147 122339416 119882392 117136416 114223624 111268792 108382024 
1605.040 105639424 103085792 100730184 98557744 96543544 94665936 92913688 
1608.415 91283928 89776024 88386600 87105904 85922568 84829936 83830256 
1611.791 82933568 82150600 81483552 80917800 80418800 79935312 79414056 
1615.166 78812008 78120712 77380184 76677728 76117280 75773536 75672672 
1618.541 75790616 76076896 76472520 76928152 77411312 77905040 78411032 
1621.916 78947104 79544400 80238048 81057176 82019112 83123792 84357128 
1625.292 85696440 87116872 88590928 90090712 91592376 93075200 94528008 
1628.667 95949608 97349464 98743584 100148272 101578424 103044208 104552760 
1632.042 106107016 107710504 109370824 111100840 112926040 114885656 
1634.935 117035504 119425256 122087504 125029128 128222464 131633984 
1637.828 135238384 139025088 142996160 147159984 151528832 156105200 
1640.721 160879536 165832768 170928768 176119248 181353760 186564960 
1643.614 191688176 196672208 201482912 206126864 210649408 215133120 
1646.507 219646816 224217744 228822496 233389040 237836160 242086032 
1649.400 246074368 249694320 252744704 254905200 255657584 254372512 
1652.293 250588752 244446848 236902448 229237824 222336144 216343152 
1655.187 210937488 205657552 200148496 194226912 187873456 181183056 
1658.080 174300976 167374944 160483840 153640496 146806752 139922624 
1660.973 132945392 125877976 118784800 111790952 105063240 98767336 93031768 
1664.348 87918264 83415944 79462512 75962696 72814272 69927656 67243808 
1667.723 64744020 62454416 60433904 58750868 57456264 56565288 56056504 
1671.098 55882972 55992988 56339792 56887168 57614684 58515288 59597880 
1674.474 60883988 62400816 64167180 66179164 68418992 70863856 73501792 
1677.849 76336104 79380160 82646824 86126064 89783320 93567016 97417720 
1681.224 101303784 105231736 109245096 113411864 117788872 122374984 
1684.117 127057848 131639048 135901056 139673648 142853520 145372832 
1687.010 147184384 148236256 148493344 147952048 146638544 144607824 
1689.903 141932640 138710048 135059952 131120176 127039208 122922336 
1692.796 118796248 114591400 110148624 105283544 99904160 94137120 88361184 
1696.172 83074200 78634112 75129984 72387592 70109504 67979168 65776876 
1699.547 63460560 61184748 59216984 57751892 56792068 56169016 55660656 
1702.922 55057796 54212300 53031308 51467596 49523252 47246840 44730004 
1706.297 42082684 39417484 36832652 34396124 32147768 30096324 28223542 
1709.673 26497260 24887762 23381860 21987980 20728552 19621560 18668132 
1713.048 17843336 17105018 16407110 15722036 15049567 14412388 13837574 
1716.423 13336870 12895584 12482775 12073629 11670382 11303658 11013566 
1719.798 10824583 10732057 10705533 10700745 10680878 10626750 10545674 
1723.174 10463323 10409562 10399686 10426396 10464205 10486064 10477511 
1726.549 10442721 10400229 10369992 10361780 10368228 10370807 10350921 
1729.924 10304028 10242213 10188683 10161683 10163073 10170502 10146725 
1733.299 10055633 9890251 9684780 9500946 9389605 9362892 9397664 9452688 
1737.157 9490346 9486248 9438059 9361437 9282491 9221566 9182917 9154389 
1741.014 9118452 9064147 8993544 8918487 8853183 8803171 8762497 8715673 
1744.872 8648067 8554484 8443521 8332587 8238227 8167859 8113706 8058076 
1748.729 7981291 7874422 7744001 7609540 7493223 7408415 7354357 7320355 
1752.586 7294409 7271396 7254920 7252966 7270654 7304181 7340911 7363523 
1756.444 7360928 7334744 7301451 7281807 7291848 7332958 7392237 7447749 
1760.301 7479503 7479368 7455300 7426953 7414987 7430492 7469760 7519551 
1764.159 7565471 7600706 7627243 7652737 7684539 7724000 7764679 7797197 
1768.016 7814840 7820272 7823781 7838287 7870171 7914237 7952774 7964518 
1771.874 7936508 7873612 7798614 7740021 7718232 7734726 7775776 7820441 
1775.731 7853267 7869394 7876008 7886130 7910120 7948758 7992157 8025098 
1779.588 8035663 8023444 8000022 7983856 7988547 8016458 8057164 8093992 
1783.446 8112119 8107596 8088692 8072624 8074413 8100440 8145543 8197740 
1787.303 8246331 8287734 8327047 8373390 8433251 8504574 8574929 8626266 
1791.161 8644552 8627145 8587433 8546644 8524915 8529714 8555092 8586926 
1795.018 8613152 8630051 8642795 8661621 8694342 8740859 8792385 8835328 
1798.875 8858087 8858255 8844255 8831304 8832555 8852844 8886391 8921904 
1802.733 8948995 8964656 8974398 8988706 9016411 9059241 9111753 9163897 
1806.590 9208468 9244040 9276568 9314345 9364010 9424210 9486146 9538133 
1810.448 9572546 9591007 9604285 9626780 9669228 9733199 9811311 9890386 
1814.305 9960051 10017282 10067400 10121017 10186376 10265350 10351634 
1817.680 10434813 10506024 10563022 10611165 10659484 10714430 10775362 
1821.056 10834128 10879074 10900988 10896741 10870513 10830969 10786741 
1824.431 10742314 10697925 10652184 10606073 10564651 10535659 10523642 
1827.806 10527275 10536780 10537832 10517159 10471809 10411259 10354891 
1831.181 10321095 10318517 10342404 10378171 10408951 10423477 10421033 
1834.557 10410546 10405456 10415263 10440548 10473166 10501849 10519330 
1837.932 10527376 10535999 10559185 10606446 10677957 10764289 10850842 
1841.307 10924908 10978767 11012411 11030423 11038308 11038784 11031510 
1844.682 11016862 10998715 10986038 10989573 11016013 11064037 11123929 
1848.058 11182130 11226364 11252275 11265809 11280430 11309914 11360828 
1851.433 11429878 11505540 11575328 11631684 11676440 11718137 11767397 
1854.808 11828714 11897873 11962921 12011766 12037757 12044059 12040993 
1858.183 12040925 12050804 12068894 12085825 12091447 12081329 12060138 
1861.559 12040447 12035100 12051826 12088654 12136285 12182968 12221339 
1864.934 12252524 12283642 12322431 12371009 12422558 12463918 12482707 
1868.309 12474488 12447789 12420922 12414342 12438174 12490585 12558041 
1871.684 12624860 12678794 12716732 12742560 12763477 12783814 12801593 
1875.060 12810022 12802480 12777671 12742799 12710454 12692508 12695204 
1878.435 12714958 12741400 12763374 12775249 12780060 12787499 12808077 
1881.810 12846095 12897905 12954023 13004446 13045316 13081306 13123206 
1885.185 13180685 13256926 13344456 13428619 13495709 13537444 13557237 
1888.561 13567219 13583287 13616689 13669001 13733632 13800905 13864290 
1891.936 13923920 13984516 14051624 14125964 14202645 14272662 14328821 
1895.311 14370431 14405400 14446984 14505804 14585669 14680219 14777875 
1898.686 14866945 14943277 15010807 15080680 15163877 15263769 15375493 
1902.062 15487691 15588826 15673116 15743200 15807452 15873708 15943617 
1905.437 16010238 16060639 16083812 16075389 16041661 15995180 15950870 
1908.812 15918318 15898177 15885290 15873296 15861336 15855424 15866285 
1912.187 15902543 15966820 16052112 16146809 16238499 16320372 16393002 
1915.563 16462170 16532380 16604632 16673144 16730132 16771523 16801900 
1918.938 16832450 16877746 16946678 17037954 17140106 17237660 17317996 
1922.313 17377964 17424972 17471778 17530078 17602082 17680070 17750890 
1925.688 17804258 17838918 17864362 17895816 17945746 18018234 18105968 
1929.063 18194654 18271054 18330566 18378404 18426870 18486506 18560468 
1932.439 18641534 18718808 18781634 18829002 18869142 18915620 18979166 
1935.814 19060242 19149086 19229844 19290632 19328980 19353540 19378936 
1939.189 19417082 19468504 19521770 19558334 19563014 19533104 19481014 
1942.564 19428240 19396468 19395428 19420132 19454436 19482714 19496818 
1945.940 19500490 19505136 19520524 19548804 19581940 19605960 19609498 
1949.315 19592790 19567832 19554766 19571056 19622426 19700328 19787952 
1952.690 19868066 19931684 19982612 20031290 20088478 20155422 20223040 
1956.065 20275670 20301360 20298616 20279142 20262094 20265704 20296744 
1959.441 20348060 20402614 20445020 20469782 20484476 20503546 20540784 
1962.816 20600052 20673818 20748572 20813710 20867520 20920054 20986226 
1966.191 21074734 21182466 21294714 21389866 21453950 21484970 21495064 
1969.566 21502238 21519680 21546976 21571422 21575252 21547082 21489180 
1972.942 21418826 21358436 21326000 21324990 21344482 21367452 21384610 
1976.317 21398986 21427250 21487092 21585700 21710416 21835238 21928488 
1979.692 21971146 21963828 21925804 21885032 21862660 21866424 21887890 
1983.067 21910782 21921726 21918380 21910402 21913990 21940022 21988782 
1986.443 22048318 22102390 22139660 22160372 22175260 22200820 22247902 
1989.818 22314728 22387844 22448446 22482432 22488924 22479084 22469802 
1993.193 22474338 22495936 22525320 22549016 22558092 22553100 22545282 
1996.568 22550482 22577916 22626292 22683890 22733642 22763774 22773760 
1999.944 22774110 22780952 22805188 22846918 22894034 22931094 22945694 
2003.319 22936544 22913768 22894138 22889632 22901928 22920440 22929312 
2006.694 22917050 22883032 22837314 22796492 22772222 22766078 22768906 
2010.069 22768102 22755462 22733256 22713040 22707106 22722016 22753438 
2013.445 22787624 22809728 22812242 22800194 22789228 22797576 22833508 
2016.820 22893720 22962882 23023146 23063990 23088764 23110290 23145060 
2020.195 23201190 23273584 23345148 23397876 23420992 23417984 23404660 
2023.570 23400638 23419278 23461138 23513076 23558270 23586360 23596436 
2026.946 23599864 23609520 23632752 23664836 23691218 23694998 23667250 
2030.321 23612144 23546760 23491216 23460160 23456768 23472190 23494820 
2033.696 23514930 23531790 23552078 23582584 23623130 23665326 23693842 
2037.071 23696082 23668298 23619246 23564602 23520946 23496744 23488312 
2040.447 23482682 23466734 23433932 23388750 23344100 23312738 23300536 
2043.822 23303542 23309066 23303438 23280924 23245686 23210978 23190880 
2047.197 23194096 23218388 23253900 23287252 23309102 23317738 23317528 
2050.572 23314732 23312842 23311024 23305990 23296586 23286692 23284874 
2053.948 23301236 23342350 23405114 23478556 23547600 23599480 23631282 
2057.323 23650246 23669210 23700840 23751478 23816262 23884206 23942112 
2060.698 23982518 24006258 24020966 24035288 24055354 24079870 24102600 
2064.073 24115946 24116682 24106768 24093670 24085300 24085684 24093250 
2067.448 24103268 24110692 24114334 24117802 24126804 24145472 24172866 
2070.824 24201172 24220652 24223664 24208740 24182396 24154826 24136156 
2074.199 24130236 24134334 24140220 24139834 24129886 24113074 24096298 
2077.574 24086176 24085544 24090764 24095422 24092724 24080432 24062150 
2080.949 24044884 24034448 24032768 24035920 24036024 24026430 24004052 
2084.325 23971628 23935810 23903216 23876854 23854310 23830682 23801350 
2087.700 23765442 23726630 23691462 23665430 23650174 23641814 23633940 
2091.075 23621240 23602488 23582198 23567890 23566070 23578840 23602558 
2094.450 23629112 23649964 23660742 23661406 23655738 23647796 23639400 
2097.826 23628168 23610990 23585312 23552534 23518464 23490308 23473274 
2101.201 23467714 23469252 23470966 23467782 23458724 23447358 23439106 
2104.576 23438440 23443968 23450578 23450228 23437532 23411900 23379238 
2107.951 23347036 23323088 23310220 23305850 23304172 23300572 23293300 
2111.327 23285608 23282532 23287322 23299244 23313018 23321198 23318156 
2114.702 23303368 23281378 23260194 23247226 23245058 23251490 23260998 
2118.077 23267360 23267814 23263062 23256628 23251420 23248030 23243206 
2121.452 23232334 23212200 23183296 23149604 23117174 23090756 23071118 
2124.828 23056442 23042570 23027234 23012106 23002428 23003756 23018638 
2128.203 23044494 23073774 23096870 23107074 23103790 23093026 23084780 
2131.578 23087576 23105572 23137128 23176620 23218072 23259426 23302390 
2134.953 23350848 23407632 23469846 23530986 23581882 23616098 23632436 
2138.329 23635130 23631736 23627922 23626172 23623758 23616938 23604064 
2141.704 23588356 23576986 23577510 23593112 23619982 23649860 23672148 
2145.079 23680580 23677782 23671974 23674352 23690972 23721346 23755398 
2148.454 23781856 23791586 23783430 23763972 23745494 23735694 23737340 
2151.830 23743710 23744024 23728346 23691988 23636320 23568624 23496322 
2155.205 23424068 23355182 23294244 23249846 23236774 23271240 23361686 
2158.580 23502828 23673898 23843986 23982764 24074512 24119134 24131604 
2161.955 24131708 24133390 24141936 24152724 24157242 24150378 24134020 
2165.331 24116190 24106454 24108276 24118398 24126104 24120954 24097452 
2168.706 24058192 24013506 23975444 23950934 23939590 23933114 23919320 
2172.081 23890856 23846330 23790536 23732756 23680792 23636004 23596682 
2175.456 23557884 23516926 23475864 23439770 23412738 23395500 23383190 
2178.832 23367980 23343156 23308088 23268584 23234712 23215836 23214508 
2182.207 23225728 23238940 23244044 23236180 23218212 23198534 23185988 
2185.582 23185042 23193012 23202344 23205560 23199304 23186756 23175012 
2188.957 23170574 23174768 23183120 23185880 23174244 23145794 23104418 
2192.333 23059728 23021050 22993658 22974166 22955790 22930116 22893476 
2195.708 22848176 22803580 22768242 22747154 22738808 22735980 22729802 
2199.083 22714334 22688848 22658232 22629538 22607652 22594704 22589746 
2202.458 22590862 22598088 22613480 22639940 22677956 22724284 22771770 
2205.833 22812310 22841298 22859526 22874196 22894976 22927670 22972350 
2209.209 23022272 23065562 23091944 23097394 23085550 23066226 23049908 
2212.584 23044354 23051132 23066994 23086596 23105990 23124896 23145200 
2215.959 23167918 23192662 23214508 23227336 23227650 23215206 23194654 
2219.334 23173440 23157992 23149814 23146772 23143104 23134472 23119726 
2222.710 23102076 23086038 23074820 23067308 23058084 23040020 23008750 
2226.085 22965432 22916738 22872974 22841680 22825894 22821460 22820482 
2229.460 22813882 22797086 22770302 22737692 22704524 22673522 22644094 
2232.835 22613864 22580776 22546016 22513942 22490562 22479256 22479536 
2236.211 22485434 22487876 22480338 22459542 22427896 22391368 22357250 
2239.586 22328924 22307018 22289196 22272558 22256446 22243856 22237612 
2242.961 22240786 22252224 22267746 22281208 22288182 22286614 22279848 
2246.336 22272524 22268652 22269594 22273396 22276010 22274476 22268652 
2249.712 22261466 22257876 22261678 22273534 22290904 22309390 22325400 
2253.087 22337714 22348458 22359970 22373994 22389238 22401066 22404172 
2256.462 22395344 22374656 22346366 22316262 22289196 22266734 22247586 
2259.837 22227672 22204272 22176830 22147644 22119820 22096044 22075926 
2263.213 22056754 22035072 22008962 21978918 21948700 21922528 21902700 
2266.588 21888586 21876320 21861474 21841580 21817470 21793152 21773850 
2269.963 21762982 21760404 21762424 21763816 21760890 21752808 21742254 
2273.338 21733196 21728284 21727380 21727380 21723164 21711462 21691536 
2276.714 21666284 21640478 21618398 21601926 21590052 21580126 21569540 
2280.089 21557666 21545758 21535452 21527654 21520934 21511116 21494404 
2283.464 21467492 21430382 21386004 21339084 21293218 21250730 21211170 
2286.839 21172760 21133728 21094212 21055606 21020270 20990016 20964734 
2290.215 20942690 20921480 20899228 20875794 20852502 20830672 20810858 
2293.590 20791634 20770260 20743810 20710794 20672464 20632122 20594110 
2296.965 20562010 20537240 20518654 20503718 20490068 20476486 20463428 
2300.340 20452244 20444186 20439186 20436128 20433454 20430642 20428488 
2303.716 20429008 20434740 20446860 20464818 20486318 20508164 20527826 
2307.091 20544188 20557528 20568992 20579518 20588448 20594876 20597760 
2310.466 20597238 20595050 20594596 20599462 20611970 20631878 20656688 
2313.841 20682784 20706624 20726052 20740718 20751456 20759068 20764038 
2317.217 20765602 20762822 20755244 20743706 20729770 20715938 20703842 
2320.592 20694044 20685600 20676634 20664714 20647966 20624722 20593278 
2323.967 20552526 20501392 20440262 20371048 20298166 20227378 20164900 
2327.342 20115440 20080634 20059016 20046490 20038090 20030006 20020500 
2330.718 20010334 20000826 19993818 19989620 19987470 19986360 19986046 
2334.093 19987018 19990904 19998466 20009120 20020638 20029834 20033406 
2337.468 20029938 20019772 20005024 19988162 19971060 19953850 19936124 
2340.843 19917150 19897028 19876738 19857212 19838378 19817914 19792078 
2344.219 19757330 19712706 19661530 19611162 19572060 19553692 19561524 
2347.594 19596636 19655048 19729766 19812434 19895918 19974078 20042464 
2350.969 20098332 20139980 20167120 20180726 20183504 20178956 20171112 
2354.344 20163024 20155180 20146710 20134530 20115858 20089518 20056552 
2357.719 20019668 19982438 19947052 19913576 19881074 19846876 19809314 
2361.095 19768186 19724634 19680114 19636294 19593898 19553068 19513834 
2364.470 19476788 19442966 19413376 19387702 19364522 19341172 19314706 
2367.845 19284188 19250452 19216650 19186554 19162902 19146316 19134820 
2371.220 19125090 19114216 19100574 19084578 19068168 19053142 19040300 
2374.596 19029360 19018836 19007690 18995712 18984186 18974564 18968298 
2377.971 18965252 18964178 18962794 18959368 18953518 18946492 18940504 
2381.346 18937630 18939050 18944414 18952028 18960372 18968402 18976052 
2384.721 18984636 18995332 19009144 19025932 19045008 19065398 19086690 
2388.097 19108678 19131564 19155076 19178140 19199230 19216962 19230814 
2391.472 19241204 19250002 19259076 19269364 19280066 19289386 19294720 
2394.847 19294338 19288450 19279132 19269952 19263754 19262194 19264826 
2398.222 19269504 19273694 19275114 19273312 19268602 19261812 19253778 
2401.598 19244530 19233794 19221534 19208960 19197844 19190398 19188460 
2404.973 19192302 19200962 19212356 19224200 19235316 19245326 19254540 
2408.348 19263476 19272204 19280240 19287030 19292746 19298288 19305666 
2411.723 19316438 19331542 19350008 19369478 19387528 19402218 19412926 
2415.099 19420930 19428136 19435966 19444802 19453398 19459842 19462406 
2418.474 19460916 19456378 19451214 19447646 19447194 19450002 19455234 
2421.849 19461678 19468436 19474742 19480390 19484722 19486732 19484896 
2425.224 19478798 19468504 19456238 19444630 19436244 19432538 19432884 
2428.600 19434928 19436522 19435482 19431672 19426682 19422904 19422142 
2431.975 19425122 19430632 19436452 19440090 19440054 19435656 19427132 
2435.350 19415282 19400314 19382538 19362618 19341486 19321080 19304072 
2438.725 19292052 19285436 19282838 19281348 19278024 19270472 19258524 
2442.101 19242936 19225966 19209342 19194278 19180424 19167682 19155630 
2445.476 19145138 19136932 19132188 19131184 19132812 19135270 19137000 
2448.851 19137000 19135444 19133434 19131598 19129728 19126336 19119066 
2452.226 19106218 19087038 19063218 19037876 19014440 18995782 18982904 
2455.602 18975324 18971620 18970514 18971274 18973906 18978474 18984566 
2458.977 18991142 18996646 18999554 19000142 18999554 19000142 19004124 
2462.352 19012708 19025414 19040922 19057436 19074158 19091262 19109682 
2465.727 19129972 19152270 19174886 19195386 19211696 19223266 19230952 
2469.103 19237186 19244254 19253674 19264794 19276048 19285090 19290772 
2472.478 19293056 19293680 19294132 19295688 19297768 19299154 19298044 
2475.853 19293472 19286026 19277400 19269364 19263302 19258938 19254922 
2479.228 19249796 19242486 19233550 19224822 19218486 19215680 19216718 
2482.604 19220840 19226554 19233240 19241344 19251734 19265796 19283704 
2485.979 19304488 19325930 19346092 19363136 19377204 19388914 19399862 
2489.354 19410742 19421482 19431290 19438982 19444838 19449446 19454506 
2492.729 19461400 19470514 19480808 19490232 19496366 19497892 19494948 
2496.104 19488952 19481154 19473426 19465976 19458768 19451420 19444178 
2499.480 19437872 19433854 19432848 19434754 19438220 19441476 19443036 
2502.855 19442932 19442274 19443280 19447920 19456306 19466982 19477342 
2506.230 19484828 19487494 19485866 19481328 19476128 19471798 19468610 
2509.605 19465524 19461124 19454228 19444420 19432224 19418746 19404366 
2512.981 19389122 19372526 19354616 19335906 19317964 19302860 19292086 
2516.356 19285298 19281662 19278406 19273798 19266004 19255510 19243526 
2519.731 19231786 19221256 19212424 19204458 19197360 19190918 19185620 
2523.106 19182364 19181290 19181290 19180114 19175022 19163942 19146522 
2526.482 19124154 19099640 19075542 19053836 19034796 19017070 18999486 
2529.857 18980724 18960820 18940678 18921054 18902330 18883572 18863294 
2533.232 18839936 18812636 18781980 18749528 18717112 18686464 18658446 
2536.607 18632678 18608746 18586196 18564722 18544526 18525474 18507390 
2539.983 18489686 18472158 18454906 18438796 18425242 18415012 18408340 
2543.358 18403950 18399766 18393646 18384142 18371456 18356766 18342042 
2546.733 18328838 18317744 18308240 18299738 18292066 18285948 18282942 
2550.108 18284774 18291962 18303988 18318710 18333608 18346880 18358460 
2553.484 18369314 18381480 18396760 18415772 18437690 18460610 18482806 
2556.859 18503136 18521844 18539788 18557978 18576930 18596434 18616076 
2560.234 18635204 18654088 18673250 18693036 18713134 18732230 18748490 
2563.609 18760322 18767484 18771220 18773952 18779142 18788484 18802982 
2566.985 18821388 18842184 18863916 18886098 18909320 18934828 18962968 
2570.360 18993012 19022644 19049300 19070974 19087280 19099502 19109682 
2573.735 19120416 19132776 19146626 19160548 19173152 19183402 19191508 
2577.110 19198674 19206018 19214226 19223194 19231818 19238886 19243178 
2580.486 19244114 19241518 19235352 19225930 19213048 19197740 19180944 
2583.861 19165120 19152410 19144688 19142438 19145138 19150990 19157776 
2587.236 19164772 19172114 19181186 19193654 19210692 19231922 19255856 
2590.611 19280102 19302722 19323054 19341486 19359224 19377412 19396502 
2593.987 19415834 19434374 19450764 19464868 19476890 19487772 19498446 
2597.362 19509156 19519380 19528146 19534524 19537714 19538094 19536152 
2600.737 19532584 19527696 19521562 19514180 19505828 19497164 19489228 
2604.112 19482922 19478728 19476164 19474466 19472628 19470100 19466842 
2607.488 19463306 19459600 19455476 19450070 19442342 19431532 19417950 
2610.863 19402772 19388430 19376858 19369582 19366464 19366222 19367052 
2614.238 19367226 19365598 19362270 19357802 19352848 19347722 19342456 
2617.613 19336600 19330262 19323852 19317860 19313078 19309960 19307952 
2620.989 19306324 19303968 19299984 19293854 19285470 19275046 19262610 
2624.364 19248202 19231854 19213948 19195696 19178694 19164358 19153934 
2627.739 19147770 19144792 19143648 19142644 19140984 19138628 19136066 
2631.114 19133780 19132430 19131736 19131564 19131842 19133054 19136308 
2634.490 19143130 19154454 19170520 19190504 19212840 19236044 19259148 
2637.865 19282008 19305180 19329222 19354302 19379976 19405268 19429070 
2641.240 19450728 19470620 19489020 19506936 19524716 19542046 19558302 
2644.615 19573204 19586724 19599792 19613690 19629604 19647872 19667842 
2647.990 19688192 19707504 19724252 19738572 19750950 19762256 19773628 
2651.366 19785072 19796206 19806332 19814516 19820620 19824574 19826828 
2654.741 19827764 19827556 19826272 19823914 19820932 19818088 19816736 
2658.116 19818088 19822978 19832030 19844760 19860574 19878820 19899076 
2661.491 19920894 19944276 19968630 19993852 20019286 20044788 20070224 
2664.867 20095834 20121862 20148412 20174860 20200616 20224568 20245986 
2668.242 20264662 20280946 20295458 20308790 20321220 20332262 20341290 
2671.617 20347574 20351046 20352192 20352264 20352540 20354346 20358756 
2674.992 20365944 20376186 20389348 20405462 20424320 20445436 20468394 
2678.368 20492292 20516364 20540192 20563920 20587926 20612560 20638376 
2681.743 20665132 20692550 20720178 20747912 20776168 20805748 20837242 
2685.118 20871068 20906494 20942482 20977462 21010360 21040858 21069518 
2688.493 21097448 21126250 21157210 21190990 21228254 21269312 21314516 
2691.869 21364282 21418966 21478180 21541302 21607220 21674992 21744414 
2695.244 21815726 21890258 21969542 22054452 22144960 22239950 22337890 
2698.619 22436828 22535614 22633762 22731232 22828026 22923934 23017624 
2701.994 23107006 23190110 23265018 23330358 23385532 23430678 23465826 
2705.370 23491532 23507900 23516120 23516854 23511782 23502270 23489328 
2708.745 23473974 23456382 23436972 23416060 23394624 23373994 23355532 
2712.120 23340322 23328506 23319764 23313332 23308122 23304242 23301830 
2715.495 23301970 23305500 23313226 23324870 23340182 23358538 23379974 
2718.871 23404486 23432462 23464076 23498946 23536234 23574396 23612530 
2722.246 23649442 23685026 23719108 23751794 23782592 23810870 23835582 
2725.621 23855676 23870834 23881300 23888090 23892118 23894218 23894952 
2728.996 23894358 23892748 23890438 23888266 23887286 23888302 23891802 
2732.372 23897718 23905316 23913788 23922294 23930206 23937210 23943232 
2735.747 23948240 23951774 23953806 23954612 23954890 23955836 23959338 
2739.122 23966376 23978104 23994632 24015642 24040752 24069294 24100990 
2742.497 24135456 24172938 24213154 24255828 24301132 24349106 24399926 
2745.873 24454148 24511674 24571978 24634256 24697136 24758974 24819310 
2749.248 24877940 24935906 24994726 25056114 25121338 25191312 25266426 
2752.623 25346820 25432360 25523010 25618144 25717166 25818916 25922028 
2755.998 26025482 26128466 26231404 26334686 26439364 26546252 26655102 
2759.374 26765602 26876836 26987778 27097552 27205978 27312842 27418426 
2762.749 27522414 27624554 27724810 27823076 27919314 28013880 28107050 
2766.124 28198580 28287866 28374056 28456194 28533644 28606470 28675310 
2769.499 28741116 28804238 28865212 28923362 28978154 29028986 29075712 
2772.875 29118830 29158872 29197106 29234636 29272312 29311480 29353276 
2776.250 29399186 29450670 29508614 29573304 29644176 29719852 29799228 
2779.625 29881284 29966300 30055096 30149276 30250224 30358586 30473836 
2783.000 30595016 30720498 30849076 30979900 31113110 31248820 31387634 
2786.375 31529448 31673628 31819246 31964626 32108306 32248754 32384784 
2789.751 32515570 32640714 32760930 32877032 32990522 33102966 33215728 
2793.126 33329662 33444666 33560236 33675476 33789748 33902832 34014508 
2796.501 34125072 34234260 34341684 34446588 34548184 34646032 34740456 
2799.876 34832068 34922080 35011572 35101084 35190648 35279228 35365776 
2803.252 35448924 35527664 35601352 35669872 35732896 35790928 35844360 
2806.627 35893628 35939660 35982780 36023492 36060756 36094344 36122972 
2810.002 36146088 36164024 36178212 36190996 36205260 36223376 36246820 
2813.377 36275888 36309928 36347396 36386812 36427020 36467200 36506984 
2816.753 36546524 36585380 36623480 36660324 36695836 36729264 36760528 
2820.128 36789124 36814548 36836044 36853212 36865584 36873088 36876368 
2823.503 36876152 36873196 36868760 36863276 36857864 36853068 36850256 
2826.878 36850544 36855124 36865044 36880916 36903168 36931776 36966988 
2830.254 37008984 37058672 37116736 37183800 37260620 37347524 37444992 
2833.629 37553504 37674256 37808924 37959504 38128120 38316124 38524736 
2837.004 38754136 39003844 39273208 39561620 39868632 40194392 40539536 
2840.379 40905052 41292004 41701480 42134272 42590920 43071428 43575360 
2843.755 44101264 44647264 45209688 45783300 46360584 46930176 47478048 
2847.130 47987456 48438156 48810196 49084900 49245896 49282640 49191124 
2850.505 48974208 48640940 48205692 47687596 47105560 46479676 45828660 
2853.880 45167184 44507376 43857736 43222932 42605500 42005884 41423532 
2857.256 40857252 40306284 39769812 39247604 38739464 38246352 37769776 
2860.631 37312464 36877632 36469108 36090136 35742860 35428612 35147212 
2864.006 34897732 34678940 34489708 34328920 34195472 34088260 34005368 
2867.381 33944960 33904696 33882268 33876068 33884488 33906340 33940056 
2870.757 33983660 34034220 34088368 34142524 34193496 34238812 34277676 
2874.132 34310092 34337668 34362700 34387984 34415668 34447484 34484288 
2877.507 34526372 34573188 34624140 34678476 34736040 34796384 34859244 
2880.882 34924236 34990560 35057116 35122928 35186804 35248860 35309020 
2884.258 35368112 35426852 35485888 35545176 35604696 35663720 35721704 
2887.633 35778260 35833240 35886680 35938472 35988648 36036924 36083220 
2891.008 36127724 36170652 36212496 36253412 36293288 36331540 36367068 
2894.383 36399168 36427708 36452532 36475016 36496676 36519096 36543532 
2897.759 36570564 36600048 36632100 36666128 36702256 36740912 36782740 
2901.134 36828760 36880048 36937440 37001660 37073396 37153372 37242312 
2904.509 37341712 37452904 37578580 37721816 37887048 38079468 38305232 
2907.884 38570940 38882980 39247244 39668552 40149724 40691216 41289820 
2911.260 41938476 42625388 43335240 44049188 44746352 45407000 46012220 
2914.635 46546504 46999028 47362780 47635348 47817860 47914748 47932728 
2918.010 47880084 47766704 47602292 47396556 47158188 46894148 46609796 
2921.385 46308564 45992364 45661632 45315708 44952968 44571040 44167248 
2924.760 43739060 43284936 42804632 42299984 41774432 41232944 40681028 
2928.136 40124868 39570112 39022620 38488528 37974080 37486168 37031824 
2931.511 36616956 36246532 35923608 35649004 35421712 35238836 35096416 
2934.886 34989808 34913604 34862440 34830776 34813720 34806544 34805500 
2938.261 34807080 34809340 34810204 34808408 34803452 34795340 34784752 
2941.637 34772976 34761384 34751368 34744188 34740888 34742072 34748712 
2945.012 34762064 34783708 34815804 34860788 34921040 34998752 35095768 
2948.387 35213468 35351936 35510012 35684364 35868684 36054024 36229496 
2951.762 36382452 36500752 36574780 36597492 36565808 36480172 36343936 
2955.138 36162148 35940556 35685696 35403628 35100508 34782740 34456168 
2958.513 34126680 33799704 33479414 33169482 32872602 32590602 32324776 
2961.888 32075558 31842954 31626194 31424288 31236214 31060932 30897708 
2965.263 30745822 30604118 30471312 30345510 30224362 30105842 29988488 
2968.639 29871700 29756008 29642474 29532802 29428226 29329880 29238428 
2972.014 29154192 29077484 29008760 28948898 28898750 28859266 28831432 
2975.389 28816170 28814224 28826016 28851544 28890074 28940682 29001568 
2978.764 29071462 29148914 29233184 29324028 29421878 29526560 29638112 
2982.140 29755122 29875996 29998500 30120330 30239388 30353968 30462426 
2985.515 30563304 30654820 30734866 30801448 30853026 30888494 30908096 
2988.890 30912438 30903010 30881058 30847442 30802870 30747030 30679710 
2992.265 30601346 30512932 30417078 30317370 30217932 30123244 30036740 
2995.641 29960728 29895872 29841496 29796390 29759486 29730318 29709916 
2999.016 29699876 29702218 29718148 29747456 29789044 29840362 29898676 
3002.391 29961720 30027970 30097070 30168988 30243828 30321206 30400482 
3005.766 30480658 30561278 30642376 30724624 30808988 30896036 30985558 
3009.142 31076414 31167184 31256262 31343042 31427670 31511280 31595226 
3012.517 31680434 31767018 31854186 31940802 32025584 32108306 32189160 
3015.892 32269560 32351084 32435406 32523390 32615568 32711734 32811418 
3019.267 32913812 33018336 33124030 33230428 33336780 33443056 33549030 
3022.643 33654636 33759844 33864428 33967532 34068512 34166324 34260576 
3026.018 34351584 34440492 34528596 34617288 34707076 34797816 34888396 
3029.393 34977740 35064948 35150664 35236356 35324188 35416028 35513032 
3032.768 35614660 35719728 35825576 35930228 36032712 36133340 36233784 
3036.144 36336476 36444316 36558960 36681996 36813792 36954072 37102192 
3039.519 37257188 37418052 37583204 37751164 37920092 38088184 38253516 
3042.894 38414604 38569308 38715592 38851088 38973292 39079900 39169564 
3046.269 39242092 39299508 39344668 39382292 39416792 39452024 39491140 
3049.645 39535124 39584448 39638640 39697380 39760412 39827520 39898412 
3053.020 39972624 40048848 40125776 40201848 40275964 40347984 40418424 
3056.395 40488104 40558272 40629104 40700640 40771860 40841636 40909056 
3059.770 40973572 41035040 41094332 41152032 41209044 41265880 41323232 
3063.146 41381508 41441212 41502672 41565788 41630184 41694736 41757548 
3066.521 41816972 41871408 41920160 41963332 42001800 42037348 42071148 
3069.896 42104552 42138544 42173556 42209964 42248160 42289028 42333112 
3073.271 42380928 42433204 42489876 42550608 42615300 42683396 42754868 
3076.646 42829096 42905640 42983512 43061768 43138828 43213708 43285892 
3080.022 43355484 43422928 43489508 43555692 43621520 43685820 43746280 
3083.397 43799932 43843328 43873972 43890468 43893620 43885628 43870816 
3086.772 43854176 43840248 43832884 43834020 43843876 43861144 43883944 
3090.147 43910592 43940212 43973212 44010540 44053844 44104384 44162628 
3093.523 44228252 44300236 44377372 44458776 44543940 44632760 44725268 
3096.898 44820884 44918168 45015080 45108988 45196932 45276688 45347044 
3100.273 45407960 45460600 45507068 45549936 45591852 45635060 45681584 
3103.648 45732864 45790296 45854656 45926984 46007504 46096104 46192536 
3107.024 46295700 46404748 46519320 46639900 46768444 46908692 47065860 
3110.399 47246876 47459160 47710748 48009440 48362740 48777308 49259296 
3113.774 49813164 50441972 51146352 51924236 52769064 53670500 54612208 
3117.149 55570648 56516264 57412848 58216332 58882480 59366704 59628932 
3120.525 59641324 59389004 58873448 58111892 57136004 55988276 54713592 
3123.900 53360136 51971960 50585648 49232800 47937872 46718112 45586108 
3127.275 44548968 43608920 42763900 42008220 41334860 40734956 40200212 
3130.650 39722976 39296388 38914576 38572208 38264300 37987024 37736492 
3134.026 37509540 37303616 37116088 36944584 36786492 36639308 36500676 
3137.401 36368292 36240412 36115012 35990376 35864872 35736996 35606172 
3140.776 35472580 35337740 35203584 35072884 34947860 34829700 34718492 
3144.151 34613196 34511624 34411832 34311456 34209128 34103992 33995768 
3147.527 33884844 33772092 33658792 33546168 33435326 33326552 33219266 
3150.902 33112120 33003390 32891080 32774114 32652610 32527674 32400704 
3154.277 32273736 32147802 32023550 31900898 31779352 31658840 31539354 
3157.652 31420690 31302982 31186016 31069154 30951718 30833640 30714986 
3161.028 30596760 30480340 30367150 30258074 30153110 30051440 29952100 
3164.403 29853422 29754412 29654392 29552804 29449288 29343846 29236232 
3167.778 29126838 29016232 28905478 28795918 28688866 28585166 28485170 
3171.153 28388982 28296070 28206042 28118682 28033956 27951436 27871016 
3174.529 27791672 27712660 27632992 27551892 27468794 27383804 27297246 
3177.904 27209610 27121606 27033934 26947408 26863158 26781918 26704182 
3181.279 26630406 26559846 26491448 26423940 26355740 26285506 26212752 
3184.654 26137546 26060628 25983020 25905708 25829958 25756258 25684754 
3188.030 25615330 25546976 25478526 25408892 25337056 25262562 25185730 
3191.405 25107578 25028946 24951138 24874430 24798752 24722950 24646178 
3194.780 24567350 24486084 24402658 24318234 24233998 24151534 24071850 
3198.155 23995404 23922366 23851964 23783396 23715714 23648112 23580414 
3201.531 23513042 23446976 23383540 23323576 23267570 23214962 23164282 
3204.906 23113608 23061264 23006166 22948176 22888132 22827048 22766114 
3208.281 22705744 22646050 22586572 22527310 22468372 22411080 22356098 
3211.656 22304194 22255678 22209574 22164590 22119820 22074498 22028936 
3215.031 21983868 21940266 21898726 21859142 21820814 21782560 21743820 
3218.407 21704390 21664648 21625538 21587578 21550948 21515188 21479468 
3221.782 21442774 21404904 21366268 21327706 21290678 21256646 21226202 
3225.157 21199758 21176412 21154740 21132824 21108614 21080752 21048720 
3228.532 21013244 20976106 20940360 20908928 20883340 20864288 20849862 
3231.908 20836928 20821600 20800952 20773248 20739084 20700370 20660162 
3235.283 20621282 20585598 20553914 20525812 20500524 20476940 20454570 
3238.658 20433316 20413416 20395044 20378548 20363896 20351046 20339518 
3242.033 20329102 20319206 20309346 20298826 20287646 20275702 20263448 
3245.409 20251262 20239390 20227378 20214570 20199920 20182774 20163302 
3248.784 20142650 20122036 20103712 20088304 20075672 20064566 20053012 
3252.159 20039236 20022374 20002560 19981224 19959472 19938484 19918188 
3255.534 19898034 19876912 19854194 19829950 19804978 19780460 19757644 
3258.910 19737116 19719016 19702754 19687880 19674222 19662364 19652448 
3262.285 19645238 19640558 19637542 19635392 19632828 19629012 19623746 
3265.660 19617470 19611092 19605718 19602494 19602114 19604644 19609116 
3269.035 19614038 19617088 19615666 19607556 19591958 19569392 19541700 
3272.411 19511894 19483024 19457244 19435100 19415454 19396778 19377100 
3275.786 19355586 19332514 19309338 19287688 19268152 19250730 19233966 
3279.161 19215956 19195144 19171074 19144446 19116954 19090672 19066922 
3282.536 19046634 19029672 19015442 19003154 18992356 18982628 18973906 
3285.912 18965804 18958226 18951060 18944346 18938738 18935104 18933754 
3289.287 18934758 18937044 18938808 18937944 18932750 18922576 18908040 
3292.662 18890596 18872290 18854332 18837444 18820940 18803224 18782914 
3296.037 18758800 18731018 18700336 18668338 18637174 18608260 18582946 
3299.413 18562440 18547086 18537404 18533670 18536158 18544596 18558428 
3302.788 18576134 18595500 18613656 18627628 18633958 18630534 18615696 
3306.163 18589380 18552582 18507666 18457222 18404434 18352030 18301674 
3309.538 18254812 18211998 18173266 18138544 18107454 18079992 18055710 
3312.914 18034812 18017302 18003418 17993300 17987118 17984596 17985356 
3316.289 17988808 17994230 18000828 18008220 18016162 18024866 18034674 
3319.664 18045900 18058818 18073808 18091184 18111496 18135092 18162624 
3323.039 18193582 18227202 18261482 18294416 18323654 18347606 18365926 
3326.415 18379164 18389050 18397726 18406990 18418640 18433298 18451206 
3329.790 18472296 18496084 18521878 18548884 18575822 18601344 18623686 
3333.165 18641602 18654366 18661906 18664984 18664604 18661974 18657444 
3336.540 18650870 18641050 18626764 18606566 18579626 18545806 18505350 
3339.916 18459090 18407994 18352720 18293552 18230554 18164006 18094500 
3343.291 18022552 17949682 17877204 17806362 17738258 17673408 17611778 
3346.666 17553054 17497132 17443286 17390794 17338824 17285860 17230006 
3350.041 17169714 17103364 17031062 16953880 16874474 16795908 16721487 
3353.417 16653346 16592342 16537817 16488083 16441589 16396889 16353399 
3356.792 16311014 16269870 16229386 16188800 16146775 16102105 16054690 
3360.167 16005596 15956851 15910791 15869377 15832985 15801094 15771924 
3363.542 15743749 15715199 15686547 15658449 15632514 15609640 15589204 
3366.917 15569936 15548953 15523335 15490714 15449373 15399317 15341509 
3370.293 15277875 15210612 15142674 15076770 15015197 14960012 14912242 
3373.668 14872191 14838967 14811128 14786891 14764745 14743800 14723371 
3377.043 14703011 14682926 14662260 14640532 14616749 14590466 14561753 
3380.418 14530950 14498883 14466715 14435030 14404065 14374061 14345123 
3383.794 14317075 14290433 14265883 14244140 14225960 14212025 14202713 
3387.169 14198229 14198503 14203261 14211341 14221098 14230034 14235239 
3390.544 14233903 14224009 14204357 14175634 14139417 14098547 14055868 
3393.919 14014048 13975004 13939966 13909550 13883995 13863709 13848794 
3397.295 13839728 13836444 13837779 13842260 13846673 13847665 13841713 
3400.670 13825807 13799093 13762086 13717662 13669275 13621030 13576074 
3404.045 13536179 13501588 13471613 13445091 13420861 13398684 13378625 
3407.420 13361198 13346368 13333556 13321803 13309640 13295974 13280566 
3410.796 13263451 13245482 13227378 13209103 13190692 13171805 13152201 
3414.171 13132256 13112961 13095204 13080247 13068022 13057983 13048491 
3417.546 13037804 13024284 13007280 12986626 12963547 12938901 12914084 
3420.921 12889850 12866811 12845446 12825788 12807633 12790980 12774771 
3424.297 12758324 12740547 12721031 12699946 12678111 12656892 12637856 
3427.672 12621415 12607634 12594843 12581267 12564965 12544570 12520219 
3431.047 12492699 12463952 12436095 12410795 12389146 12371486 12357134 
3434.422 12344793 12333135 12320352 12305183 12286982 12265577 12241345 
3437.798 12215682 12189885 12165214 12142622 12121974 12102792 12084122 
3441.173 12064635 12043991 12021712 11998209 11973719 11948481 11922325 
3444.548 11894467 11863684 11829838 11792386 11752349 11711125 11670756 
3447.923 11633896 11601701 11575294 11554367 11538170 11524900 11512583 
3451.299 11499722 11484820 11467163 11446412 11423585 11399502 11375453 
3454.674 11352495 11331375 11312160 11294917 11278492 11262374 11245508 
3458.049 11227044 11206542 11183796 11158979 11132427 11104927 11077055 
3461.424 11049660 11023591 10999292 10977067 10956882 10938092 10920151 
3464.800 10901838 10882641 10861985 10839937 10817109 10794451 10773052 
3468.175 10753523 10735657 10719151 10702442 10684308 10663117 10638635 
3471.550 10610690 10579997 10547677 10514782 10482195 10450187 10419438 
3474.925 10390116 10362900 10338570 10317736 10300873 10287471 10276512 
3478.301 10265893 10253577 10237429 10216024 10189022 10157308 10122746 
3481.676 10087646 10054514 10025386 10001143 9981817 9966357 9952626 9938387 
3485.533 9921505 9900556 9875472 9846492 9815581 9784369 9754920 9728320 
3489.391 9705211 9685255 9668179 9652696 9638399 9624341 9609943 9594631 
3493.248 9578135 9560149 9540775 9520385 9499862 9480050 9462204 9447169 
3497.105 9435317 9426749 9420858 9416761 9413646 9410090 9405146 9397596 
3500.963 9386119 9370002 9349045 9323485 9294914 9265363 9237101 9212969 
3504.820 9194355 9181664 9173745 9168838 9163864 9156182 9144338 9127859 
3508.678 9107827 9087323 9069154 9056162 9049701 9049498 9053727 9059512 
3512.535 9063910 9064925 9061779 9055148 9046385 9037725 9030721 9026425 
3516.393 9025105 9026628 9030451 9036202 9043712 9052780 9063132 9074229 
3520.250 9085123 9095375 9103801 9110365 9115170 9118791 9121903 9124983 
3524.107 9127994 9130532 9132055 9132191 9130566 9127656 9124103 9120990 
3527.965 9119535 9120990 9125423 9133645 9145353 9160311 9178043 9197807 
3531.822 9218859 9240181 9260693 9278869 9293425 9303377 9308117 9307880 
3535.680 9303716 9297115 9289972 9284353 9281611 9282255 9287196 9296201 
3539.537 9309335 9326126 9346439 9369629 9394414 9418860 9440396 9456481 
3543.395 9464473 9462271 9449200 9425395 9392518 9353209 9311299 9271016 
3547.252 9236085 9210093 9194694 9189786 9192798 9199331 9204407 9202546 
3551.109 9190023 9165217 9129415 9085733 9038875 8993577 8952986 8918623 
3554.967 8890620 8867284 8846927 8827247 8806789 8784439 8759589 8732779 
3558.824 8704687 8677204 8651886 8630153 8613490 8602168 8596051 8593956 
3562.682 8594429 8595071 8593280 8585304 8567224 8534512 8483862 8413758 
3566.539 8327014 8229717 8131632 8042785 7971098 7920817 7890955 7877560 
3570.396 7874692 7876278 7877459 7874692 7866459 7852491 7833261 7809578 
3574.254 7782826 7754255 7726024 7699716 7677086 7658807 7644475 7632301 
3578.111 7620128 7605898 7588331 7567629 7545612 7524541 7507280 7496223 
3581.969 7492380 7495717 7505257 7519046 7533880 7545949 7551243 7544769 
3585.826 7522586 7482604 7425672 7356514 7283290 7215805 7162815 7129771 
3589.684 7117983 7124685 7144524 7170697 7196939 7217860 7229955 7231774 
3593.541 7223857 7207989 7186766 7163051 7139371 7117680 7099256 7084134 
3597.398 7071841 7061233 7050153 7036716 7019475 6998059 6973513 6948429 
3601.256 6925872 6909005 6899882 6898838 6904696 6915098 6926915 6937049 
3605.113 6942268 6940147 6927656 6903787 6867834 6821518 6768811 6716011 
3608.971 6669643 6635055 6613793 6603599 6598957 6592700 6578503 6553712 
3612.828 6519604 6482170 6448774 6426915 6420022 6427722 6444369 6462058 
3616.686 6471609 6464580 6434448 6379300 6301366 6207884 6108944 6016377 
3620.543 5939784 5885774 5856320 5849906 5862097 5888159 5923560 5965817 
3624.400 6013151 6064389 6116606 6163419 6195011 6197767 6157974 6067681 
3628.258 5930480 5765989 5603876 5475680 5400155 5378550 5397807 5439006 
3632.115 5483062 5514906 5527289 5519940 5499034 5472962 5450112 5435383 
3635.973 5429142 5429444 5432027 5433906 5432531 5427465 5418708 5406362 
3639.830 5390728 5372143 5352082 5332761 5318304 5313541 5322497 5347152 
3643.688 5387105 5438436 5495477 5550311 5595519 5624485 5632407 5616866 
3647.545 5577999 5517927 5440415 5350707 5255920 5164708 5087427 5033322 
3651.402 5008652 5014584 5047065 5096512 5150256 5194752 5218460 5213329 
3655.260 5178891 5123098 5061278 5010059 4982776 4984955 5013311 5058228 
3659.117 5107743 5151665 5182312 5196764 5196831 5187174 5174599 5165244 
3662.975 5164372 5175303 5199581 5237341 5288016 5350305 5422029 5499738 
3666.832 5579207 5654192 5718615 5768440 5805175 5837917 5886177 5974955 
3670.689 6126351 6352637 6651911 7008767 7397259 7784007 8133321 8402036 
3674.547 8549786 8548536 8394502 8114618 7754154 7360153 6964287 6582977 
3678.404 6223715 5892256 5596794 5348762 5156962 5024472 4946043 4910387 
3682.262 4903651 4913704 4934147 4962432 4998965 5043344 5091483 5135303 
3686.119 5164674 5169167 5141740 5081996 4997289 4900032 4803802 4719551 
3689.977 4652129 4602130 4567974 4549023 4544770 4555451 4579728 4613783 
3693.834 4651861 4688066 4717072 4736266 4746449 4751574 4756934 4767219 
3697.691 4784605 4808325 4834592 4857309 4870041 4868232 4849368 4815595 
3701.549 4772444 4728796 4693659 4674166 4674200 4694530 4731677 4780920 
3705.406 4837138 4894804 4950099 5000373 5043244 5077034 5099864 5109620 
3709.264 5103720 5080051 5037981 4978687 4906332 4828863 4755460 4695870 
3713.121 4657655 4644728 4656315 4688166 4732816 4782930 4830672 4870745 
3716.979 4900535 4920373 4932672 4941017 4948021 4954523 4959818 4962331 
3720.836 4961225 4956768 4951741 4949562 4953182 4963270 4977614 4991189 
3724.693 4998361 4995010 4980162 4957773 4935052 4922082 4926204 4951674 
3728.551 4996551 5054675 5116225 5170274 5208433 5225972 5223491 5206388 
3732.408 5182647 5158203 5134363 5106436 5066776 5009087 4933007 4846554 
3736.266 4764070 4701966 4671051 4673362 4704612 4756499 4821525 4895274 
3740.123 4976743 5065301 5157868 5245758 5313340 5339805 5306095 5204041 
3743.980 5048641 4877715 4742798 4681769 4703373 4790032 4910621 5032718 
3747.838 5128194 5180333 5182982 5141841 5069827 4981637 4889711 4801356 
3751.695 4721896 4658023 4617869 4609196 4634546 4689607 4763366 4840958 
3755.553 4909180 4957505 4982173 4985055 4971783 4949060 4921445 4891219 
3759.410 4860090 4831342 4810971 4806549 4823134 4860861 4913470 4969135 
3763.268 5014517 5039456 5039992 5020718 4992965 4970409 4963304 4973224 
3767.125 4993837 5013445 5020249 5005702 4968632 4914743 4855432 4802529 
3770.982 4764974 4746516 4746215 4759782 4781925 4808057 4835095 4861598 
3774.840 4887600 4913436 4939475 4965013 4987435 5002652 5006339 4995580 
3778.697 4970442 4935889 4900736 4874934 4866021 4876509 4902646 4936794 
3782.555 4969001 4991055 4998797 4992328 4975905 4955662 4937129 4923490 
3786.412 4915280 4911559 4910956 4913001 4917860 4925500 4935520 4946748 
3790.270 4957639 4967593 4977246 4988608 5004361 5025813 5051591 5077705 
3794.127 5098390 5108514 5105698 5092690 5076532 5067581 5074118 5099395 
3797.984 5139427 5184491 5219969 5230399 5204477 5138287 5039892 4929086 
3801.842 4833218 4776331 4769832 4810435 4882272 4964041 5031981 5066944 
3805.699 5057491 5004327 4920775 4830303 4757604 4718915 4717240 4745109 
3809.557 4789898 4839752 4887433 4932404 4977849 5028562 5085751 5145730 
3813.414 5198374 5231204 5231941 5195322 5127591 5047200 4979223 4945340 
3817.271 4955461 5004763 5076833 5147909 5195188 5199681 5152302 5059133 
3821.129 4941385 4830203 4752513 4723269 4740788 4791674 4856036 4915179 
3824.986 4956634 4974699 4972654 4960287 4949998 4951841 4970073 5002049 
3828.844 5040730 5077303 5104156 5117600 5118103 5110056 5099529 5093025 
3832.701 5095339 5108715 5133056 5165311 5200117 5230499 5248374 5246194 
3836.559 5219734 5169167 5100971 5026718 4959684 4909716 4881367 4872923 
3840.416 4878586 4889979 4900903 4906634 4905159 4897519 4885891 4873694 
3844.273 4864949 4863072 4871717 4892894 4927478 4974665 5032685 5099227 
3848.131 5172688 5252164 5337189 5426056 5514638 5593136 5647110 5657750 
3851.988 5606964 5484840 5300628 5085818 4884551 4735797 4658860 4649014 
3855.846 4688334 4754623 4831007 4905561 4972419 5029701 5077772 5116930 
3859.703 5147943 5170643 5186402 5196462 5202867 5206455 5206220 5199614 
3863.561 5184960 5162729 5138957 5123266 5126551 5155654 5209205 5276747 
3867.418 5340845 5382308 5385125 5342925 5263097 5167021 5081862 5028361 
3871.275 5014015 5030841 5062619 5090779 5102144 5093025 5069324 5044183 
3875.133 5031679 5042507 5078610 5134632 5199212 5259508 5302741 5319445 
3878.990 5305726 5264774 5207360 5148412 5104324 5087427 5101340 5141204 
3882.848 5193679 5242841 5271347 5267457 5228521 5163199 5091081 5033858 
3886.705 5009724 5025645 5075257 5143819 5213329 5266686 5290901 5280537 
3890.563 5238716 5176544 5109084 5051322 5013881 5000875 5011065 5039758 
3894.420 5081694 5131547 5184759 5238045 5287513 5329943 5361676 5379993 
3898.277 5383851 5374390 5355102 5330883 5306129 5283522 5262695 5240325 
3902.135 5211854 5173996 5126283 5072710 5020014 4976944 4950836 4944904 
3905.992 4958410 4987066 5025210 5067179 5108548 5146937 5180635 5209473 
3909.850 5232981 5251359 5264875 5274970 5283455 5292947 5304955 5320115 
3913.707 5336753 5351982 5361408 5362247 5353089 5335210 5312132 5287949 
3917.564 5266719 5250554 5239621 5232880 5229795 5230030 5234356 5243243 
3921.422 5256222 5271079 5284394 5291739 5290196 5279162 5261655 5242841 
3925.279 5229125 5226073 5235798 5257027 5285602 5316526 5344803 5366943 
3929.137 5381335 5388011 5387843 5381838 5371069 5356880 5340912 5325751 
3932.994 5314380 5309046 5310958 5319713 5332828 5347152 5359530 5367849 
3936.852 5372076 5373652 5375196 5379188 5386937 5397505 5408542 5416158 
3940.709 5416795 5407905 5389755 5364998 5338631 5316292 5303344 5302842 
3944.566 5314581 5335679 5361072 5384924 5401866 5408576 5404215 5390896 
3948.424 5372109 5352452 5335914 5324644 5319277 5318841 5322195 5327763 
3952.281 5334506 5342422 5351311 5360938 5370902 5380194 5388380 5394653 
3956.139 5399450 5403375 5407402 5412132 5418104 5424478 5430551 5435383 
3959.996 5438000 5437865 5435584 5431558 5426558 5421224 5416427 5412535 
3963.854 5410253 5409952 5411897 5416057 5421996 5428840 5435986 5442563 
3967.711 5447964 5452159 5454943 5456487 5456923 5456520 5455447 5454440 
3971.568 5454507 5456554 5461419 5469271 5479572 5491215 5502021 5510745 
3975.426 5516081 5517725 5516316 5513094 5509403 5506618 5505309 5506081 
3979.283 5508363 5511719 5515309 5518732 5521652 5524168 5526283 5529068 
3983.141 5532860 5538464 5545445 5553466 5561755 5569373 5575717 5580953 
3986.998 5585786 5591525 5599211 5609515 5622069 5635529 5648049 5657885 
3990.855 5663558 5664666 5661946 5656744 5650500 5644793 5640967 5639758 
3994.713 5641873 5647445 5656307 5667888 5680679 5693435 5704111 5711430 
3998.570 5714284 5712538 5706864 5698135 5687594 
##END=
