##TITLE=966_1_b
##JCAMP-DX=5.01  $$ Nicolet v. 1
##DATATYPE=INFRARED SPECTRUM
##ORIGIN=UniL
##OWNER=Nicolet
##LONGDATE=2011/09/29
##TIME=10:00:10
##SPECTROMETER/DATA SYSTEM=Nicolet iS5
##DATA PROCESSING=
Ratio against background
%Transmittance->Absorbance
Truncated
ElementMultiply or ElementDivide
##COMMENTS=
Number of sample scans: 32
Collection length: 51.18 sec
Sample gain: 2.0
Background collected on: Jeu Sep 29 09:56:32 2011 (GMT+02:00);
Number of background scans: 32
Background gain: 2.0
Sample spacing:  1.000
Number of scan points: 12415
Resolution points: 8192
Number of FFT points: 65536
Apodization: N-B fort;
Phase correction: Mertz;
Laser frequency: 15798.0 cm-1
Number of rejected sample scans: 0
Number of rejected background scans: 0
Bench serial number: ASB1000141;
##RESOLUTION=4.000
##XUNITS=1/CM
##YUNITS=ABSORBANCE
##FIRSTX=649.893372
##LASTX=4000.122314
##FIRSTY=0.060671
##MAXX=4000.122314
##MINX=649.893372
##MAXY=0.259640
##MINY=0.001170
##XFACTOR=1.000000
##YFACTOR=1.000000E-009
##NPOINTS=6950
##DELTAX=0.482117
##ZPD=6100
##XYDATA=(X++(Y..Y))
649.893 60670608 61196040 61780212 62440528 63184424 64006120 64886884 
653.268 65804140 66743308 67702744 68695368 69743704 70874120 72106824 
656.643 73459296 74946616 76582544 78383488 80365208 82536576 84903256 
660.018 87465752 90222304 93166064 96271080 99477280 102666936 105672480 
663.393 108307656 110385408 111768280 112368256 112126136 110997928 
666.285 108955992 106044240 102439432 98501544 94702776 91429000 88855848 
669.660 86937856 85512840 84394152 83435216 82551320 81710576 80921032 
673.035 80209472 79604136 79119768 78755960 78502208 78346544 78282256 
676.410 78310632 78439296 78678312 79035016 79511376 80104344 80807872 
679.785 81617920 82536256 83572800 84743056 86066760 87562984 89247464 
683.159 91135824 93248408 95612520 98270384 101273496 104674304 108523536 
686.534 112863728 117728736 123152248 129165232 135782256 142961952 
689.427 150560448 158269088 165550800 171711456 175934592 177425968 
692.320 175656368 170447808 162074464 151190096 138752288 125841096 
695.212 113419992 102318056 93082056 85951080 80934640 77846568 76405904 
698.587 76295696 77254168 79113960 81795368 85278816 89530048 94404288 
701.962 99597912 104611824 108777784 111440528 112057896 110369344 106475808 
705.337 100818936 94080368 86970072 80152680 74098720 69034528 64999744 
708.712 61888788 59535820 57763364 56428752 55431864 54699424 54177956 
712.086 53822332 53591920 53457592 53402324 53419820 53508560 53663188 
715.461 53869516 54107204 54354336 54596916 54833608 55075176 55337648 
718.836 55633952 55967580 56332360 56717156 57112232 57515532 57934164 
722.211 58380640 58866812 59398652 59973940 60583892 61217100 61860972 
725.586 62504424 63135380 63738668 64298064 64797676 65229624 65599964 
728.961 65932812 66268852 66652320 67124984 67712080 68418104 69229824 
732.335 70126208 71089264 72111480 73199720 74368504 75633192 77000264 
735.710 78465136 80015504 81641632 83344720 85143592 87071200 89167512 
739.085 91468184 93995328 96757000 99752920 102984056 106461112 110209472 
742.460 114265776 118681760 123524632 128883240 134885392 141685136 
745.352 149429344 158193392 167876832 178109248 188129568 196877680 
748.245 203110784 205656864 203862432 197801360 188370784 176987664 
751.138 165344064 155022288 147122464 142279184 140570176 141624768 
754.031 144729136 149006704 153628208 157841648 161116912 163152400 
756.923 163809072 163066096 160948688 157488368 152716976 146690272 
759.816 139532128 131455824 122782912 113938120 105365344 97512520 90769080 
763.191 85386496 81484872 79023968 77830512 77621040 78059360 78830440 
766.566 79643776 80282176 80610048 80552480 80096584 79277424 78173352 
769.940 76891408 75555112 74294424 73213648 72382152 71827064 71537240 
773.315 71479272 71615424 71919376 72378312 72987768 73742592 74628192 
776.690 75620576 76694248 77829528 79020592 80274200 81602160 83010856 
780.065 84493912 86029760 87589776 89147088 90683336 92191112 93669160 
783.440 95113312 96510560 97837016 99059800 100149400 101081848 101843296 
786.815 102427312 102828552 103037104 103038024 102812472 102344472 
789.707 101628696 100670640 99485688 98092976 96511472 94754904 92835152 
793.082 90766512 88568416 86267256 83893552 81472480 79021664 76549536 
796.457 74060088 71562400 69078304 66642008 64298988 62095204 60064600 
799.832 58227056 56586840 55138108 53871580 52777596 51847060 51066700 
803.206 50416928 49873292 49407552 48996204 48624264 48285116 47978316 
806.581 47704532 47461416 47244880 47052016 46888392 46770176 46725604 
809.956 46789516 46993932 47363408 47908348 48623488 49485488 50450720 
813.331 51456780 52412536 53208384 53732216 53876944 53573100 52804088 
816.706 51612840 50093148 48370000 46580436 44837304 43222640 41784944 
820.081 40541428 39492080 38627036 37931844 37386596 36965292 36639416 
823.455 36379712 36163336 35978892 35825036 35706668 35628004 35587540 
826.830 35577148 35586028 35605772 35635628 35681956 35755128 35862608 
830.205 36003948 36170220 36348548 36527636 36702872 36877884 37061704 
833.580 37263180 37485992 37727996 37983336 38247728 38521876 38812032 
836.955 39127288 39475464 39858712 40274256 40716796 41183032 41675480 
840.329 42201892 42771468 43391220 44062680 44781904 45543864 46346828 
843.704 47195012 48098672 49069688 50114344 51230192 52403040 53609840 
847.079 54819928 55997132 57102896 58090564 58908208 59504432 59831120 
850.454 59859188 59587920 59051864 58316856 57469612 56606924 55810664 
853.829 55140740 54630844 54287576 54098876 54040444 54084424 54201116 
857.204 54362340 54546796 54739072 54933620 55133480 55348680 55591544 
860.578 55872156 56196656 56567024 56984404 57450896 57970968 58547208 
863.953 59174188 59831652 60480820 61061592 61506560 61747588 61728644 
867.328 61420484 60823460 59969524 58913784 57731572 56508372 55325156 
870.703 54261936 53385464 52743064 52365996 52266872 52444612 52891276 
874.078 53599080 54565428 55795252 57300320 59096848 61200924 63621684 
877.452 66351460 69351520 72544824 75798704 78919608 81684936 83846616 
880.827 85180120 85539264 84875176 83265008 80891088 78030456 74995488 
884.202 72074000 69523208 67523880 66181368 65544584 65611140 66344200 
887.577 67676224 69516672 71744936 74198624 76688472 78988280 80848176 
890.952 82042808 82382096 81753448 80147024 77658520 74479288 70848064 
894.327 67037560 63296764 59811572 56710208 54047160 51821036 49995772 
897.701 48519656 47340092 46406668 45675876 45108808 44668124 44323608 
901.076 44051280 43834968 43666804 43542064 43456000 43401472 43368372 
904.451 43346952 43331028 43319644 43316568 43327220 43354680 43397520 
907.826 43451200 43509392 43569244 43632472 43705276 43794800 43905572 
911.201 44037236 44184744 44341704 44503156 44668192 44840092 45022832 
914.575 45218992 45427196 45643268 45863236 46086008 46315828 46560112 
917.950 46827492 47122512 47443784 47784272 48134428 48486608 48837888 
921.325 49190864 49552072 49929232 50329376 50758116 51222324 51730552 
924.700 52293112 52919160 53610328 54355088 55123852 55874228 56552116 
928.075 57104220 57491816 57695432 57722000 57601064 57382708 57125984 
931.450 56887924 56722932 56672116 56762388 57008128 57410500 57960784 
934.824 58641140 59428060 60290936 61191120 62086332 62930308 63679272 
938.199 64303136 64790368 65155744 65437140 65694116 65994872 66399216 
941.574 66955716 67689392 68602880 69680336 70891600 72198056 73550184 
944.949 74891296 76157792 77276496 78178072 78801720 79103184 79065784 
948.324 78700632 78046512 77158704 76105952 74961784 73792104 72660312 
951.698 71619760 70709144 69955176 69368232 68944888 68671456 68529976 
955.073 68504064 68581072 68753664 69017160 69366872 69795768 70294928 
958.448 70855040 71469664 72136440 72857688 73637760 74481144 75391232 
961.823 76369872 77420184 78549216 79769496 81099544 82561264 84173840 
965.198 85951848 87900376 90015536 92285520 94695440 97233192 99893480 
968.573 102682632 105617328 108722536 112019552 115514544 119181176 
971.465 122952152 126708120 130276872 133466872 136074848 137926992 
974.358 138922112 139046640 138393552 137140416 135542528 133883416 
977.251 132421624 131385328 130922600 131089480 131845400 133054408 
980.143 134504048 135909376 136975408 137424480 137029728 135668720 
983.036 133328840 130111832 126199440 121831704 117267480 112731064 
985.929 108417624 104469512 100969840 97958856 95435608 93371304 91718168 
989.304 90421704 89429896 88693736 88172904 87834704 87649856 87593592 
992.678 87644272 87782056 87991744 88261496 88581832 88945832 89346400 
996.053 89776840 90231440 90705952 91199008 91712320 92248432 92809464 
999.428 93394552 93999768 94618432 95244008 95872008 96502032 97137288 
1002.803 97783432 98446128 99129064 99834184 100561864 101313080 102089896 
1006.178 102896112 103735552 104611064 105522936 106469160 107446176 
1009.070 108450664 109481096 110537232 111619968 112729520 113864600 
1011.963 115022736 116200552 117396936 118613656 119856840 121135696 
1014.856 122460240 123840776 125285152 126799288 128387824 130054744 
1017.748 131804064 133639632 135564352 137578320 139678224 141856528 
1020.641 144098752 146381232 148670816 150917696 153056256 155011648 
1023.534 156698640 158038832 158976960 159488880 159593952 159351296 
1026.427 158856656 158218816 157543568 156923184 156416640 156047728 
1029.320 155801664 155628112 155441712 155124768 154547568 153566544 
1032.213 152043536 149872944 146985280 143367520 139066352 134190280 
1035.106 128898088 123373744 117827296 112456456 107423944 102857360 
1037.999 98825608 95345104 92390440 89909888 87839848 86115280 84681928 
1041.374 83493760 82511496 81704016 81043680 80507568 80079240 79746520 
1044.750 79501464 79337480 79247240 79221712 79251856 79329840 79451568 
1048.125 79616640 79826272 80080400 80373824 80693584 81020128 81329648 
1051.500 81595368 81794368 81908144 81924672 81840496 81661392 81402936 
1054.875 81089448 80753560 80432840 80161048 79967176 79869600 79874776 
1058.250 79980208 80176712 80452216 80790392 81170200 81564264 81934192 
1061.626 82234840 82418912 82440624 82268272 81887584 81304832 80544304 
1065.001 79644776 78654520 77621320 76593176 75612960 74713624 73919520 
1068.376 73243336 72687144 72245440 71908456 71667592 71516736 71453608 
1071.751 71477672 71587720 71779296 72045256 72375888 72762240 73196736 
1075.127 73674152 74190216 74740384 75318680 75919760 76540448 77183048 
1078.502 77856400 78576336 79363216 80236888 81216176 82317328 83553360 
1081.877 84939432 86492704 88232384 90180952 92359488 94784992 97468056 
1085.252 100410032 103599336 107006784 110585992 114269400 117967568 
1088.146 121584904 125022296 128190680 131027296 133494752 135579520 
1091.039 137281968 138600896 139521392 140013360 140037200 139566176 
1093.932 138609248 137233200 135567888 133789984 132118296 130763624 
1096.825 129901664 129659000 130082680 131138552 132703856 134588160 
1099.718 136536320 138244944 139421168 139788656 139131856 137338096 
1102.611 134396560 130406960 125545832 120054208 114196120 108215136 
1105.504 102342624 96762592 91603752 86951776 82841648 79269040 76202488 
1108.879 73594776 71392920 69541248 67989016 66687248 65587512 64647032 
1112.254 63825740 63089244 62413212 61780552 61181012 60610180 60065744 
1115.630 59547752 59057784 58599768 58180000 57805376 57482360 57213936 
1119.005 56999400 56834592 56713836 56632928 56590088 56585860 56621944 
1122.380 56699184 56815900 56968500 57152180 57363800 57602692 57870864 
1125.755 58172044 58510096 58887908 59307408 59770660 60280772 60842556 
1129.131 61461784 62143064 62887416 63690932 64544336 65433896 66341884 
1132.506 67249992 68138800 68988144 69779584 70497240 71129808 71674624 
1135.881 72139728 72545168 72920112 73301624 73730176 74242064 74870872 
1139.256 75643800 76580440 77694776 78993368 80475072 82129824 83939264 
1142.632 85877864 87911368 90000944 92103080 94165560 96132600 97940712 
1146.007 99517736 100792736 101694280 102158520 102140024 101612328 
1148.900 100572136 99037784 97047256 94654112 91920064 88918096 85726600 
1152.275 82420912 79077552 75762488 72528256 69418536 66464616 63690284 
1155.650 61114872 58752880 56613264 54699500 53008024 51530120 50252216 
1159.026 49159696 48235684 47461120 46815088 46272956 45807856 45395524 
1162.401 45014708 44651160 44298584 43956236 43626540 43312028 43014060 
1165.776 42732860 42468392 42222740 41999716 41804856 41643492 41519044 
1169.151 41433124 41385956 41377536 41408772 41481824 41598492 41758964 
1172.527 41961652 42202804 42478880 42788324 43132720 43517196 43947952 
1175.902 44430440 44968108 45562120 46212552 46920060 47686856 48515616 
1179.277 49407292 50358284 51357976 52388756 53429524 54458480 55457052 
1182.652 56414456 57326744 58197884 59037440 59860172 60685272 61533476 
1186.028 62427368 63387012 64425104 65543660 66730440 67959256 69189064 
1189.403 70371328 71455600 72390800 73135016 73656600 73934216 73958448 
1192.778 73729472 73255296 72548656 71625464 70503512 69200992 67740000 
1196.153 66150068 64468152 62745280 61041684 59416432 57924736 56603336 
1199.529 55464956 54499160 53677172 52963292 52321252 51725212 51161712 
1202.904 50628424 50130968 49678960 49282604 48950360 48688936 48502168 
1206.279 48390780 48351368 48377592 48461900 48596916 48778424 49006364 
1209.654 49283828 49615472 50004544 50452020 50956328 51515720 52129892 
1213.030 52801540 53536444 54341836 55223588 56185416 57228152 58351764 
1216.405 59557176 60848616 62233260 63721516 65324820 67053564 68917976 
1219.780 70927872 73093224 75425800 77938256 80640920 83540432 86635912 
1223.155 89916776 93359176 96926248 100567344 104211032 107769608 111135848 
1226.531 114176680 116749880 118706664 119902040 120226928 119615840 
1229.424 118064568 115631632 112436024 108645384 104443808 100034832 
1232.317 95616568 91356336 87401760 83859592 80793024 78232384 76176424 
1235.692 74603088 73475744 72751624 72385320 72327232 72530488 72950296 
1239.067 73544144 74277688 75121088 76046976 77029824 78039096 79037320 
1242.442 79984544 80836568 81553312 82106168 82479240 82673560 82704144 
1245.818 82599088 82394552 82130304 81851168 81600568 81417080 81332888 
1249.193 81366048 81519816 81781768 82128304 82529320 82952976 83373784 
1252.568 83773232 84141664 84478944 84793440 85101832 85426832 85797728 
1255.943 86246032 86798752 87476408 88285976 89219512 90252656 91347008 
1259.319 92454136 93513008 94458272 95222056 95732120 95924400 95744760 
1262.694 95154400 94137736 92702560 90879312 88713168 86261760 83589512 
1266.069 80760304 77843792 74911464 72029688 69263720 66667272 64277856 
1269.444 62121308 60210656 58550512 57141332 55979944 55059152 54365976 
1272.820 53882196 53585924 53453620 53465648 53606840 53866852 54238696 
1276.195 54715584 55289476 55951788 56694204 57511408 58402168 59369436 
1279.570 60418444 61554780 62783108 64108112 65535068 67072740 68732592 
1282.945 70526744 72464320 74545536 76757744 79071032 81442504 83816632 
1286.321 86128288 88314320 90312984 92068472 93537872 94687040 95493440 
1289.696 95946016 96041320 95780992 95166856 94197696 92867608 91170280 
1293.071 89105472 86688336 83956752 80977640 77840856 74651056 71526736 
1296.446 68579136 65911024 63615508 61762068 60399292 59550488 59210716 
1299.822 59348772 59910072 60829864 62032324 63440004 64981692 66584452 
1303.197 68176792 69691456 71058312 72213280 73104352 73690288 73947336 
1306.572 73867984 73458512 72738808 71745176 70538472 69202272 67847904 
1309.947 66608056 65605276 64938940 64654492 64726136 65051584 65464296 
1313.323 65779732 65815860 65444260 64616844 63364700 61786896 60014684 
1316.698 58194512 56449660 54864740 53487720 52329364 51377184 50608280 
1320.073 50001016 49538296 49207932 49000580 48906340 48913908 49012192 
1323.448 49191492 49445164 49769280 50160608 50613716 51120484 51667996 
1326.823 52241312 52826612 53411088 53985776 54544764 55083564 55598892 
1330.199 56088208 56550416 56986896 57402484 57804884 58203036 58605340 
1333.574 59018040 59444620 59886304 60343740 60818120 61311452 61825672 
1336.949 62362184 62920540 63498788 64095364 64710556 65348044 66014504 
1340.324 66718504 67466984 68263288 69107008 69994800 70923304 71891024 
1343.700 72900560 73958016 75072208 76251296 77501256 78824048 80218280 
1347.075 81680704 83207616 84797192 86448672 88162024 89935448 91764256 
1350.450 93640264 95553760 97495768 99462152 101455768 103487352 105573136 
1353.825 107732152 109985192 112351216 114848624 117494200 120298784 
1356.719 123261992 126361592 129551008 132752616 135862864 138777904 
1359.612 141400544 143665760 145552672 147083776 148315968 149318848 
1362.505 150168288 150928016 151642752 152344080 153047152 153754048 
1365.398 154455920 155137312 155782608 156384832 156955632 157530464 
1368.291 158167456 158929904 159876688 161048448 162461536 164115696 
1371.184 166002464 168116640 170457088 173025472 175817808 178816832 
1374.077 181992784 185313520 188759616 192334336 196058736 199957280 
1376.970 204030320 208233520 212458064 216546992 220305488 223516208 
1379.863 225976320 227488208 227863200 226952624 224665248 221017984 
1382.756 216149408 210309280 203787488 196812736 189521824 181928400 
1385.649 173969008 165576416 156758112 147635680 138427696 129382712 
1388.542 120710240 112554000 104987992 98049824 91772024 86175728 81274192 
1391.917 77059968 73496032 70524160 68077600 66101840 64551452 63386744 
1395.293 62565380 62025136 61690680 61492552 61378348 61334348 61388732 
1398.668 61608652 62075820 62860304 64007772 65529368 67414048 69637928 
1402.043 72171304 74967608 77943776 80977080 83889016 86456760 88463368 
1405.418 89718704 90101848 89581568 88207256 86094760 83393984 80285160 
1408.794 76955568 73579704 70330184 67348416 64732404 62540388 60785652 
1412.169 59453588 58517068 57952300 57741864 57870032 58316592 59049284 
1415.544 60022520 61192264 62520452 63986808 65592796 67352520 69278368 
1418.919 71360896 73567576 75850032 78164152 80486312 82813224 85149600 
1422.295 87488288 89797168 92015024 94048392 95799992 97187640 98155192 
1425.670 98674624 98727736 98290624 97333880 95832880 93792256 91261520 
1429.045 88344568 85183952 81924192 78701504 75625976 72779008 70227424 
1432.420 68016600 66165432 64665952 63482300 62562972 61854552 61325268 
1435.796 60976976 60844156 60970644 61378544 62048452 62925288 63938976 
1439.171 65022604 66127612 67217496 68265848 69254344 70166160 70987096 
1442.546 71708120 72325240 72840600 73259688 73588024 73826272 73969216 
1445.921 74008624 73941008 73776592 73547904 73304520 73101216 72981888 
1449.297 72963352 73037200 73180504 73373448 73610944 73906784 74284560 
1452.672 74765728 75352920 76027192 76746280 77455584 78103736 78648400 
1456.047 79073448 79391184 79640632 79861160 80072272 80273728 80455448 
1459.422 80612712 80752760 80891648 81047360 81232328 81448624 81689616 
1462.798 81945080 82209816 82489536 82804160 83181088 83651288 84241656 
1466.173 84971832 85860584 86926472 88184840 89644328 91300528 93136248 
1469.548 95115792 97194896 99321648 101428104 103435088 105250024 106775176 
1472.923 107927408 108649472 108908648 108691592 107993768 106824576 
1475.816 105217896 103239584 100984344 98548680 96016320 93434776 90815232 
1479.192 88150096 85431544 82667024 79889712 77149960 74500888 71987536 
1482.567 69634392 67447016 65418912 63537756 61790636 60166164 58655512 
1485.942 57253968 55962344 54786960 53738064 52824892 52052712 51419812 
1489.317 50921416 50555604 50325768 50240464 50305452 50516744 50855736 
1492.693 51292568 51788780 52308692 52825300 53322068 53796680 54255476 
1496.068 54705964 55145896 55560180 55922392 56206044 56392720 56479016 
1499.443 56477920 56416604 56331044 56257564 56230524 56275364 56404604 
1502.818 56616852 56894460 57205620 57500932 57723472 57822336 57774148 
1506.194 57607572 57404340 57269356 57271208 57421168 57684308 58009708 
1509.569 58350248 58673564 58966080 59227236 59467340 59700816 59942024 
1512.944 60200076 60476212 60764040 61051676 61326452 61580284 61817420 
1516.319 62057088 62332424 62676220 63107104 63619724 64185084 64756712 
1519.695 65282612 65726840 66084868 66395968 66725300 67137832 67662512 
1523.070 68282632 68950320 69609304 70217768 70753056 71219392 71640432 
1526.445 72049400 72474264 72930968 73427160 73968504 74563872 75225880 
1529.820 75963608 76775896 77645608 78545960 79448152 80336984 81224208 
1533.196 82153688 83188832 84379176 85744160 87265272 88904880 90616872 
1536.571 92362568 94121432 95879568 97639320 99417112 101246224 103167640 
1539.946 105216328 107419792 109778488 112276112 114896152 117622640 
1542.839 120445976 123356584 126338672 129360304 132371696 135315520 
1545.732 138131664 140763536 143161760 145263856 146991216 148262416 
1548.625 149002368 149187040 148863984 148150032 147178624 146040496 
1551.518 144756000 143278992 141544320 139528512 137294496 134996768 
1554.411 132838536 130971968 129446848 128183376 127005384 125671136 
1557.304 123932232 121620632 118740632 115549048 112469464 109879824 
1560.198 107918864 106501976 105436336 104529160 103627688 102610152 
1563.091 101390656 99921128 98203712 96295600 94295256 92311376 90410240 
1566.466 88595560 86804296 84935520 82883952 80587376 78063168 75416224 
1569.841 72808160 70388320 68249176 66405272 64816252 63418104 62146964 
1573.216 60949144 59780320 58606480 57411676 56215324 55088228 54147288 
1576.592 53525728 53317236 53552900 54211324 55246804 56618168 58303332 
1579.967 60303004 62631668 65305680 68331536 71692368 75339992 79196144 
1583.342 83138352 87006216 90618144 93766976 96259952 97945608 98718872 
1586.717 98544856 97459968 95581720 93096136 90248328 87327048 84599544 
1590.093 82298672 80600824 79607360 79364768 79872664 81098272 82982864 
1593.468 85449056 88411376 91767200 95405232 99215376 103083984 106910776 
1596.843 110615320 114126096 117378008 120299920 122800984 124783080 
1599.736 126153680 126842544 126823512 126115752 124780296 122901144 
1602.629 120582504 117943872 115105560 112193264 109321336 106571216 
1605.522 103992992 101600400 99380712 97310160 95367920 93543712 91836416 
1608.897 90248368 88778728 87419960 86162552 85000960 83938256 82985264 
1612.273 82153048 81442544 80836488 80295448 79761608 79173480 78482000 
1615.648 77676984 76803656 75961632 75270960 74818240 74634928 74694416 
1619.023 74939136 75301536 75724424 76169472 76615352 77061672 77525688 
1622.398 78040208 78643920 79371568 80246504 81272152 82436376 83714720 
1625.774 85078584 86495736 87933968 89367768 90777904 92157272 93509560 
1629.149 94848680 96191680 97553744 98945896 100374160 101841456 103346968 
1632.524 104889816 106472504 108100672 109792696 111584544 113537072 
1635.417 115716960 118180952 120958984 124034232 127369928 130927216 
1638.310 134680304 138619360 142747584 147080288 151629600 156398400 
1641.203 161378096 166538352 171830848 177201264 182576784 187887552 
1644.096 193079904 198118944 203012304 207809840 212604080 217478000 
1646.990 222474416 227582528 232731216 237827200 242770416 247471520 
1649.883 251797408 255522816 258312224 259640160 258885888 255609536 
1652.776 249982592 242973584 235841984 229429216 223839296 218723904 
1655.669 213606272 208129840 202118528 195567376 188590624 181354672 
1658.562 174026976 166701168 159398736 152087088 144709520 137228016 
1661.455 129654528 122065816 114603648 107451872 100789888 94753296 89403104 
1664.830 84721232 80633536 77031728 73800032 70836912 68073648 65485984 
1668.205 63098252 60971788 59180984 57783916 56801852 56217244 55983864 
1671.581 56048624 56361184 56880144 57579424 58446972 59488472 60726468 
1674.956 62193952 63918776 65905124 68138992 70596704 73262000 76134536 
1678.331 79227560 82557168 86119400 89884496 93801840 97806760 101858456 
1681.706 105953904 110131800 114465792 119033368 123867176 128886016 
1684.599 133905560 138693952 143047088 146824352 149928352 152292704 
1687.492 153850048 154552768 154386656 153368384 151547216 148994896 
1690.385 145813216 142132080 138102608 133886976 129600000 125270024 
1693.279 120821504 116082448 110856768 105052640 98818000 92574640 86868680 
1696.654 82087552 78321896 75374280 72913920 70589688 68158496 65576568 
1700.029 63023732 60810004 59165264 58103976 57444612 56941864 56363672 
1703.404 55545908 54385920 52830728 50879244 48578384 46018408 43310748 
1706.780 40569984 37899160 35370628 33028308 30883762 28918688 27099774 
1710.155 25395578 23792320 22299554 20942028 19740894 18699886 17794832 
1713.530 16982614 16214665 15460841 14719052 14010934 13363590 12789922 
1716.905 12275087 11789117 11307806 10834876 10403284 10054344 9813447 
1720.281 9675531 9608216 9565637 9509616 9420688 9307270 9196352 9119095 
1724.138 9090808 9102989 9128265 9137807 9116320 9068816 9015431 8977815 
1727.995 8966178 8972673 8976698 8957181 8907563 8839116 8775649 8736160 
1731.853 8723144 8714558 8672438 8560398 8371735 8142335 7936137 7804787 
1735.710 7760597 7778745 7816258 7834205 7808195 7736311 7635977 7535127 
1739.568 7454356 7397664 7351661 7297778 7224699 7135868 7045035 6967587 
1743.425 6909644 6863896 6813002 6739903 6638386 6516712 6393726 6287348 
1747.282 6206102 6142684 6078702 5994002 5878788 5739531 5596257 5471183 
1751.140 5377477 5314111 5269201 5230935 5194953 5166317 5154783 5166284 
1754.997 5197569 5234624 5258737 5257295 5231405 5197736 5178422 5190259 
1758.855 5234960 5299119 5358590 5392238 5391030 5363086 5329138 5311160 
1762.712 5320920 5354665 5398578 5437496 5465077 5484740 5506081 5538330 
1766.570 5583571 5634992 5680779 5711598 5726638 5734931 5748865 5775021 
1770.427 5809003 5833585 5827741 5779286 5694409 5597768 5520410 5483464 
1774.284 5489101 5522591 5561520 5588773 5598842 5598976 5602601 5620894 
1778.142 5655267 5695483 5725933 5733857 5718615 5692059 5673394 5676885 
1781.999 5705890 5749469 5790534 5813100 5812126 5795101 5778748 5778581 
1785.857 5800910 5840838 5887050 5929002 5963432 5995716 6035292 6088548 
1789.714 6153471 6217329 6262236 6274405 6252186 6209195 6167216 6145674 
1793.572 6150682 6175047 6203783 6224791 6235042 6241227 6255076 6285263 
1797.429 6332162 6386429 6433372 6460444 6464984 6454827 6444907 6447463 
1801.286 6466497 6495556 6522968 6539113 6543149 6542779 6550684 6576283 
1805.144 6621194 6677685 6733341 6778336 6810107 6834308 6861169 6898771 
1809.001 6948025 7001460 7048099 7080160 7098885 7114277 7139506 7184138 
1812.859 7248552 7324298 7398944 7463019 7515944 7566077 7626164 7705112 
1816.716 7804012 7912853 8017909 8106245 8173700 8225327 8271558 8320562 
1820.573 8373930 8424636 8461799 8476496 8466157 8435852 8395448 8354170 
1824.431 8316172 8280372 8243056 8203143 8164415 8134233 8118264 8116374 
1828.288 8119682 8114550 8087443 8034785 7965429 7898750 7853605 7839333 
1832.146 7852019 7877492 7899053 7905903 7897569 7883667 7877762 7889403 
1836.003 7918556 7955912 7989221 8009910 8019360 8027630 8049265 8094296 
1839.861 8162997 8245521 8326507 8392915 8437170 8460549 8469806 8473353 
1843.718 8476023 8478422 8479604 8481260 8489538 8512582 8555700 8617445 
1847.575 8688325 8755397 8806518 8837459 8853521 8867487 8892784 8936041 
1851.433 8994524 9058395 9117031 9164541 9204035 9244547 9296032 9361843 
1855.290 9436637 9507515 9561809 9593107 9604421 9606759 9611569 9625289 
1859.148 9645310 9662148 9665875 9653543 9631285 9612958 9612314 9636570 
1863.005 9682612 9739569 9793993 9837476 9870489 9899708 9932827 9972256 
1866.863 10011721 10039357 10044714 10026132 9994159 9968527 9968662 
1870.238 10002973 10066247 10142859 10215617 10272644 10311730 10338231 
1873.613 10360355 10382277 10401247 10409562 10399822 10371519 10332835 
1876.988 10298091 10280007 10284756 10307557 10336636 10359405 10370569 
1880.364 10373827 10380411 10401451 10441125 10493634 10546998 10588451 
1883.739 10613509 10627260 10643423 10676259 10732091 10806001 10884204 
1887.114 10951445 10997185 11022029 11035555 11052481 11083309 11130898 
1890.489 11190291 11254009 11317158 11381065 11450459 11529256 11616131 
1893.865 11703365 11779857 11837294 11875942 11905740 11942623 11999809 
1897.240 12082180 12184160 12293083 12395930 12486424 12567556 12648807 
1900.615 12739558 12843159 12953887 13061159 13155581 13233390 13300108 
1903.990 13365401 13437675 13517208 13594739 13655051 13685756 13682713 
1907.365 13653580 13613475 13578842 13559219 13554228 13555699 13554434 
1910.741 13547768 13540931 13545204 13570877 13622227 13693998 13776211 
1914.116 13857243 13931584 14000873 14070961 14146741 14227706 14306938 
1917.491 14374712 14425746 14463427 14498677 14545683 14612432 14696294 
1920.866 14784731 14861322 14914574 14944169 14961933 14985357 15029500 
1924.242 15097764 15180759 15262534 15329290 15377312 15414697 15455966 
1927.617 15513857 15591986 15682185 15769277 15839135 15887970 15922960 
1930.992 15959600 16011715 16084157 16170539 16257418 16331140 16386500 
1934.367 16428754 16469808 16519817 16581051 16645670 16701516 16739188 
1937.743 16759023 16771937 16793084 16834138 16894590 16961288 17013730 
1941.118 17035506 17022378 16985854 16946646 16925044 16930762 16957910 
1944.493 16991264 17016212 17026960 17029372 17037128 17061008 17103950 
1947.868 17156994 17205600 17236488 17247864 17248210 17253692 17277102 
1951.244 17321306 17376310 17427248 17461740 17477712 17484782 17498306 
1954.619 17529042 17576204 17625858 17657672 17657430 17623890 17571374 
1957.994 17522384 17498408 17507172 17542050 17586900 17627238 17661640 
1961.369 17699914 17757036 17844096 17957142 18079232 18187432 18264798 
1964.745 18308068 18331916 18357940 18402670 18469288 18544492 18606912 
1968.120 18640114 18641222 18622234 18603384 18600688 18615006 18634408 
1971.495 18639528 18617184 18567902 18506732 18455148 18430396 18435788 
1974.870 18461024 18491208 18519700 18553206 18611062 18711370 18857756 
1978.246 19031956 19200822 19326140 19385276 19378728 19328392 19265486 
1981.621 19215160 19187006 19174988 19163734 19141882 19109576 19079940 
1984.996 19071838 19098290 19159128 19241032 19325134 19397228 19454956 
1988.371 19507250 19568146 19646486 19739162 19832342 19908094 19956106 
1991.747 19978622 19990488 20009500 20047114 20101802 20160318 20204884 
1995.122 20225540 20225122 20217972 20222796 20249874 20296222 20345562 
1998.497 20377646 20377890 20347470 20300944 20260254 20241196 20246854 
2001.872 20265288 20279696 20276016 20253032 20223074 20204920 20212280 
2005.248 20246576 20294486 20334866 20351986 20341428 20312332 20282404 
2008.623 20266016 20267094 20278584 20288376 20288306 20280216 20274002 
2011.998 20280460 20303444 20334728 20356394 20351568 20312680 20247930 
2015.373 20179304 20132414 20121792 20148238 20195616 20243382 20275598 
2018.749 20291118 20300630 20321602 20365284 20430156 20502954 20567568 
2022.124 20612248 20638272 20658634 20688380 20737936 20804810 20875064 
2025.499 20931910 20964388 20973498 20970090 20969046 20979584 21000658 
2028.874 21022602 21033312 21026774 21007368 20987024 20977114 20982748 
2032.250 20997944 21011540 21014464 21007820 21003646 21019818 21069240 
2035.625 21150252 21245650 21328436 21377544 21383704 21356524 21317022 
2039.000 21288138 21282466 21295758 21311036 21309468 21279368 21223730 
2042.375 21158462 21102214 21069136 21060614 21067326 21075326 21076788 
2045.750 21072752 21073588 21092370 21136720 21203898 21283510 21360664 
2049.126 21423318 21468014 21497224 21516058 21528036 21533014 21528070 
2052.501 21512890 21492420 21476092 21475916 21500532 21549450 21613870 
2055.876 21680182 21736436 21778414 21810432 21841648 21881408 21932704 
2059.251 21990072 22044240 22085898 22112324 22127910 22142378 22162568 
2062.627 22190430 22219548 22239008 22239496 22218920 22184012 22148936 
2066.002 22126968 22125818 22144576 22176132 22211038 22243960 22275106 
2069.377 22308168 22346854 22389972 22430338 22457936 22465092 22450156 
2072.752 22419138 22382508 22350726 22328784 22314168 22299762 22278348 
2076.128 22247446 22210376 22175226 22149352 22136244 22133176 22133836 
2079.503 22131606 22123934 22113476 22105526 22104166 22108698 22113440 
2082.878 22110478 22093776 22063274 22024476 21987108 21959436 21944136 
2086.253 21937306 21931204 21918938 21897610 21870814 21845446 21828200 
2089.629 21821024 21820360 21818376 21808514 21788344 21761378 21735078 
2093.004 21717034 21710380 21713620 21720658 21725220 21724384 21719926 
2096.379 21716406 21717974 21725568 21735218 21741732 21740618 21730722 
2099.754 21715502 21699896 21687080 21676106 21661932 21638668 21603738 
2103.130 21560036 21514806 21477658 21454752 21445700 21443716 21439296 
2106.505 21425092 21400136 21369852 21342844 21327636 21326974 21337762 
2109.880 21352450 21364110 21369330 21369992 21370236 21374134 21381408 
2113.255 21388056 21387604 21375282 21351094 21319596 21288624 21264336 
2116.631 21248574 21238830 21229922 21217744 21201672 21185598 21174604 
2120.006 21172412 21177596 21184206 21184276 21171926 21146390 21112056 
2123.381 21076438 21045764 21021314 20999788 20974786 20942132 20902218 
2126.756 20861610 20829144 20812422 20813360 20827474 20845446 20857474 
2130.132 20857440 20844926 20824032 20800118 20777072 20756566 20738318 
2133.507 20723548 20716632 20723966 20751700 20801506 20867798 20939212 
2136.882 21002326 21047780 21072440 21080544 21080092 21078074 21077308 
2140.257 21075848 21069380 21056198 21038704 21024166 21019228 21027782 
2143.633 21045554 21064544 21074806 21070526 21055188 21038112 21030426 
2147.008 21038808 21061518 21087152 21102422 21095916 21063362 21010256 
2150.383 20946272 20879514 20814368 20748814 20678162 20599392 20514522 
2153.758 20427340 20344798 20268656 20197110 20126270 20057316 19999022 
2157.134 19973800 20007004 20116170 20301880 20542834 20802064 21039816 
2160.509 21230896 21366510 21456492 21517520 21563204 21600358 21626860 
2163.884 21638004 21633442 21619374 21605964 21603806 21614532 21630448 
2167.259 21636786 21620418 21575148 21506832 21430314 21363692 21319528 
2170.635 21300004 21297012 21298474 21293670 21278186 21254836 21230724 
2174.010 21211238 21197844 21187650 21175718 21159610 21140304 21121588 
2177.385 21105796 21090630 21070144 21036824 20986884 20925026 20862862 
2180.760 20816314 20797196 20807626 20837904 20871970 20894604 20896934 
2184.135 20882122 20860222 20843048 20837660 20843256 20852086 20857648 
2187.511 20856222 20851356 20851668 20864984 20892310 20929304 20964942 
2190.886 20988694 20997040 20993146 20985320 20981634 20985320 20991060 
2194.261 20989772 20972488 20935248 20883200 20826640 20775230 20734080 
2197.636 20700960 20667842 20627432 20577608 20522928 20474924 20444532 
2201.012 20437692 20452382 20480134 20510770 20537658 20560758 20584208 
2204.387 20614472 20654464 20701514 20749650 20793930 20831644 20867244 
2207.762 20907988 20959206 21021488 21088474 21148616 21191164 21210684 
2211.137 21209152 21196592 21184172 21180830 21189286 21207100 21228288 
2214.513 21247704 21263710 21276480 21287442 21296038 21299028 21292174 
2217.888 21273906 21246068 21215310 21190156 21176936 21176484 21184346 
2221.263 21192348 21193566 21185876 21172726 21161002 21156340 21160550 
2224.638 21168446 21170848 21159124 21129136 21083256 21029034 20975480 
2228.014 20929790 20894186 20866930 20844228 20823858 20806166 20792504 
2231.389 20784858 20782320 20780790 20775926 20764038 20745130 20722958 
2234.764 20703252 20690256 20685008 20684592 20683096 20676668 20664402 
2238.139 20648870 20634832 20626598 20624722 20627014 20629864 20630070 
2241.515 20628890 20629656 20635840 20649494 20667668 20683514 20689596 
2244.890 20681256 20658494 20628230 20599844 20581048 20575176 20579486 
2248.265 20587196 20591088 20587372 20575940 20561210 20548392 20540160 
2251.640 20537068 20537414 20538352 20539916 20543980 20553220 20569826 
2255.016 20592966 20618606 20641260 20656620 20662422 20660302 20652970 
2258.391 20643276 20631740 20616590 20594840 20564650 20526784 20483990 
2261.766 20440504 20399038 20359866 20321184 20280946 20238314 20195028 
2265.141 20155354 20123632 20101802 20088686 20079386 20068454 20052388 
2268.517 20031012 20007558 19986706 19972066 19964120 19960408 19957112 
2271.892 19951874 19944554 19937580 19934354 19936470 19942922 19950070 
2275.267 19953366 19949860 19939974 19926724 19914582 19907228 19904836 
2278.642 19905564 19905492 19901088 19891480 19877742 19862066 19846216 
2282.018 19830400 19813130 19792946 19769364 19743772 19719154 19698386 
2285.393 19682056 19669020 19655534 19637576 19613240 19582910 19548872 
2288.768 19514492 19481708 19450486 19418746 19384028 19345156 19303484 
2292.143 19262160 19224374 19192234 19165084 19139736 19112902 19082328 
2295.519 19048226 19013402 18981798 18956356 18938012 18925828 18917176 
2298.894 18910532 18905306 18902294 18903230 18908732 18917766 18928010 
2302.269 18936904 18942752 18946838 18951406 18959748 18974044 18994606 
2305.644 19019530 19046150 19072358 19097044 19120796 19144446 19168200 
2309.020 19191194 19211454 19227110 19237948 19245638 19253640 19265520 
2312.395 19283704 19308332 19336912 19366742 19395046 19421068 19445774 
2315.770 19470724 19497026 19524370 19550986 19574556 19593100 19606584 
2319.145 19615666 19622670 19629186 19635876 19641910 19645826 19645584 
2322.521 19639344 19625374 19601628 19565718 19516052 19452114 19375992 
2325.896 19292468 19209134 19133954 19073362 19030328 19003086 18987404 
2329.271 18977402 18968124 18957912 18947600 18939396 18935174 18935242 
2332.646 18937804 18940678 18942166 18941992 18941680 18943168 18947116 
2336.021 18953032 18958502 18960682 18957776 18949572 18937146 18922888 
2339.397 18907868 18892328 18875164 18855784 18833672 18810074 18786340 
2342.772 18762848 18738008 18707842 18667924 18615316 18551338 18481320 
2346.147 18415702 18365198 18339104 18342766 18376884 18438034 18520252 
2349.522 18616354 18718704 18819728 18913092 18993254 19056778 19103240 
2352.898 19134784 19155804 19171144 19184304 19196252 19205776 19209516 
2356.273 19204908 19191298 19170036 19143822 19115602 19086380 19054770 
2359.648 19018594 18975740 18926280 18872428 18818552 18768072 18722682 
2363.023 18681484 18642052 18600998 18557112 18511470 18466868 18426384 
2366.399 18391642 18361708 18333952 18305164 18272818 18236532 18197244 
2369.774 18156408 18115158 18073152 18029148 17982386 17933176 17882902 
2373.149 17834048 17788930 17748476 17712098 17678240 17645078 17612158 
2376.524 17579860 17549500 17522314 17498960 17478400 17459498 17440872 
2379.900 17421868 17403036 17385828 17370996 17359238 17350202 17342960 
2383.275 17337306 17333822 17333996 17339030 17349376 17364030 17380412 
2386.650 17395588 17407312 17415246 17421074 17427282 17436596 17450598 
2390.025 17468674 17489060 17509654 17528628 17545464 17560506 17574066 
2393.401 17586244 17596388 17603496 17607396 17609052 17610190 17613262 
2396.776 17619714 17629444 17640420 17650322 17656258 17657258 17653842 
2400.151 17647390 17640072 17633034 17626132 17618956 17611158 17603118 
2403.526 17595974 17591594 17591144 17594284 17599942 17605980 17610950 
2406.902 17614366 17616954 17619750 17623166 17626960 17629792 17630446 
2410.277 17628686 17626028 17625478 17630446 17642730 17662056 17685556 
2413.652 17709610 17730218 17745404 17755344 17761592 17766770 17772672 
2417.027 17779886 17787998 17796318 17804326 17812196 17820240 17827940 
2420.403 17834464 17838088 17837328 17831598 17822450 17812542 17804878 
2423.778 17801738 17803016 17807156 17811298 17812576 17809676 17803222 
2427.153 17794694 17786238 17779472 17774846 17772672 17773086 17776330 
2430.528 17783408 17794420 17808158 17822208 17833048 17837434 17833878 
2433.904 17823278 17808502 17793728 17782406 17775918 17773568 17772776 
2437.279 17770462 17764456 17753654 17737740 17717756 17694702 17669094 
2440.654 17642420 17616196 17592870 17574618 17563128 17558160 17558194 
2444.029 17560506 17562542 17562542 17560818 17558300 17556400 17555778 
2447.405 17555332 17553502 17548742 17540806 17530732 17521108 17513966 
2450.780 17510172 17508448 17506204 17500616 17490406 17476296 17460912 
2454.155 17447184 17437458 17432250 17429938 17427974 17424662 17419384 
2457.530 17412970 17407520 17404692 17405278 17409140 17415558 17423904 
2460.906 17434354 17447634 17463810 17482678 17502066 17520004 17534630 
2464.281 17545498 17554296 17563716 17576240 17593042 17613020 17633102 
2467.656 17650288 17662158 17668370 17670924 17672752 17676204 17682590 
2471.031 17691906 17702502 17712960 17722554 17731080 17738154 17743436 
2474.406 17745368 17742366 17733668 17720000 17704330 17691080 17684072 
2477.782 17685798 17696118 17712236 17730114 17746370 17758452 17766078 
2481.157 17770532 17772672 17773362 17772880 17770532 17766908 17763214 
2484.532 17761418 17763558 17771188 17783856 17800496 17819238 17838572 
2487.907 17857836 17877620 17898440 17920366 17942742 17963738 17981178 
2491.283 17994092 18001932 18005698 18006700 18005802 18003728 18000482 
2494.658 17995958 17990708 17985872 17982730 17982248 17984492 17988152 
2498.033 17991642 17993506 17993058 17990672 17987324 17983870 17980590 
2501.408 17976964 17972544 17967260 17962494 17960146 17962494 17970228 
2504.784 17982420 17995958 18007112 18012846 18012018 18005870 17997408 
2508.159 17989672 17984906 17983248 17983490 17983698 17982386 17979588 
2511.534 17975618 17971438 17967224 17962148 17955034 17945020 17931932 
2514.909 17917016 17902202 17889152 17878552 17869920 17861910 17854108 
2518.285 17846442 17839954 17835880 17834912 17835776 17836120 17833082 
2521.660 17824902 17811886 17796422 17781646 17770254 17763214 17758622 
2525.035 17753100 17743436 17727940 17707264 17684384 17662332 17643628 
2528.410 17628480 17614986 17600220 17581966 17558678 17531180 17501272 
2531.786 17470606 17440908 17412764 17386104 17360756 17336686 17313306 
2535.161 17290274 17266380 17240522 17211598 17180020 17147308 17116288 
2538.536 17090026 17070038 17056424 17047362 17039644 17031028 17020552 
2541.911 17009112 16998568 16990886 16986612 16984614 16982340 16977242 
2545.287 16967662 16953948 16937482 16920154 16904132 16889630 16877090 
2548.662 16866208 16857180 16851326 16850258 16854942 16865690 16881364 
2552.037 16899966 16919670 16939274 16958530 16978136 16998568 17019724 
2555.412 17041056 17060906 17078790 17094404 17108706 17123078 17138622 
2558.788 17155788 17173850 17192018 17209874 17227524 17246176 17266896 
2562.163 17290412 17315444 17339926 17361652 17378862 17391242 17400586 
2565.538 17409520 17420074 17434044 17451392 17471124 17492510 17515416 
2568.913 17540152 17568200 17600012 17635070 17671648 17706850 17738258 
2572.289 17764352 17784994 17800874 17813300 17823416 17831496 17837604 
2575.664 17842058 17845338 17848894 17853762 17860426 17868572 17876548 
2579.039 17882108 17883974 17881866 17876584 17869712 17863084 17857112 
2582.414 17851484 17845200 17837156 17827180 17816030 17804946 17795350 
2585.790 17788344 17783994 17782440 17783718 17788344 17796904 17810368 
2589.165 17828526 17850414 17874374 17898370 17921090 17941982 17961872 
2592.540 17981626 18002140 18022792 18042962 18060752 18075224 18086244 
2595.915 18094708 18101926 18109008 18116298 18123242 18128940 18132638 
2599.291 18134192 18134502 18134572 18135402 18137198 18139340 18140756 
2602.666 18140654 18138234 18134090 18128630 18122102 18114812 18106486 
2606.041 18096712 18085588 18073670 18062064 18051702 18043172 18036158 
2609.416 18029944 18023794 18017060 18009946 18002968 17996406 17990502 
2612.792 17984596 17977724 17969436 17959730 17949580 17940392 17933556 
2616.167 17929482 17927616 17926752 17925336 17922610 17918812 17914668 
2619.542 17911146 17908488 17905932 17902202 17895988 17886494 17874408 
2622.917 17861150 17848238 17837192 17828008 17820032 17811886 17802774 
2626.292 17792450 17781510 17771258 17762524 17755584 17750064 17745024 
2629.668 17739846 17734428 17729044 17724866 17722588 17722520 17724970 
2633.043 17729560 17736462 17745954 17758312 17773846 17792244 17812438 
2636.418 17833014 17852760 17871026 17888046 17905000 17922852 17942534 
2639.793 17963842 17986426 18008908 18030840 18051944 18072566 18093188 
2643.169 18113914 18134400 18153988 18171782 18187432 18201598 18214832 
2646.544 18228654 18243754 18260514 18278484 18297112 18315672 18333816 
2649.919 18351546 18368692 18385456 18401184 18415288 18427076 18436824 
2653.294 18444636 18451138 18456912 18461888 18465658 18467388 18466660 
2656.670 18463652 18459606 18456116 18455078 18457568 18464068 18473782 
2660.045 18485676 18498574 18511814 18525784 18540618 18557184 18576030 
2663.420 18597402 18620920 18646826 18674634 18704210 18735170 18766652 
2666.795 18797342 18825992 18851182 18872810 18890528 18905306 18917798 
2670.171 18928632 18937804 18945246 18950854 18954764 18957602 18960578 
2673.546 18964906 18971344 18980342 18991662 19004852 19019736 19035902 
2676.921 19053974 19073950 19096108 19120312 19146038 19172806 19199992 
2680.296 19227282 19254540 19282214 19310168 19338540 19367468 19397160 
2683.672 19427720 19459806 19493318 19528008 19563118 19597746 19630610 
2687.047 19661530 19690758 19719604 19749564 19782264 19818608 19859082 
2690.422 19903376 19951076 20001764 20055198 20111588 20170902 20233246 
2693.797 20298790 20367576 20439948 20516746 20598940 20686954 20780930 
2697.173 20880072 20982572 21086908 21191442 21295446 21399158 21502620 
2700.548 21605964 21708570 21808690 21904268 21992756 22072234 22141542 
2703.923 22200402 22248842 22287486 22316714 22337052 22349016 22353342 
2707.298 22351284 22343750 22331924 22316506 22297984 22276882 22254178 
2710.674 22231126 22209226 22189906 22173864 22161208 22151550 22143704 
2714.049 22137742 22133802 22133140 22137114 22146704 22162116 22182304 
2717.424 22205738 22230776 22256374 22282568 22309914 22339494 22371762 
2720.799 22406684 22443284 22480722 22517992 22554810 22591456 22627654 
2724.175 22663328 22697610 22728788 22755184 22775576 22789438 22797748 
2727.550 22801660 22803266 22804070 22805328 22807560 22810878 22815174 
2730.925 22819994 22824778 22829352 22833054 22835882 22837838 22839374 
2734.300 22841190 22844264 22849050 22855720 22863646 22872170 22880656 
2737.676 22888620 22896514 22904966 22914956 22927600 22943214 22962112 
2741.051 22984472 23010114 23039426 23072864 23111128 23154252 23202484 
2744.426 23255404 23312284 23372422 23434874 23498526 23562642 23626384 
2747.801 23689084 23750742 23811328 23871638 23933044 23996840 24064426 
2751.177 24136716 24214414 24297700 24386220 24479844 24577412 24678266 
2754.552 24781248 24885448 24990232 25095782 25202162 25310152 25420240 
2757.927 25532604 25646508 25761288 25875568 25988578 26100070 26210780 
2761.302 26321800 26433660 26546920 26661022 26774622 26886352 26995218 
2764.677 27100374 27201990 27300704 27396686 27490112 27580418 27667174 
2768.053 27749286 27826750 27899460 27967586 28031692 28091956 28148836 
2771.428 28202788 28254342 28304308 28353858 28403732 28454392 28505622 
2774.803 28557070 28607958 28658214 28708654 28760480 28815428 28875554 
2778.178 28942096 29016090 29097856 29187078 29283372 29386176 29494960 
2781.554 29608846 29727126 29849020 29974502 30103214 30235766 30372692 
2784.929 30514356 30660366 30810054 30961930 31114356 31266018 31415772 
2788.304 31563014 31707488 31849090 31987310 32122220 32253608 32382034 
2791.679 32508176 32632962 32757216 32881286 33005144 33128072 33249530 
2795.055 33368874 33486572 33603012 33718628 33833692 33947756 34059772 
2798.430 34168872 34274272 34376180 34475176 34572292 34668532 34763932 
2801.805 34858204 34950016 35038296 35122280 35201284 35275852 35346220 
2805.180 35412900 35475960 35535400 35590888 35642428 35689580 35732604 
2808.556 35771388 35805928 35836120 35862212 35884808 35905032 35924436 
2811.931 35944732 35966940 35991960 36019640 36049484 36081208 36114728 
2815.306 36149940 36187396 36227120 36268576 36311008 36352944 36393044 
2818.681 36430192 36463848 36493976 36520500 36543136 36561628 36574964 
2822.057 36582640 36584476 36580840 36573052 36562452 36550488 36538340 
2825.432 36526952 36516824 36508752 36503636 36502372 36506156 36515488 
2828.807 36530884 36552148 36579468 36612844 36653080 36701356 36758976 
2832.182 36827536 36908220 37001660 37108652 37229680 37365688 37517924 
2835.558 37687484 37875732 38082976 38309100 38553304 38813984 39090304 
2838.933 39381636 39688160 40011096 40351988 40712684 41095024 41500340 
2842.308 41929680 42383304 42861532 43363392 43887204 44429816 44985600 
2845.683 45546772 46102072 46637612 47137616 47584068 47958856 48244980 
2849.059 48427672 48495980 48444448 48273748 47989900 47605068 47135732 
2852.434 46599948 46016712 45404164 44776396 44145056 43517928 42899240 
2855.809 42291364 41694880 41109776 40535900 39972988 39420928 38880004 
2859.184 38351408 37836324 37337592 36858984 36404068 35977020 35580960 
2862.560 35217636 34887360 34589624 34322856 34085860 33877324 33696640 
2865.935 33542984 33415642 33313778 33235722 33180356 33146202 33132180 
2869.310 33137008 33159002 33195876 33244308 33299860 33357854 33413890 
2872.685 33464026 33506152 33540082 33567000 33589768 33611460 33635520 
2876.061 33664412 33699328 33740684 33787492 33838708 33892944 33949692 
2879.436 34008776 34070268 34134532 34201096 34269108 34337020 34402936 
2882.811 34465384 34523536 34577352 34627480 34675136 34721220 34766620 
2886.186 34811748 34856660 34901576 34946784 34992572 35039156 35086428 
2889.562 35133488 35179548 35223636 35264996 35303560 35339860 35374512 
2892.937 35408084 35440760 35471720 35500048 35524464 35544172 35558880 
2896.312 35569668 35577328 35584412 35592792 35604228 35620376 35642388 
2899.687 35670768 35705804 35747176 35794380 35846660 35903092 35963092 
2903.063 36026336 36092940 36163984 36241276 36327868 36427276 36543892 
2906.438 36682968 36849284 37048388 37285312 37564848 37892216 38271756 
2909.813 38707076 39200280 39750644 40353732 41000772 41679416 42373184 
2913.188 43063380 43731624 44359648 44931396 45434552 45859408 46200276 
2916.563 46455300 46625952 46717300 46736416 46692952 46596628 46456852 
2919.939 46281952 46078196 45849984 45600024 45329976 45039960 44729748 
2923.314 44398108 44042952 43661892 43252616 42813556 42344620 41847620 
2926.689 41326004 40784560 40228672 39664196 39096972 38532844 37978348 
2930.064 37440480 36926760 36444856 36001932 35603328 35253068 34952712 
2933.440 34702016 34498820 34339780 34220280 34134960 34078188 34044360 
2936.815 34027944 34024544 34030276 34041924 34057152 34073744 34089768 
2940.190 34103924 34115140 34123132 34128508 34132524 34136252 34141520 
2943.565 34150016 34163100 34182600 34210384 34248208 34297904 34360940 
2946.941 34438484 34531532 34640864 34767232 34911124 35072020 35247816 
2950.316 35433680 35622212 35803412 35965248 36095964 36185196 36225032 
2953.691 36210912 36141696 36018816 35845692 35626780 35367680 35074612 
2957.066 34754240 34414380 34062812 33707416 33355564 33012938 32683972 
2960.442 32371718 32077234 31800530 31540852 31296856 31067196 30850678 
2963.817 30646856 30455282 30276156 30109074 29953520 29808206 29671316 
2967.192 29540994 29415640 29294112 29175914 29061222 28950208 28843082 
2970.567 28740090 28641650 28548752 28462704 28385340 28318314 28262934 
2973.943 28219300 28187088 28165134 28152370 28148588 28154174 28170402 
2977.318 28198438 28239136 28292674 28358528 28435678 28522994 28619742 
2980.693 28725326 28838904 28959666 29086234 29216740 29349518 29482796 
2984.068 29614804 29743978 29868506 29985720 30092844 30186604 30264114 
2987.444 30323872 30365692 30390780 30401370 30399736 30387120 30363668 
2990.819 30328242 30279282 30215340 30136170 30043202 29939426 29829500 
2994.194 29718290 29610974 29511522 29422660 29346008 29281706 29229144 
2997.569 29187646 29156674 29135944 29125988 29127442 29140942 29166560 
3000.945 29203874 29251720 29308822 29373660 29444854 29521346 29601964 
3004.320 29685612 29771088 29857006 29942160 30025946 30108612 30190972 
3007.695 30274488 30360612 30450484 30544534 30642162 30742228 30843136 
3011.070 30943322 31041216 31136142 31227600 31315730 31401526 31485878 
3014.446 31570140 31655454 31742740 31832476 31924720 32019340 32115978 
3017.821 32214422 32314498 32416486 32520570 32626678 32734740 32844580 
3021.196 32956026 33068676 33182428 33297036 33412136 33527304 33641676 
3024.571 33754612 33865716 33974592 34081592 34187224 34291732 34395192 
3027.947 34497416 34597624 34695736 34791500 34885524 34978996 35073280 
3031.322 35169524 35268736 35371164 35476320 35583800 35692928 35802944 
3034.697 35914104 36026444 36140580 36257192 36377408 36502408 36633396 
3038.072 36771600 36917888 37072636 37235308 37404944 37580348 37759692 
3041.448 37941280 38123524 38304724 38482952 38655864 38820796 38974664 
3044.823 39114304 39237052 39341184 39426372 39493716 39546084 39587568 
3048.198 39622960 39656540 39692040 39731944 39776820 39826608 39880324 
3051.573 39937280 39997292 40060876 40128972 40202428 40281272 40364528 
3054.948 40450240 40536116 40619644 40699328 40774664 40846184 40915316 
3058.324 40983292 41051468 41120776 41191152 41262564 41334348 41406076 
3061.699 41477300 41547700 41616944 41685104 41752292 41818832 41885020 
3065.074 41950812 42015704 42078744 42139016 42195396 42247284 42294832 
3068.449 42338848 42380596 42421260 42461412 42501568 42541364 42580428 
3071.825 42618880 42657260 42696812 42739364 42786900 42841016 42902640 
3075.200 42971808 43047720 43128692 43212612 43297092 43380196 43460356 
3078.575 43537120 43610936 43682964 43754708 43827640 43902384 43978344 
3081.950 44054172 44127228 44194356 44252904 44300200 44334652 44355940 
3085.326 44364820 44363500 44355132 44343756 44333404 44327684 44329152 
3088.701 44338836 44356380 44380784 44410548 44444936 44483920 44528156 
3092.076 44578744 44636176 44700476 44771144 44846672 44926108 45009120 
3095.451 45095608 45186340 45281764 45381396 45483668 45586040 45685304 
3098.827 45778332 45862684 45937264 46002384 46059448 46110404 46157824 
3102.202 46204184 46251764 46302704 46358516 46420384 46489152 46565164 
3105.577 46648200 46738148 46834688 46937784 47047916 47165760 47292724 
3108.952 47431332 47584880 47757864 47955892 48185328 48453268 48767412 
3112.328 49134648 49562136 50056340 50622840 51266060 51988620 52790540 
3115.703 53667648 54611304 55606912 56631344 57655132 58640612 59541900 
3119.078 60311416 60900608 61264028 61368124 61192492 60733552 60004604 
3122.453 59035956 57869992 56553660 55138108 53670984 52192660 50738344 
3125.829 49335648 48004964 46761912 45615772 44570488 43625364 42775380 
3129.204 42013404 41330596 40719052 40171204 39680424 39240752 38846596 
3132.579 38491936 38171676 37881048 37616120 37374424 37153588 36951800 
3135.954 36766800 36596012 36436208 36284500 36137916 35993976 35851160 
3139.330 35708324 35564956 35421348 35278728 35138192 35001444 34869764 
3142.705 34743652 34622452 34504520 34387876 34270576 34151556 34030380 
3146.080 33907452 33783300 33658148 33531706 33403620 33273674 33142480 
3149.455 33011470 32882288 32756284 32633926 32513998 32393888 32270916 
3152.831 32142594 32007784 31867094 31722390 31576306 31431090 31288486 
3156.206 31149134 31013172 30880170 30749910 30621860 30495516 30370526 
3159.581 30245960 30121324 29996406 29871344 29746712 29623424 29501664 
3162.956 29381212 29261538 29141472 29020270 28897686 28774322 28651170 
3166.332 28529292 28409536 28292180 28176696 28062796 27949598 27837102 
3169.707 27724986 27613500 27502644 27392592 27283096 27174900 27068562 
3173.082 26964650 26864252 26767400 26673424 26581334 26489052 26395068 
3176.457 26298178 26198708 26097536 25996528 25897760 25802388 25710942 
3179.833 25622678 25536432 25450734 25364138 25275838 25186290 25096202 
3183.208 25006834 24919414 24834608 24752588 24672796 24594104 24515286 
3186.583 24435674 24354820 24273102 24191398 24110588 24030946 23952056 
3189.958 23873178 23793092 23710780 23625754 23538436 23449842 23361232 
3193.333 23273512 23187454 23102566 23018150 22933188 22846604 22758082 
3196.709 22667622 22575680 22483410 22391228 22300182 22210306 22121564 
3200.084 22033572 21946192 21859106 21772910 21688368 21606592 21528558 
3203.459 21454960 21385794 21320154 21256890 21194470 21131642 21067570 
3206.834 21001560 20933648 20863836 20792366 20719726 20647028 20575386 
3210.210 20506532 20441894 20382300 20327540 20276294 20226442 20175866 
3213.585 20123112 20067622 20010402 19952984 19896996 19843232 19791768 
3216.960 19741900 19692422 19642742 19592546 19542114 19492036 19442482 
3220.335 19393454 19344430 19294754 19244356 19193410 19142958 19093754 
3223.711 19046808 19001978 18958780 18916762 18875300 18834262 18794090 
3227.086 18755478 18718532 18683490 18650042 18617634 18586300 18556664 
3230.461 18529242 18505004 18483602 18463860 18443290 18418744 18387736 
3233.836 18348746 18301880 18249492 18195000 18142104 18094154 18053188 
3237.212 18019614 17992608 17970228 17950580 17931690 17912182 17891534 
3240.587 17869850 17847340 17824866 17802636 17780784 17758934 17736706 
3243.962 17713478 17688972 17663056 17636138 17608534 17580656 17552812 
3247.337 17525076 17497754 17471088 17445218 17420454 17396346 17372308 
3250.713 17346928 17319030 17287652 17252864 17215184 17176298 17137934 
3254.088 17101192 17066488 17033406 17000912 16968110 16935104 16902480 
3257.463 16871716 16844334 16821084 16801900 16785644 16770801 16755648 
3260.838 16739050 16720593 16700415 16679032 16656652 16633550 16609831 
3264.214 16585458 16560845 16536819 16514413 16494794 16478894 16467571 
3267.589 16460758 16458176 16458556 16460104 16460724 16457558 16448300 
3270.964 16431369 16406387 16374180 16336920 16297115 16257076 16218310 
3274.339 16181406 16145950 16111080 16076317 16041419 16007006 15973797 
3277.715 15942104 15912408 15884122 15856663 15829204 15801404 15773023 
3281.090 15744368 15715681 15687304 15659342 15632138 15606239 15581888 
3284.465 15559771 15539921 15522511 15506955 15492945 15480103 15468773 
3287.840 15459639 15453734 15451331 15452188 15455142 15458094 15458609 
3291.216 15454832 15445700 15431486 15413187 15392108 15369657 15346487 
3294.591 15322768 15298159 15272143 15244139 15214044 15182097 15148266 
3297.966 15113409 15077868 15042706 15009264 14979424 14955108 14938373 
3301.341 14930692 14932440 14942865 14960081 14980556 15000106 15014443 
3304.717 15019554 15012694 14992560 14959429 14915363 14863277 14806397 
3308.092 14747674 14689713 14633850 14581181 14532047 14486550 14444998 
3311.467 14407113 14372657 14341697 14313685 14288481 14266259 14247427 
3314.842 14231951 14220310 14211923 14205726 14200899 14196277 14191587 
3318.218 14187444 14185117 14186281 14192579 14204733 14222639 14245407 
3321.593 14271635 14299748 14328444 14356595 14383035 14406736 14426329 
3324.968 14440887 14449930 14453767 14453732 14452020 14450787 14452191 
3328.343 14457192 14465927 14477335 14490216 14503097 14515053 14525811 
3331.719 14535336 14543868 14551748 14558806 14565077 14570011 14573060 
3335.094 14573780 14571552 14565624 14555106 14539139 14516972 14488023 
3338.469 14452259 14410196 14362760 14311083 14255508 14196859 14134795 
3341.844 14068942 13999025 13925015 13847767 13769166 13691125 13615834 
3345.219 13545204 13479781 13419221 13362394 13307692 13253100 13197763 
3348.595 13140691 13081544 13019913 12955662 12888587 12818724 12746689 
3351.970 12673676 12601426 12531746 12465726 12403738 12345510 12289368 
3355.345 12234767 12180855 12128175 12078364 12032885 11992622 11957949 
3358.720 11927059 11897464 11866306 11831370 11791228 11746494 11698531 
3362.096 11649620 11602348 11558824 11520817 11489379 11464680 11446275 
3365.471 11432974 11422939 11413381 11402018 11386168 11364093 11334571 
3368.846 11297536 11253397 11203380 11148916 11091943 11034603 10979344 
3372.221 10928238 10883287 10845440 10814731 10790342 10770437 10753387 
3375.597 10737593 10721970 10706314 10690760 10675784 10661351 10647396 
3378.972 10633236 10618025 10600674 10580269 10556096 10527886 10496146 
3382.347 10461830 10426633 10392390 10361068 10334023 10311968 10294935 
3385.722 10282449 10273730 10268471 10266707 10268607 10274205 10283060 
3389.098 10293544 10303248 10309219 10308337 10298566 10279057 10250186 
3392.473 10213785 10172266 10128580 10085340 10044849 10009043 9978901 
3395.848 9954796 9936998 9924624 9917030 9912929 9911064 9909911 9907709 
3399.706 9902759 9893064 9877065 9853914 9823444 9786706 9745974 9703754 
3403.563 9662521 9624747 9591482 9563164 9539488 9519911 9503215 9488686 
3407.420 9475072 9461154 9445780 9428510 9409176 9388692 9368952 9351043 
3411.278 9336215 9324365 9314447 9304596 9293188 9278836 9262047 9243566 
3415.135 9225187 9208468 9193780 9181393 9170158 9159193 9147553 9134389 
3418.993 9119298 9101906 9081741 9058801 9033597 9007108 8981332 8958195 
3422.850 8939186 8924914 8914056 8904655 8894339 8881488 8865492 8847468 
3426.708 8828869 8811996 8797423 8785420 8774905 8764491 8752828 8739169 
3430.565 8723686 8706580 8688089 8668449 8647594 8625692 8603250 8581215 
3434.422 8560938 8543164 8528464 8516468 8505824 8495451 8484166 8471056 
3438.280 8455751 8437710 8416291 8391124 8362006 8329445 8294928 8260751 
3442.137 8229582 8203750 8183829 8169277 8157696 8146116 8131802 8113099 
3445.995 8089637 8061957 8032085 8001743 7972279 7945316 7921424 7900808 
3449.852 7883734 7869429 7856709 7844124 7830022 7812951 7792711 7769367 
3453.709 7743866 7717794 7692026 7666833 7642351 7618206 7594063 7570393 
3457.567 7548006 7527441 7509067 7492481 7476469 7460052 7442255 7422672 
3461.424 7402382 7382362 7363726 7347179 7332419 7318502 7304248 7288815 
3465.282 7272103 7254414 7236457 7218433 7200375 7181612 7161198 7138563 
3469.139 7113570 7086458 7058337 7030049 7002436 6975869 6950281 6925434 
3472.997 6901397 6878101 6855851 6835082 6815897 6798126 6781365 6765311 
3476.854 6749090 6732567 6715439 6697705 6679165 6660020 6639866 6618604 
3480.711 6596131 6572751 6548901 6525524 6503627 6484053 6466968 6451935 
3484.569 6437979 6423552 6406806 6386765 6362825 6335490 6305737 6275212 
3488.426 6245665 6218068 6193465 6171619 6152396 6135357 6120067 6105785 
3492.284 6091941 6078198 6063347 6046681 6028068 6007507 5985805 5964138 
3496.141 5943916 5925878 5910797 5898604 5888562 5880669 5874557 5869720 
3499.999 5865992 5862432 5857730 5849939 5837346 5818574 5794027 5765183 
3503.856 5734998 5706595 5682961 5665438 5654058 5647882 5644256 5641638 
3507.713 5638449 5634253 5629722 5626332 5625123 5627137 5632407 5639825 
3511.571 5647882 5654562 5657919 5656609 5649896 5638113 5622673 5605152 
3515.428 5587565 5572058 5559876 5552123 5549237 5551016 5556889 5566320 
3519.286 5578536 5592264 5606360 5619585 5630427 5637945 5641672 5641605 
3523.143 5638953 5635159 5632072 5631199 5633850 5640228 5650030 5662551 
3527.000 5676617 5691152 5705320 5718514 5730734 5741982 5752559 5762631 
3530.858 5772704 5783080 5793724 5804604 5815551 5825659 5834088 5840066 
3534.715 5843021 5842920 5840805 5838185 5837211 5840435 5849133 5864448 
3538.573 5886009 5912409 5941497 5971259 5999512 6024339 6045069 6060424 
3542.430 6069664 6071747 6066102 6051520 6028169 5996656 5958662 5917447 
3546.288 5876740 5840603 5812529 5794698 5787244 5788754 5795907 5803933 
3550.145 5808365 5804604 5789460 5762161 5723684 5677019 5626969 5578032 
3554.002 5534034 5497759 5469774 5449139 5433470 5419714 5404852 5386266 
3557.860 5362750 5334438 5303076 5270912 5240627 5214738 5194685 5181138 
3561.717 5173459 5170810 5171414 5173124 5172721 5166217 5148345 5113879 
3565.575 5058328 4980396 4882976 4774455 4666664 4572093 4500509 4456687 
3569.432 4439380 4442393 4457256 4475165 4488222 4491570 4483066 4463717 
3573.290 4435731 4402325 4366813 4331605 4298174 4267222 4238412 4211378 
3577.147 4185216 4159423 4133832 4108644 4084394 4061985 4042822 4027905 
3581.004 4018475 4015298 4018776 4028742 4044393 4063858 4083692 4099412 
3584.862 4105299 4095432 4065631 4014060 3944106 3863565 3784176 3718837 
3588.719 3677600 3665537 3681343 3719405 3769938 3822181 3866708 3895827 
3592.577 3904787 3893085 3863231 3820811 3772545 3725521 3685186 3654945 
3596.434 3635632 3625942 3622701 3621866 3618959 3610941 3595138 3571418 
3600.292 3541452 3509017 3478187 3453338 3437941 3433633 3440145 3455742 
3604.149 3477018 3499297 3517368 3525384 3518336 3492549 3447059 3385243 
3608.006 3314021 3242911 3182426 3139805 3117011 3110970 3114541 3119214 
3611.864 3117144 3104530 3081771 3052974 3024512 3001924 2988512 2983841 
3615.721 2984275 2984308 2978003 2959754 2926161 2876127 2812358 2740363 
3619.579 2668146 2604409 2555878 2525516 2513218 2514851 2525549 2540580 
3623.436 2557344 2576276 2599509 2629042 2664646 2700952 2727626 2729593 
3627.293 2691751 2605009 2473195 2316137 2164598 2049962 1990176 1984817 
3631.151 2019502 2074066 2128802 2167795 2183546 2174821 2147016 2108358 
3635.008 2067108 2029023 1996867 1970504 1948670 1930498 1915389 1903208 
3638.866 1893923 1887001 1881078 1874788 1867733 1860379 1854922 1854556 
3642.723 1862442 1881277 1911362 1950268 1994137 2036114 2069471 2087150 
3646.581 2083754 2056121 2004456 1931929 1844108 1748519 1654149 1570008 
3650.438 1505533 1468595 1462777 1488310 1539282 1606522 1676833 1736742 
3654.295 1773836 1779492 1752245 1699019 1635357 1579153 1545933 1543538 
3658.153 1570972 1619626 1677166 1731752 1773038 1794863 1796061 1779692 
3662.010 1752278 1721773 1696225 1682321 1684084 1703377 1739171 1789340 
3665.868 1850463 1918251 1988013 2054024 2111089 2155174 2187209 2214783 
3669.725 2254783 2331428 2467030 2676315 2961122 3310115 3701527 4105667 
3673.583 4488623 4809196 5025277 5103888 5032215 4826015 4521735 4161563 
3677.440 3777993 3390319 3011132 2651044 2323100 2042372 1820383 1661233 
3681.297 1559200 1502241 1475178 1465802 1467963 1480996 1506963 1546332 
3685.155 1596013 1647563 1690205 1712458 1706371 1670447 1610447 1536855 
3689.012 1461713 1393797 1337026 1292558 1260091 1240087 1234504 1244639 
3692.870 1269628 1305719 1346066 1383526 1411216 1425477 1425975 1416700 
3696.727 1403769 1393465 1390938 1397919 1413277 1433122 1451905 1464273 
3700.584 1466135 1456593 1437710 1415338 1396191 1386617 1390307 1407825 
3704.442 1436414 1471687 1509423 1545899 1579386 1609815 1637885 1663828 
3708.299 1686512 1702978 1708633 1699019 1670746 1623517 1560929 1490970 
3712.157 1423648 1369133 1334999 1324031 1335331 1363649 1402107 1443096 
3716.014 1479932 1508924 1528675 1541477 1550854 1560996 1573832 1589129 
3719.872 1603562 1613240 1615202 1608750 1597210 1585538 1578687 1580217 
3723.729 1588697 1599505 1606223 1603097 1587733 1562891 1535824 1516306 
3727.586 1512815 1529872 1565785 1614737 1667154 1712724 1744194 1757701 
3731.444 1754906 1741766 1725997 1712591 1701581 1686945 1660036 1614537 
3735.301 1549757 1473116 1398551 1341314 1311501 1311069 1335530 1376978 
3739.159 1429266 1489075 1556607 1633129 1716982 1800852 1869996 1903807 
3743.016 1882242 1795296 1653849 1492067 1359095 1292957 1304522 1379670 
3746.874 1490106 1605126 1697722 1750083 1755439 1717049 1646233 1556773 
3750.731 1461115 1367604 1283386 1216628 1176325 1170212 1200679 1262882 
3754.588 1345368 1432990 1511850 1571371 1606456 1618229 1611478 1591989 
3758.446 1564188 1531069 1495093 1460616 1435250 1426873 1441799 1480730 
3762.303 1537453 1600536 1656078 1692733 1704441 1693364 1667885 1640179 
3766.161 1620956 1613972 1617431 1624548 1627508 1620291 1600902 1571537 
3770.018 1537221 1504103 1476408 1457325 1447617 1447451 1455895 1472052 
3773.875 1494129 1519930 1547529 1575129 1601467 1625413 1645800 1659703 
3777.733 1664692 1657442 1637352 1606888 1572435 1542541 1525017 1524053 
3781.590 1538318 1562492 1588231 1607819 1616799 1614437 1603562 1589628 
3785.448 1577490 1569542 1566051 1565386 1565485 1565153 1564454 1564089 
3789.305 1564953 1567081 1570706 1576426 1585637 1600071 1621887 1651554 
3793.163 1686878 1722970 1753409 1772306 1776465 1767815 1752844 1741932 
3797.020 1744094 1764155 1799954 1843376 1880845 1897184 1879846 1822379 
3800.877 1730122 1619493 1516572 1445988 1421853 1444492 1501610 1574198 
3804.735 1640080 1679960 1681656 1643505 1575495 1497886 1433189 1396091 
3808.592 1390839 1411249 1446753 1487845 1528808 1570174 1615701 1669948 
3812.450 1733549 1801584 1863574 1905737 1915255 1886203 1824010 1746423 
3816.307 1678230 1641177 1646033 1689473 1756670 1825241 1872925 1881044 
3820.165 1839582 1752079 1637386 1524984 1441566 1403902 1412678 1457092 
3824.022 1519232 1580716 1628439 1655180 1662065 1657076 1651488 1655013 
3827.879 1672276 1701514 1736144 1768047 1790006 1798357 1794231 1782719 
3831.737 1770343 1763756 1767748 1783485 1809603 1841878 1874422 1900146 
3835.594 1911029 1900845 1866203 1809104 1736776 1662431 1599339 1557205 
3839.452 1539914 1543871 1561096 1581348 1596512 1601368 1595248 1580815 
3843.309 1563257 1548726 1542075 1546997 1565020 1595315 1635989 1684284 
3847.167 1738106 1795961 1857983 1925739 2000994 2083321 2168827 2247156 
3851.024 2301914 2313473 2261877 2136860 1947805 1728193 1524053 1375848 
3854.881 1303126 1300268 1347728 1421587 1503039 1579120 1643805 1695793 
3858.739 1736243 1767582 1791436 1809403 1823045 1834158 1844141 1853358 
3862.596 1860013 1861211 1853891 1838151 1818453 1803913 1804878 1828435 
3866.454 1874522 1934226 1991441 2028091 2028291 1984651 1903275 1803580 
3870.311 1712092 1649659 1624980 1632297 1657308 1682820 1696092 1693231 
3874.168 1678529 1662730 1658206 1673906 1711726 1766950 1829966 1889797 
3878.026 1935557 1959354 1957191 1931397 1890329 1846503 1814461 1805577 
3881.883 1824243 1866835 1921712 1973667 2005288 2003558 1963548 1892825 
3885.741 1810168 1738705 1699385 1700915 1739370 1800386 1865038 1914823 
3889.598 1935158 1919549 1871394 1803081 1731453 1673340 1640379 1636488 
3893.456 1659138 1701980 1757834 1819951 1883241 1944277 2000162 2047965 
3897.313 2085485 2110056 2120245 2116150 2099735 2074232 2043537 2010714 
3901.170 1977028 1941781 1903075 1858716 1808538 1754840 1702113 1656776 
3905.028 1624714 1609316 1611411 1629005 1658273 1694396 1733216 1771042 
3908.885 1805344 1834458 1858216 1876718 1891627 1904839 1919116 1936855 
3912.743 1959587 1986981 2017072 2045968 2068672 2081457 2081823 2070403 
3916.600 2049530 2024296 1999397 1978626 1963249 1952797 1946174 1941781 
3920.458 1939218 1938685 1940716 1945309 1951599 1957790 1961551 1961518 
3924.315 1957390 1951067 1945608 1944510 1950368 1963914 1983885 2007885 
3928.172 2032751 2055322 2073400 2085418 2090679 2088881 2080524 2066808 
3932.030 2049763 2032585 2019070 2012079 2013843 2023830 2039842 2058052 
3935.887 2074465 2085785 2090879 2090313 2086584 2082722 2081024 2082322 
3939.745 2085518 2088448 2088149 2082788 2071702 2056254 2039609 2025594 
3943.602 2018038 2019303 2030088 2049130 2073267 2098603 2120811 2135828 
3947.459 2141322 2136660 2123042 2103065 2080524 2058785 2040608 2027725 
3951.317 2020601 2019303 2023098 2031487 2043204 2057053 2071402 2084287 
3955.174 2094208 2099968 2101533 2099802 2096239 2092943 2091278 2092077 
3959.032 2095140 2099902 2105096 2109457 2112654 2114385 2114785 2114452 
3962.889 2114185 2114285 2115584 2118580 2123208 2129768 2137526 2145917 
3966.747 2153942 2160469 2164964 2166862 2166496 2164265 2161335 2159137 
3970.604 2158537 2160735 2166030 2174388 2184911 2196001 2206091 2213518 
3974.461 2217747 2218147 2215882 2212419 2208955 2206824 2206657 2208656 
3978.319 2212519 2217881 2224175 2230869 2237530 2243125 2246356 2246556 
3982.176 2243192 2236664 2228471 2220645 2215583 2214883 2219346 2228471 
3986.034 2241260 2256048 2271669 2287291 2302547 2316904 2329829 2340389 
3989.891 2347518 2350649 2349850 2346252 2341588 2337990 2336958 2339323 
3993.749 2344886 2352681 2361576 2370671 2379300 2387096 2394592 2401356 
3997.606 2407420 2412418 2416083 2417749 2417015 2413350 2406120 
##END=
