##TITLE=966_2_a
##JCAMP-DX=5.01  $$ Nicolet v. 1
##DATATYPE=INFRARED SPECTRUM
##ORIGIN=UniL
##OWNER=Nicolet
##LONGDATE=2011/09/29
##TIME=10:03:25
##SPECTROMETER/DATA SYSTEM=Nicolet iS5
##DATA PROCESSING=
Ratio against background
%Transmittance->Absorbance
Truncated
ElementMultiply or ElementDivide
##COMMENTS=
Number of sample scans: 32
Collection length: 51.19 sec
Sample gain: 2.0
Background collected on: Jeu Sep 29 10:02:00 2011 (GMT+02:00);
Number of background scans: 32
Background gain: 2.0
Sample spacing:  1.000
Number of scan points: 12415
Resolution points: 8192
Number of FFT points: 65536
Apodization: N-B fort;
Phase correction: Mertz;
Laser frequency: 15798.0 cm-1
Number of rejected sample scans: 0
Number of rejected background scans: 0
Bench serial number: ASB1000141;
##RESOLUTION=4.000
##XUNITS=1/CM
##YUNITS=ABSORBANCE
##FIRSTX=649.893372
##LASTX=4000.122314
##FIRSTY=0.071125
##MAXX=4000.122314
##MINX=649.893372
##MAXY=0.250865
##MINY=0.002701
##XFACTOR=1.000000
##YFACTOR=1.000000E-009
##NPOINTS=6950
##DELTAX=0.482117
##ZPD=6100
##XYDATA=(X++(Y..Y))
649.893 71125128 71771120 72473328 73232152 74043032 74895520 75777872 
653.268 76684920 77624128 78616240 79689712 80871208 82177032 83610560 
656.643 85164680 86833104 88618280 90535728 92613024 94882272 97376128 
660.018 100121696 103134688 106412688 109917040 113562120 117191528 
662.911 120596680 123558928 125870584 127390176 128035728 127754304 
665.803 126500696 124237392 120997024 116960368 112525496 108232400 
668.696 104532904 101640176 99507560 97947768 96744048 95723904 94786928 
672.071 93893968 93054016 92294904 91646152 91120336 90712408 90407912 
675.446 90195144 90072576 90051944 90152088 90391144 90780272 91318672 
678.820 91994792 92791904 93695960 94699352 95805944 97029432 98390144 
682.195 99911952 101618608 103536296 105695808 108133360 110894368 114029576 
685.570 117586976 121614184 126153928 131247816 136941872 143279344 
688.463 150279216 157889312 165934880 174056704 181649216 187949600 
691.355 192083904 193228256 190862976 184858512 175566640 163722752 
694.248 150362176 136622128 123497816 111829024 102156336 94701584 89453256 
697.623 86207160 84670008 84520040 85496856 87436488 90259216 93939624 
700.998 98427096 103549328 108970344 114154704 118401672 121036784 121514280 
704.373 119589304 115391488 109397200 102320568 94894224 87796456 81500984 
707.747 76232704 72026680 68772920 66304400 64444124 63051240 62027240 
711.122 61296264 60798644 60479908 60288232 60185800 60151816 60181616 
714.497 60279740 60448300 60678604 60951124 61240408 61524848 61795948 
717.872 62059156 62329824 62622212 62944712 63295236 63664884 64045168 
721.247 64435900 64844876 65287536 65778540 66324668 66922432 67558840 
724.621 68214904 68870792 69510136 70118456 70682592 71191136 71634184 
727.996 72009160 72326848 72614648 72915256 73275416 73738032 74329264 
731.371 75052944 75893952 76827224 77832056 78897832 80030040 81243944 
734.746 82556576 83977128 85503760 87127400 88840440 90646680 92567176 
738.121 94635112 96890384 99367424 102085368 105050912 108262840 111722984 
741.496 115445816 119462248 123815976 128567728 133795800 139600240 
744.388 146121200 153521616 161947824 171458592 181915712 192884688 
747.281 203510688 212628864 218901424 221103920 218604672 211575760 
750.174 201065792 188640080 176108480 165121360 156794432 151745376 
753.066 150010528 151170864 154456016 158936208 163738944 168077664 
755.959 171402864 173408560 173961552 173052864 170720272 167006048 
758.852 161947776 155606864 148112976 139689600 130672112 121502584 
761.744 112640144 104546056 97617216 92107704 88136784 85660688 84500920 
765.119 84366864 84913248 85813392 86762048 87526592 87956080 87962848 
768.494 87527320 86684328 85519456 84151960 82719168 81365808 80206880 
771.869 79317712 78726688 78420128 78358840 78498912 78810104 79277824 
775.244 79899784 80674872 81593696 82635640 83775800 84990520 86266440 
778.619 87601864 89000488 90463568 91983896 93542728 95116536 96683760 
781.993 98229256 99746624 101233088 102681456 104075976 105390256 106590984 
785.368 107647744 108536464 109241944 109756088 110071384 110175952 
788.261 110054136 109688008 109064936 108184152 107057696 105708064 
791.154 104160240 102437336 100555312 98524320 96354504 94060776 91664112 
794.528 89190496 86663944 84101688 81513816 78907648 76294464 73699592 
797.903 71159552 68722072 66435352 64334452 62440260 60757028 59278808 
801.278 57995088 56895444 55969428 55201876 54570912 54048512 53602304 
804.653 53204940 52838772 52496284 52178988 51891004 51634820 51409520 
808.028 51214232 51053768 50942392 50905768 50977976 51190860 51570340 
811.402 52128620 52860400 53740168 54720320 55732488 56680232 57450176 
814.777 57928448 58009708 57628192 56771984 55490372 53883396 52081736 
818.152 50227744 48437932 46795272 45346308 44104232 43062684 42205396 
821.527 41513792 40965780 40536080 40198792 39927724 39702388 39512804 
824.902 39357548 39241152 39167824 39136388 39139396 39166156 39206952 
828.277 39258560 39324752 39413308 39530372 39676576 39845460 40026576 
831.651 40210824 40394384 40579952 40775096 40987156 41219388 41470484 
835.026 41736568 42015084 42308016 42621876 42964348 43340952 43751556 
838.401 44191092 44652444 45131968 45632372 46163312 46737228 47364956 
841.776 48051816 48797736 49598868 50452952 51361556 52330708 53367064 
845.151 54473540 55644872 56865752 58113520 59357396 60561040 61685220 
848.525 62681808 63497944 64082192 64387672 64387476 64083724 63514164 
851.900 62747344 61871708 60986012 60172712 59492420 58978720 58637764 
855.275 58457208 58412212 58474080 58612508 58798932 59011172 59233312 
858.650 59458452 59688652 59932820 60202892 60508816 60857956 61253380 
862.025 61696792 62191048 62739804 63344300 63996636 64674064 65334216 
865.400 65913840 66342624 66549888 66478984 66102348 65424116 64483328 
868.774 63342504 62084956 60802760 59581196 58501300 57628572 57007636 
872.149 56665960 56612584 56843544 57348600 58118784 59150876 60449860 
875.524 62028312 63903152 66091268 68600472 71420568 74506864 77774152 
878.899 81079104 84216960 86956392 89044168 90256448 90454560 89603264 
882.274 87798400 85241000 82226672 79082160 76102792 73548072 71594712 
885.648 70340080 69821568 70025360 70903992 72380120 74355920 76704848 
889.023 79258648 81823168 84167608 86038400 87209856 87494368 86785520 
892.398 85082368 82491064 79212808 75494240 71613360 67822224 64307592 
895.773 61196728 58541980 56339036 54547584 53111508 51973680 51079636 
899.148 50383028 49843488 49423888 49094728 48833920 48627524 48468864 
902.523 48354628 48280228 48238092 48216912 48205620 48196920 48189552 
905.897 48188552 48200472 48231576 48282932 48351148 48430116 48515136 
909.272 48604996 48702468 48812048 48936712 49075956 49226192 49382308 
912.647 49541376 49704740 49877048 50064744 50272084 50499360 50742884 
916.022 50998208 51261996 51535156 51821896 52127648 52455604 52804984 
919.397 53170560 53545968 53926572 54311532 54704196 55110272 55535624 
922.771 55984092 56458788 56963892 57506076 58095452 58742068 59449372 
926.146 60208372 60991920 61758856 62455296 63026680 63432300 63650684 
929.521 63687556 63572892 63357680 63103616 62870256 62715076 62681468 
932.896 62798576 63082308 63534648 64146096 64896660 65758684 66696636 
936.271 67665848 68620152 69510880 70295320 70946680 71458648 71850720 
939.646 72164688 72461264 72808160 73263688 73873792 74662304 75631264 
943.020 76764544 78032112 79395360 80803120 82196800 83509992 84665976 
946.395 85592408 86226032 86521416 86461528 86059536 85357656 84415640 
949.770 83307232 82110688 80895800 79728608 78664688 77744112 76994968 
953.145 76428864 76042872 75822808 75748600 75800480 75960728 76216864 
956.520 76560448 76983536 77478832 78038376 78654920 79324592 80047216 
959.894 80827144 81670304 82582696 83568464 84630624 85772696 87002088 
963.269 88331368 89779408 91368648 93119128 95046208 97155400 99441864 
966.644 101891648 104487296 107214088 110064936 113045384 116172968 
969.537 119472504 122964248 126650232 130496216 134424928 138304976 
972.429 141953968 145173536 147759104 149542736 150434224 150436800 
975.322 149663104 148308192 146643648 144964048 143533168 142578384 
978.215 142242352 142571200 143510384 144908480 146535456 148088224 
981.108 149254912 149744304 149319920 147857824 145351024 141915408 
984.000 137751280 133119984 128300816 123534008 119025568 114923512 
986.893 111311472 108227128 105664824 103590336 101949880 100683384 99733952 
990.268 99047896 98581232 98298432 98167944 98163336 98261952 98443880 
993.643 98694088 99002408 99361928 99768224 100217088 100702640 101217984 
997.017 101755336 102308240 102873232 103449624 104039048 104643360 
999.910 105263240 105897536 106543600 107198520 107860920 108530808 
1002.803 109210200 109901672 110607152 111327792 112064760 112819392 
1005.695 113595176 114396968 115230224 116099896 117008824 117957048 
1008.588 118942376 119962000 121013096 122094168 123204040 124341760 
1011.481 125504984 126690864 127896040 129119008 130361768 131630792 
1014.374 132936208 134290032 135704944 137191568 138757440 140408176 
1017.266 142147472 143977952 145901712 147919952 150031600 152231728 
1020.159 154511392 156854192 159233760 161614032 163941680 166147680 
1023.052 168154224 169873072 171224080 172151104 172631632 172689120 
1025.945 172388912 171835472 171146192 170433936 169795232 169288272 
1028.838 168931584 168699776 168529920 168322048 167944096 167255360 
1031.731 166104752 164351696 161894128 158671312 154683376 149991808 
1034.624 144720400 139041568 133149568 127261712 121580216 116270008 
1037.517 111459080 107215736 103554800 100449408 97844608 95675040 93873280 
1040.892 92383552 91158264 90157344 89348032 88700856 88190080 87796128 
1044.267 87504496 87304936 87190504 87154504 87189328 87287432 87441472 
1047.643 87647264 87902808 88207656 88559608 88951928 89369800 89792248 
1051.018 90192616 90541480 90812368 90984264 91043672 90987856 90824336 
1054.393 90572624 90260200 89922808 89599360 89323936 89124144 89016672 
1057.768 89006704 89090704 89259680 89502152 89803368 90143640 90496184 
1061.144 90821800 91074072 91202568 91158384 90907296 90433536 89744656 
1064.519 88867840 87846704 86735264 85586352 84451496 83375680 82392032 
1067.894 81523968 80783320 80171176 79681592 79305544 79034584 78862584 
1071.269 78787104 78805856 78915392 79109072 79377256 79708344 80092432 
1074.645 80522168 80992896 81502056 82046408 82621456 83222264 83845208 
1078.020 84491864 85169840 85894104 86684536 87561888 88546808 89657520 
1081.395 90909744 92320680 93909096 95695488 97702808 99952328 102460704 
1084.770 105238200 108284136 111585360 115108848 118803704 122597272 
1087.663 126394120 130093408 133592176 136799264 139652848 142119264 
1090.556 144191200 145875712 147178112 148087808 148575872 148601776 
1093.449 148135904 147184912 145814560 144156992 142393120 140747488 
1096.343 139436192 138637376 138476544 138995216 140149552 141803104 
1099.236 143750400 145720928 147397152 148477072 148681440 147800128 
1102.129 145733024 142489248 138190960 133035048 127279520 121197808 
1105.022 115036680 109024472 103339520 98103728 93396320 89247264 85648816 
1108.397 82566304 79950016 77744384 75890672 74335672 73027912 71916872 
1111.772 70957600 70108368 69333560 68608472 67916632 67250464 66609016 
1115.147 65994368 65410444 64861184 64351700 63887724 63474744 63117868 
1118.523 62819936 62580688 62397144 62264964 62179540 62137520 62136756 
1121.898 62175444 62250736 62359088 62495776 62656848 62840656 63048788 
1125.273 63285268 63555748 63865692 64219228 64619312 65068596 65569900 
1128.648 66127540 66745856 67427896 68173224 68976808 69828848 70715736 
1132.024 71620304 72523992 73407272 74249176 75029944 75732232 76344040 
1135.399 76863208 77299856 77678256 78031872 78403216 78837000 79371408 
1138.774 80040000 80867536 81869256 83054256 84424688 85976280 87697464 
1142.149 89569752 91568080 93659008 95803880 97958600 100069832 102080088 
1145.525 103923832 105526152 106813096 107710672 108152488 108092344 
1148.418 107504784 106390544 104773400 102697952 100223936 97416800 94351208 
1151.793 91103824 87747624 84356080 80993608 77712888 74560056 71569944 
1155.168 68769464 66181020 63819676 61693240 59802336 58139352 56691556 
1158.543 55441464 54371764 53463776 52697944 52053644 51507552 51034092 
1161.919 50610220 50215280 49834904 49461428 49092388 48728228 48370076 
1165.294 48018840 47675656 47343156 47026832 46734572 46475068 46255708 
1168.669 46080520 45949528 45860220 45809956 45797436 45823800 45891556 
1172.044 46003048 46159076 46358884 46601052 46884956 47212816 47588984 
1175.420 48018952 48507060 49055628 49664284 50331608 51056192 51838172 
1178.795 52679056 53578728 54534060 55535588 56567480 57610296 58643568 
1182.170 59649496 60617112 61542216 62428400 63284612 64125664 64970612 
1185.545 65839952 66756172 67738920 68799896 69940272 71146280 72389816 
1188.921 73627712 74808360 75878560 76785064 77485088 77947376 78152608 
1192.296 78094776 77778152 77214944 76421552 75416816 74220952 72853728 
1195.671 71338984 69707648 67998080 66262252 64560792 62951944 61489000 
1199.046 60205708 59111084 58190872 57413224 56740040 56134248 55570308 
1202.422 55036136 54530980 54061684 53638184 53270712 52966996 52732700 
1205.797 52571296 52483124 52465396 52512400 52616924 52771944 52973172 
1209.172 53220144 53516092 53865916 54273608 54741104 55268180 55853432 
1212.547 56496828 57201388 57972292 58816800 59741080 60748796 61841104 
1215.923 63018024 64280548 65632180 67080168 68634472 70307048 72108592 
1219.298 74049480 76139664 78388648 80806992 83405104 86190872 89167384 
1222.673 92328672 95658400 99125280 102684648 106278680 109829728 113246696 
1226.048 116422208 119226432 121523712 123174072 124044600 124038864 
1228.941 123105480 121254528 118556360 115140120 111179720 106861144 
1231.834 102386416 97948304 93707352 89802992 86333944 83356488 80894808 
1235.210 78942728 77474000 76448936 75822376 75547272 75573648 75854848 
1238.585 76347000 77008576 77805816 78708656 79688560 80718000 81764008 
1241.960 82787000 83745384 84594792 85295752 85821784 86159800 86313816 
1245.335 86301568 86153536 85907464 85604232 85289584 85007936 84798480 
1248.711 84694240 84713576 84858736 85116064 85459864 85857640 86275576 
1252.086 86687288 87074112 87427496 87748192 88045464 88336776 88644856 
1255.461 88999424 89432416 89971592 90638464 91440584 92369664 93399360 
1258.836 94488304 95584648 96624080 97538976 98260464 98717296 98847032 
1262.212 98597696 97932656 96838776 95325616 93425896 91187448 88670288 
1265.587 85941424 83066496 80116384 77162864 74271936 71507752 68922672 
1268.962 66553204 64423984 62547052 60926380 59561812 58449624 57582188 
1272.337 56945528 56520376 56283512 56209592 56277252 56470376 56777872 
1275.713 57193188 57710760 58324020 59025784 59808836 60668128 61602240 
1279.088 62613524 63706392 64885384 66154472 67517224 68978088 70544744 
1282.463 72227680 74038560 75985944 78069984 80277232 82577128 84925088 
1285.838 87263856 89526384 91648680 93569312 95234144 96603176 97646136 
1289.214 98344352 98690264 98683528 98328272 97628368 96584264 95191568 
1292.589 93445504 91347008 88912528 86180248 83217808 80113912 76971984 
1295.964 73907768 71029200 68435400 66216180 64438284 63149364 62372168 
1299.339 62102388 62309208 62938236 63923464 65187276 66649384 68236456 
1302.715 69873328 71487944 73013440 74380936 75528504 76406184 76975312 
1306.090 77214472 77118216 76694920 75966568 74971192 73771720 72453704 
1309.465 71129648 69932520 68983448 68378072 68155432 68282824 68650112 
1312.840 69084976 69401320 69419584 69018168 68157520 66877672 65283416 
1316.216 63508496 61697976 59971848 58410396 57057964 55922996 54992508 
1319.591 54243540 53654524 53209060 52895096 52703740 52626164 52652084 
1322.966 52771232 52974184 53253144 53602644 54017444 54490860 55014244 
1326.341 55575616 56161548 56759296 57357148 57946280 58520596 59075628 
1329.717 59608864 60118480 60604580 61068872 61515496 61950920 62381924 
1333.092 62815116 63255980 63707700 64172024 64650184 65143192 65652564 
1336.467 66179708 66725768 67290840 67874912 68478304 69103400 69754912 
1339.842 70439400 71164704 71936856 72758640 73629592 74546752 75506504 
1343.218 76507096 77549736 78639792 79785184 80994048 82273480 83627104 
1346.593 85054928 86554576 88122856 89757488 91458080 93224752 95056144 
1349.968 96947792 98890680 100873560 102884904 104917912 106974352 109064936 
1353.343 111207792 113424424 115737976 118168336 120732728 123445152 
1356.236 126312392 129329648 132470312 135684480 138891168 141985104 
1359.129 144861904 147425760 149615504 151415904 152855888 153998064 
1362.022 154915776 155686576 156373184 157019888 157657632 158303056 
1364.916 158960960 159625728 160284576 160923152 161534240 162128400 
1367.809 162739056 163422160 164238768 165245056 166477744 167949104 
1370.702 169654320 171580704 173720464 176072432 178638544 181416304 
1373.595 184388608 187524336 190788208 194156160 197626544 201215696 
1376.488 204942432 208800960 212739680 216642688 220348064 223660672 
1379.381 226369344 228284048 229225408 229027152 227563744 224767008 
1382.274 220674112 215436128 209307840 202575808 195459232 188082720 
1385.167 180447936 172482064 164109744 155332928 146268688 137131952 
1388.060 128168656 119586376 111527824 104065744 97236504 91070600 85586672 
1391.435 80795696 76688592 73227408 70354768 68004352 66122064 64661524 
1394.811 63581368 62837556 62366468 62093596 61951988 61893180 61908080 
1398.186 62028728 62324816 62878756 63758924 65007208 66630340 68612312 
1401.561 70923464 73528448 76375016 79374160 82398920 85268816 87763112 
1404.936 89671000 90812040 91077424 90447656 88982472 86806152 84072904 
1408.312 80965224 77669216 74356008 71192768 68314240 65812000 63738124 
1411.687 62100972 60882924 60054900 59591720 59475284 59689072 60212408 
1415.062 61012856 62045244 63266412 64639992 66148220 67795232 69598024 
1418.437 71571072 73705440 75966880 78303568 80666928 83030232 85387704 
1421.813 87744304 90093848 92406712 94623624 96652632 98396464 99771600 
1425.188 100719528 101210536 101225512 100741712 99732408 98177128 96085464 
1428.563 93510952 90560456 87377944 84107360 80883384 77813824 74977760 
1431.938 72439728 70242928 68404408 66915436 65739908 64827560 64127200 
1435.313 63609980 63280748 63175656 63338400 63788280 64502052 65420800 
1438.689 66471496 67585272 68712288 69815304 70867992 71853296 72755776 
1442.064 73563960 74270208 74871544 75369712 75769072 76073808 76284440 
1445.439 76397016 76405592 76309520 76121392 75874736 75618448 75405424 
1448.814 75277816 75251680 75319072 75458088 75650472 75891312 76193288 
1452.190 76578192 77064128 77651592 78320192 79027504 79719768 80346840 
1455.565 80868496 81270992 81570224 81808768 82028752 82250536 82472712 
1458.940 82682248 82871448 83043912 83213072 83394704 83600112 83830904 
1462.315 84080704 84339584 84602568 84876264 85181888 85548704 86010128 
1465.691 86595144 87323160 88211480 89274888 90524744 91965104 93588392 
1469.066 95374976 97287576 99279880 101297720 103269792 105114432 106739120 
1472.441 108051208 108977368 109471632 109512400 109093432 108215352 
1475.334 106891488 105158456 103084784 100765656 98295776 95754344 93182944 
1478.709 90586824 87953888 85273536 82551848 79821776 77133096 74538056 
1482.085 72079840 69780904 67645016 65665016 63828388 62123108 60538868 
1485.460 59068036 57706064 56453920 55317512 54306764 53431512 52697832 
1488.835 52106020 51652508 51335752 51158168 51125628 51241116 51497588 
1492.210 51874908 52342444 52862124 53399140 53927360 54431624 54911060 
1495.586 55373372 55827316 56271784 56691860 57060876 57351852 57545528 
1498.961 57638788 57644652 57590848 57513492 57448356 57428808 57478276 
1502.336 57607648 57813360 58076548 58364572 58628356 58813500 58873600 
1505.711 58793280 58610156 58413844 58310760 58364344 58577128 58904984 
1509.087 59290052 59681432 60044892 60366888 60648924 60904232 61150568 
1512.462 61404952 61677736 61970024 62274180 62576824 62864392 63128636 
1515.837 63374400 63621880 63904880 64255572 64691560 65206020 65769324 
1519.212 66335596 66855064 67295336 67655856 67979400 68331536 68775480 
1522.588 69336200 69993440 70697096 71389872 72029960 72594904 73089456 
1525.963 73537512 73972864 74423488 74905392 75425880 75989464 76604200 
1529.338 77281328 78029584 78848168 79721360 80624440 81531240 82428840 
1532.713 83330512 84280600 85341808 86561408 87956360 89505864 91169744 
1536.089 92899736 94654728 96412424 98157480 99892888 101638792 103435504 
1539.464 105332736 107371720 109581264 111958576 114480672 117124448 
1542.357 119869328 122701816 125607984 128567456 131543096 134481632 
1545.250 137326336 140021408 142517456 144773104 146731152 148315792 
1548.143 149445552 150044608 150088896 149627744 148781424 147687360 
1551.036 146439024 145058656 143499968 141697392 139625808 137346688 
1553.929 135012016 132821800 130926016 129372360 128080528 126876312 
1556.822 125522200 123775168 121472864 118622408 115476072 112447488 
1559.715 109902272 107971496 106568968 105504984 104590872 103677120 
1562.608 102643808 101406264 99916792 98178368 96249696 94230632 92231560 
1565.984 90319752 88499192 86706704 84841368 82798464 80517144 78016176 
1569.359 75402152 72836296 70466840 68383160 66597164 65066636 63726344 
1572.734 62513068 61374456 60268132 59162760 58044432 56934232 55901852 
1576.109 55060432 54537928 54422424 54741368 55471960 56569252 57993576 
1579.485 59724348 61763556 64125584 66825688 69867872 73231016 76862176 
1582.860 80678856 84555664 88332224 91830400 94850776 97212056 98774440 
1586.235 99445776 99201424 98084504 96215664 93780416 91018872 88211352 
1589.610 85616168 83455496 81896184 81031664 80903072 81505656 82804440 
1592.986 84739512 87232744 90199344 93537384 97136248 100887904 104680168 
1596.361 108414216 112010672 115398320 118511568 121279976 123614512 
1599.254 125421120 126613784 127130312 126952200 126105472 124655864 
1602.147 122689912 120312504 117642400 114797472 111899624 109057824 
1605.040 106347960 103815456 101470504 99299360 97279032 95390080 93623896 
1608.415 91979800 90459288 89059992 87772688 86587008 85496984 84505792 
1611.791 83623896 82861256 82217584 81673704 81190416 80710776 80177424 
1615.166 79545360 78808720 78014784 77261608 76664048 76303392 76206992 
1618.541 76346496 76665552 77098272 77588592 78099456 78609608 79119048 
1621.916 79646448 80227008 80901632 81706256 82663136 83772752 85019416 
1625.292 86375576 87811464 89296176 90799752 92298960 93775560 95222008 
1628.667 96640712 98043600 99447816 100869056 102320488 103809312 105339288 
1632.042 106908656 108515872 110163136 111858512 113624616 115502184 
1634.935 117554400 119844448 122418384 125292792 128441440 131824568 
1637.828 135406112 139164960 143094272 147195920 151480176 155950032 
1640.721 160599552 165415056 170364624 175402816 180478416 185520800 
1643.614 190458672 195233568 199803792 204170144 208378016 212519072 
1646.507 216679856 220912288 225216624 229535232 233789280 237892288 
1649.400 241763984 245279680 248221488 250256592 250865072 249433440 
1652.293 245536912 239368624 231921104 224473024 217871248 212219088 
1655.187 207165040 202231168 197056624 191456400 185411152 179016256 
1658.080 172417248 165761728 159128208 152528352 145921872 139247312 
1660.973 132460192 125563560 118623232 111767128 105165296 98986472 93360456 
1664.348 88348264 83937976 80064944 76631984 73535152 70683800 68018000 
1667.723 65520464 63220032 61181164 59479200 58172916 57282964 56790032 
1671.098 56644896 56791656 57177688 57761092 58517376 59437896 60532548 
1674.474 61826472 63352852 65136148 67174880 69450136 71934664 74610608 
1677.849 77475432 80539040 83812408 87285856 90926944 94685920 98502992 
1681.224 102342376 106202296 110114336 114134672 118315024 122663408 
1684.117 127093152 131439536 135509984 139139936 142213632 144644816 
1687.010 146371216 147331552 147489168 146844944 145434016 143321712 
1689.903 140589456 137339552 133692920 129784376 125756280 121706088 
1692.796 117652960 113520032 109142848 104335392 99007200 93289880 87568296 
1696.172 82343648 77972520 74537744 71856496 69623192 67515016 65310032 
1699.547 62971024 60666068 58679860 57218628 56286868 55709056 55253352 
1702.922 54702056 53901964 52758472 51225456 49307288 47055336 44562224 
1706.297 41937784 39292252 36721584 34292092 32042884 29983448 28096588 
1709.673 26351796 24720564 23190740 21771656 20486352 19353472 18374740 
1713.048 17525108 16761882 16037500 15322253 14613871 13933705 13309401 
1716.423 12755287 12261385 11802940 11359740 10936732 10562954 10274815 
1719.798 10092258 10006534 9984258 9979715 9955813 9893844 9802432 9708193 
1723.656 9642329 9620681 9635858 9662419 9672854 9652797 9606759 9554221 
1727.513 9515779 9501725 9505247 9507076 9487839 9441378 9378094 9319457 
1731.371 9282187 9267361 9253585 9206234 9093752 8915037 8708472 8536540 
1735.228 8445784 8443318 8500216 8571482 8618223 8615924 8563371 8478557 
1739.085 8390314 8320529 8274732 8240861 8200881 8143415 8070362 7994115 
1742.943 7928646 7879483 7839198 7790956 7718266 7615070 7489312 7359243 
1746.800 7242555 7148162 7069686 6990348 6891465 6764604 6616888 6469087 
1750.658 6344164 6255951 6202943 6173132 6152261 6133206 6118152 6114254 
1754.515 6126217 6151085 6177232 6188995 6176862 6143826 6106424 6084986 
1758.373 6093790 6132131 6185298 6230068 6246505 6228017 6185466 6141776 
1762.230 6119933 6132198 6173669 6228992 6281398 6321538 6350586 6376443 
1766.087 6406672 6444167 6483447 6515433 6533260 6538171 6538945 6546984 
1769.945 6568142 6597073 6617964 6612212 6570262 6500130 6426108 6375468 
1773.802 6365481 6394062 6444268 6493235 6525120 6535985 6535043 6537330 
1777.660 6554687 6588629 6628999 6659852 6668566 6654502 6629639 6612784 
1781.517 6618099 6647739 6690572 6729639 6749528 6746230 6729101 6715641 
1785.375 6721799 6753297 6803915 6860160 6910150 6949271 6982435 7019340 
1789.232 7067430 7125460 7182353 7220791 7228034 7202970 7159985 7121149 
1793.089 7106464 7122024 7159649 7203037 7238546 7261153 7276416 7294678 
1796.947 7325140 7368882 7417751 7458536 7479873 7479503 7465783 7453985 
1800.804 7457659 7481525 7519518 7560177 7592917 7614766 7631324 7652906 
1804.662 7687271 7735535 7790147 7839805 7876008 7897501 7911571 7929253 
1808.519 7959995 8004814 8057197 8105503 8141288 8164685 8184808 8214758 
1812.376 8264669 8336100 8421494 8508393 8586487 8652867 8713002 8776866 
1816.234 8852304 8940539 9034409 9122614 9195269 9250504 9293594 9334724 
1820.091 9381277 9433894 9485300 9524280 9541385 9533425 9504502 9463456 
1823.949 9419402 9377146 9336858 9296506 9255785 9218283 9189753 9174389 
1827.806 9170192 9167925 9155066 9120923 9064417 8997502 8940168 8910675 
1831.664 8916187 8950281 8996419 9036710 9058903 9061880 9054674 9051290 
1835.521 9061643 9087493 9121599 9153881 9177569 9194592 9214188 9248271 
1839.378 9303986 9378838 9460917 9534746 9587925 9615363 9620987 9614347 
1843.236 9606149 9602626 9604184 9608520 9615668 9629354 9656558 9702094 
1847.093 9764476 9835239 9902250 9954423 9988292 10009518 10030438 10063738 
1850.951 10115081 10180644 10249608 10310882 10358387 10395139 10431011 
1854.326 10476527 10536134 10605359 10672185 10723974 10754406 10766259 
1857.701 10769452 10775464 10790579 10812047 10830969 10837593 10828591 
1861.076 10809601 10793501 10792210 10812081 10849483 10893445 10932043 
1864.452 10958785 10976116 10992835 11018086 11054826 11096633 11130762 
1867.827 11145312 11137663 11117810 11104553 11117334 11164146 11239115 
1871.202 11325423 11405182 11466040 11506051 11532454 11555252 11580262 
1874.577 11606125 11624401 11625558 11606568 11572639 11537150 11513638 
1877.953 11510610 11526941 11553244 11577575 11593023 11600714 11608746 
1881.328 11626307 11657992 11700641 11745371 11783568 11812065 11836274 
1884.703 11867464 11916467 11986900 12071824 12157206 12228326 12276552 
1888.078 12303547 12319875 12340328 12375748 12428559 12493619 12563941 
1891.454 12634855 12707519 12787295 12877801 12977647 13079085 13170336 
1894.829 13241930 13293002 13331916 13372884 13428482 13503400 13592380 
1898.204 13684149 13767113 13836342 13896345 13957827 14031604 14122028 
1901.579 14224624 14328616 14423555 14504399 14573711 14639745 14709832 
1904.955 14784628 14856488 14912756 14942522 14942385 14919272 14885667 
1908.330 14855390 14836052 14826247 14819013 14808076 14793335 14782708 
1911.705 14789324 14823401 14887930 14976166 15074471 15168956 15251758 
1915.080 15321978 15385002 15446077 15506784 15563205 15610326 15646771 
1918.456 15679402 15720971 15784774 15876181 15989473 16107608 16209677 
1921.831 16281739 16320750 16338261 16353434 16384779 16439868 16513690 
1925.206 16592480 16663227 16721178 16772110 16828008 16900000 16991264 
1928.581 17094024 17193982 17277826 17340408 17387242 17431112 17483610 
1931.957 17549328 17624096 17698050 17762972 17818446 17872062 17935628 
1935.332 18017164 18113464 18211412 18293622 18346638 18369382 18373010 
1938.707 18375188 18391194 18424620 18465692 18495910 18500476 18473782 
1942.082 18425312 18373632 18337446 18324898 18331084 18342456 18345704 
1945.458 18337064 18323170 18317502 18331294 18366652 18414390 18460264 
1948.833 18492246 18509292 18521462 18545218 18592630 18664776 18749734 
1952.208 18830040 18890112 18927248 18947980 18967606 18997028 19036042 
1955.583 19072704 19090880 19078694 19039538 18990970 18957186 18959056 
1958.958 19001112 19069866 19141088 19194140 19221428 19232200 19245916 
1962.334 19279200 19337884 19413376 19489262 19551162 19597226 19638166 
1965.709 19692178 19772174 19876808 19988266 20083862 20143102 20160976 
1969.084 20148516 20126200 20111346 20108536 20108918 20096596 20060890 
1972.459 20003880 19940774 19893110 19876080 19889780 19920270 19947884 
1975.835 19960270 19962280 19974320 20018904 20109610 20239146 20381674 
1979.210 20504448 20583236 20613010 20607766 20591714 20584590 20595188 
1982.585 20618502 20642058 20656062 20661796 20669510 20694774 20746938 
1985.960 20822746 20907468 20983860 21038842 21073238 21098840 21133206 
1989.336 21186884 21258872 21334666 21395088 21427390 21430974 21419174 
1992.711 21411134 21422446 21455550 21502272 21546944 21578630 21595520 
1996.086 21606976 21624214 21656290 21699860 21743648 21772840 21779634 
1999.461 21766710 21749082 21744726 21764620 21807122 21857540 21896740 
2002.837 21910470 21897158 21867468 21840116 21829630 21838096 21856772 
2006.212 21870326 21867260 21845934 21816074 21789770 21775384 21770192 
2009.587 21762354 21738840 21696204 21642358 21597502 21582112 21607428 
2012.962 21668098 21747096 21820744 21872452 21899598 21912526 21927476 
2016.338 21955532 21997426 22042984 22079658 22100820 22110442 22121390 
2019.713 22148340 22196426 22258398 22316786 22353378 22359760 22341726 
2023.088 22316226 22303252 22315286 22349644 22391648 22423848 22436060 
2026.463 22430514 22422278 22426466 22452738 22496950 22543746 22576238 
2029.839 22585522 22575296 22561546 22562210 22587268 22634180 22690524 
2033.214 22739996 22772154 22789194 22800474 22816676 22842240 22869306 
2036.589 22884044 22874126 22836268 22779136 22719712 22674394 22650064 
2039.964 22641720 22634774 22615018 22577566 22529124 22484876 22460938 
2043.340 22464532 22490424 22524064 22550274 22560184 22557880 22556590 
2046.715 22570830 22609956 22672510 22747608 22821112 22881984 22926448 
2050.090 22957118 22978044 22990234 22992332 22981746 22958830 22931478 
2053.465 22913140 22917820 22955128 23023006 23108646 23192872 23260822 
2056.841 23304590 23328960 23346058 23368470 23402526 23445960 23489188 
2060.216 23522346 23541270 23548792 23554038 23565230 23585242 23609240 
2063.591 23627782 23632436 23621170 23600738 23583632 23580904 23598116 
2066.966 23631176 23669454 23702276 23723098 23732966 23738214 23746088 
2070.342 23758198 23770552 23774192 23762152 23733106 23694262 23657102 
2073.717 23634150 23631980 23648112 23673968 23699128 23716834 23725758 
2077.092 23729884 23733560 23738110 23740700 23735030 23715504 23681596 
2080.467 23638944 23596576 23563482 23543648 23534484 23529130 23519688 
2083.843 23501920 23477156 23450332 23426692 23408612 23393260 23375044 
2087.218 23348400 23311340 23266276 23218982 23175152 23137196 23103648 
2090.593 23071046 23036386 23001030 22970288 22951110 22948908 22964350 
2093.968 22992472 23025870 23057702 23084536 23107912 23130978 23155232 
2097.344 23178646 23194934 23197380 23182630 23153414 23117452 23085410 
2100.719 23064444 23055568 23053366 23049804 23037504 23015250 22987336 
2104.094 22961274 22942760 22932944 22927462 22918902 22902626 22878282 
2107.469 22851984 22831798 22824534 22831274 22847756 22865814 22878596 
2110.844 22884044 22885406 22888200 22897108 22911950 22927182 22935564 
2114.220 22930778 22911706 22882962 22852926 22828270 22812486 22803372 
2117.595 22795932 22785632 22771384 22755290 22741568 22733256 22728508 
2120.970 22722224 22708294 22682948 22648038 22610760 22579346 22559834 
2124.345 22552680 22551390 22547098 22533034 22507732 22476012 22446564 
2127.721 22426326 22417254 22415964 22414674 22407312 22392484 22374866 
2131.096 22362866 22363668 22379610 22407032 22439584 22470290 22497402 
2134.471 22524448 22557776 22601822 22655614 22712902 22763878 22801660 
2137.846 22824046 22835150 22841716 22849190 22856908 22860226 22852610 
2141.222 22831134 22799948 22769396 22750610 22751588 22771420 22801346 
2144.597 22829040 22845312 22847862 22842902 22839760 22844648 22856872 
2147.972 22869202 22870562 22853624 22819436 22775854 22734864 22704698 
2151.347 22684484 22665004 22634144 22581894 22506754 22416384 22323518 
2154.723 22239008 22168078 22110198 22063308 22031308 22026950 22069026 
2158.098 22173970 22344900 22564652 22802114 23019546 23188748 23298998 
2161.473 23357454 23378994 23381302 23375112 23363680 23347002 23327210 
2164.848 23310150 23306236 23323576 23361826 23411374 23455752 23478276 
2168.224 23469706 23433092 23379030 23323436 23276658 23239674 23204790 
2171.599 23161872 23104698 23036458 22968994 22917402 22893440 22898958 
2174.974 22924806 22954532 22973570 22971476 22945276 22898644 22836022 
2178.349 22760736 22674882 22581404 22486412 22401450 22339632 22310506 
2181.725 22315704 22346610 22386796 22420674 22437422 22435886 22423116 
2185.100 22409406 22400228 22396706 22392974 22381948 22360528 22331330 
2188.475 22300390 22276150 22261710 22254770 22248598 22236984 22218048 
2191.850 22196706 22181712 22180560 22194928 22219722 22242738 22252190 
2195.226 22242042 22213864 22175610 22137742 22106850 22083248 22063168 
2198.601 22040336 22012344 21981916 21955846 21940928 21939710 21948770 
2201.976 21959958 21965708 21962676 21954034 21948004 21953474 21975014 
2205.351 22011752 22056684 22101762 22142554 22179654 22217282 22260978 
2208.727 22312494 22369354 22425140 22473638 22511362 22540606 22566608 
2212.102 22593622 22622906 22651216 22671672 22679526 22674534 22661512 
2215.477 22649714 22647480 22657116 22675058 22693350 22703684 22701764 
2218.852 22690454 22675408 22664446 22660814 22662316 22661652 22651984 
2222.228 22629120 22594528 22554636 22516630 22485504 22461704 22441574 
2225.603 22420080 22394960 22367610 22341934 22322402 22311342 22306530 
2228.978 22304018 22299170 22289962 22278416 22268024 22261154 22257666 
2232.353 22252922 22240994 22217210 22181084 22136068 22089700 22048456 
2235.729 22014854 21987388 21961178 21931902 21898482 21864124 21834160 
2239.104 21813984 21806112 21808028 21814578 21820744 21824054 21825204 
2242.479 21827816 21834436 21845690 21858618 21868654 21872418 21869246 
2245.854 21862418 21856946 21856912 21863114 21871860 21878376 21877434 
2249.229 21867434 21851370 21834996 21823706 21821092 21827052 21839072 
2252.605 21853880 21869942 21887192 21906916 21928872 21950478 21967242 
2255.980 21973898 21967276 21948212 21921414 21892384 21866598 21845830 
2259.355 21828270 21809978 21788134 21761586 21732640 21705226 21681226 
2262.730 21660748 21640790 21617284 21587510 21551782 21513552 21477588 
2266.106 21447894 21424952 21406156 21388196 21367696 21345002 21322938 
2269.481 21305850 21296698 21295724 21299622 21303100 21302614 21296768 
2272.856 21287476 21278638 21273522 21272722 21274322 21274496 21269974 
2276.231 21259952 21246554 21232532 21221712 21215484 21212632 21210962 
2279.607 21207898 21201880 21193844 21184728 21175162 21164620 21151470 
2282.982 21133276 21109170 21080196 21048198 21015506 20983618 20951660 
2286.357 20918142 20881810 20843012 20804046 20768938 20740718 20720316 
2289.732 20705408 20691542 20673576 20648974 20617668 20582960 20549086 
2293.108 20519454 20494758 20473430 20452452 20429148 20403344 20376916 
2296.483 20352264 20331948 20316568 20304450 20293618 20282474 20271016 
2299.858 20260776 20254040 20252062 20254386 20259248 20264038 20267614 
2303.233 20270980 20276538 20287854 20307368 20335006 20368444 20404108 
2306.609 20438804 20470686 20500072 20528244 20556556 20585494 20613986 
2309.984 20640842 20665480 20688032 20710482 20734948 20762508 20792470 
2313.359 20823232 20852224 20878020 20900862 20922800 20946236 20973080 
2316.734 21003056 21033834 21062458 21085934 21103258 21115222 21124092 
2320.110 21132164 21141138 21150496 21158462 21162812 21160480 21148896 
2323.485 21126390 21091604 21044302 20985912 20919706 20850520 20784788 
2326.860 20728518 20685426 20656444 20638690 20627360 20617112 20604674 
2330.235 20589178 20572814 20558848 20549538 20545750 20546654 20550580 
2333.611 20555966 20562878 20571876 20583480 20597238 20611030 20621698 
2336.986 20626632 20624650 20616938 20606306 20595884 20586954 20579136 
2340.361 20570210 20557424 20539498 20516466 20489026 20457836 20421090 
2343.736 20374486 20314034 20236926 20145010 20046108 19952812 19879098 
2347.112 19836400 19832066 19866956 19936992 20034760 20151362 20277370 
2350.487 20403968 20523554 20629620 20718024 20786492 20836026 20870094 
2353.862 20892482 20907676 20918594 20925722 20928712 20926348 20918074 
2357.237 20904442 20886956 20866374 20842248 20813466 20776864 20731056 
2360.613 20675556 20612420 20545370 20478328 20413902 20352610 20294208 
2363.988 20237482 20181906 20128178 20077928 20031776 19989550 19949204 
2367.363 19907852 19863038 19814100 19761736 19708510 19656712 19607244 
2370.738 19559896 19512828 19464174 19413722 19362098 19310930 19261710 
2374.114 19215194 19170138 19124952 19077586 19027316 18974770 18921988 
2377.489 18870596 18822496 18778036 18737418 18700370 18667266 18638870 
2380.864 18616076 18599234 18587546 18579418 18572848 18566276 18559360 
2384.239 18552860 18548504 18547846 18551338 18558704 18568662 18580248 
2387.615 18593010 18607258 18623478 18641810 18661074 18679684 18695562 
2390.990 18707462 18715694 18721922 18728010 18735448 18744338 18753196 
2394.365 18759872 18762848 18761774 18758384 18755096 18754094 18756238 
2397.740 18760528 18765164 18767760 18767310 18763712 18757934 18751118 
2401.115 18743786 18735412 18725518 18713410 18700162 18687882 18678958 
2404.491 18675256 18677472 18684180 18693382 18703068 18712164 18721126 
2407.866 18731260 18743576 18758038 18773814 18788760 18801286 18810732 
2411.241 18817340 18822324 18826856 18831182 18834814 18837030 18837410 
2414.616 18836476 18835992 18837896 18843188 18851978 18862810 18873328 
2417.992 18882568 18890080 18896896 18904682 18914374 18925448 18936178 
2421.367 18943998 18946630 18943756 18936594 18927180 18917972 18910912 
2424.742 18906206 18903610 18902398 18901878 18902294 18903540 18905168 
2428.117 18906102 18904754 18900116 18892570 18883538 18875890 18871944 
2431.493 18873122 18878418 18884992 18889836 18890494 18886168 18878140 
2434.868 18868208 18858208 18848172 18837098 18822670 18803398 18778970 
2438.243 18750946 18722094 18695528 18673388 18656476 18644646 18636828 
2441.618 18632298 18630430 18630224 18630742 18630708 18628944 18624722 
2444.994 18618672 18611894 18606634 18603974 18603488 18603626 18601862 
2448.369 18596296 18586922 18575614 18565206 18558774 18557770 18560710 
2451.744 18564238 18564722 18559498 18548124 18532734 18516310 18501962 
2455.119 18491070 18483394 18477344 18471398 18465276 18459434 18455770 
2458.495 18455528 18459122 18466210 18475270 18485088 18495184 18506076 
2461.870 18517936 18531248 18545528 18559086 18571362 18581734 18591004 
2465.245 18600860 18613346 18628944 18647448 18667094 18685600 18701856 
2468.620 18715314 18726626 18737038 18747382 18757520 18766238 18772500 
2471.996 18775406 18775440 18773538 18770770 18767968 18764922 18760668 
2475.371 18754994 18748040 18741570 18737628 18737870 18742434 18749838 
2478.746 18757242 18761948 18761810 18757380 18750218 18742850 18737454 
2482.121 18735136 18735378 18737732 18741570 18747280 18755858 18768626 
2485.497 18785716 18806682 18829694 18852912 18874816 18895408 18914822 
2488.872 18933790 18952444 18969890 18984878 18996300 19003362 19006928 
2492.247 19008450 19009108 19009594 19009628 19008312 19004816 18999380 
2495.622 18993186 18987682 18984496 18983596 18984048 18983806 18981382 
2498.998 18976294 18969612 18963002 18958260 18956148 18956114 18956356 
2502.373 18955664 18953518 18950472 18948222 18948326 18951268 18956182 
2505.748 18961376 18965078 18966740 18966878 18967260 18969336 18973316 
2509.123 18977608 18979790 18976814 18966878 18950056 18928184 18904130 
2512.499 18880666 18859902 18842394 18827998 18816130 18805854 18796510 
2515.874 18787238 18777240 18765510 18751776 18736762 18721852 18709606 
2519.249 18701926 18699540 18701442 18705316 18707946 18706596 18700924 
2522.624 18691170 18679236 18666712 18654156 18641118 18626558 18609264 
2526.000 18589862 18569632 18550406 18533876 18520184 18508116 18495736 
2529.375 18481146 18463548 18443532 18422306 18400666 18378714 18355244 
2532.750 18328736 18298356 18264902 18230658 18198766 18172126 18151776 
2536.125 18137060 18125970 18115364 18103516 18089112 18072496 18054432 
2539.500 18035538 18015574 17994334 17972198 17949718 17928238 17909904 
2542.876 17895090 17883732 17874340 17864914 17854246 17842094 17829872 
2546.251 17819238 17812196 17809020 17808918 17810540 17812334 17814130 
2549.626 17816512 17820758 17828214 17838952 17852000 17865570 17878482 
2553.001 17890324 17901616 17913806 17927996 17944400 17962702 17981902 
2556.377 18001242 18020928 18041962 18065242 18091218 18118820 18146352 
2559.752 18171436 18192512 18209338 18223298 18236290 18250252 18265524 
2563.127 18281698 18297318 18311454 18324242 18336614 18350648 18367758 
2566.502 18388496 18412176 18437310 18462616 18487542 18512508 18538612 
2569.878 18566624 18596918 18628322 18659172 18688124 18714310 18737628 
2573.253 18758868 18778520 18796442 18812462 18825472 18835196 18842358 
2576.628 18848206 18854400 18862048 18871218 18880874 18889456 18895650 
2580.003 18898834 18899422 18898384 18896412 18893920 18890322 18885062 
2583.379 18878002 18869696 18860870 18853154 18847756 18844538 18843222 
2586.754 18843188 18844226 18847098 18853466 18864400 18880560 18901672 
2590.129 18925864 18951198 18975982 18999276 19021190 19042412 19063080 
2593.504 19082916 19101130 19116640 19129176 19139148 19148290 19158712 
2596.880 19171872 19188044 19206364 19225204 19242280 19255994 19265416 
2600.255 19270126 19270230 19266248 19258870 19249034 19238192 19228044 
2603.630 19219906 19214536 19211558 19209584 19207090 19202902 19196772 
2607.005 19189948 19184270 19181532 19182364 19186312 19191368 19195280 
2610.381 19196252 19193620 19187800 19180044 19171178 19162452 19153692 
2613.756 19145172 19137138 19130386 19125540 19123254 19123290 19124846 
2617.131 19126094 19125678 19122734 19117332 19110444 19103138 19096212 
2620.506 19089564 19082502 19074158 19064048 19052520 19040230 19028078 
2623.882 19016862 19006270 18996198 18986262 18976362 18967086 18959540 
2627.257 18954036 18950922 18949572 18948326 18946492 18943412 18939292 
2630.632 18935312 18932406 18931298 18931850 18933512 18935556 18937840 
2634.007 18941126 18946146 18954246 18966256 18981900 19000594 19021260 
2637.383 19043312 19066264 19090362 19115462 19141052 19166676 19191126 
2640.758 19213740 19234244 19253016 19270750 19288484 19306220 19324094 
2644.133 19341728 19359050 19376268 19394284 19413792 19434962 19457868 
2647.508 19481014 19503264 19523434 19541108 19556706 19571368 19585890 
2650.884 19600622 19615112 19628528 19639968 19649188 19656538 19662918 
2654.259 19669158 19675398 19681016 19685452 19687534 19687464 19685696 
2657.634 19683858 19683304 19685348 19690516 19698940 19710174 19724286 
2661.009 19741172 19760972 19783652 19808482 19834110 19859464 19883676 
2664.385 19906360 19928248 19950520 19973764 19998466 20023552 20047982 
2667.760 20070328 20090038 20107182 20123112 20138556 20154520 20170488 
2671.135 20185342 20197630 20206204 20210890 20212244 20211966 20212072 
2674.510 20214154 20219394 20228628 20242028 20259630 20281084 20305456 
2677.885 20331916 20358756 20384972 20409560 20432794 20455126 20477494 
2681.261 20500870 20525706 20552144 20579694 20608252 20637646 20668328 
2684.636 20700716 20734878 20770468 20806270 20841274 20874162 20905000 
2688.011 20934378 20963692 20994258 21027608 21064162 21104196 21147574 
2691.386 21194678 21245476 21300562 21360038 21423734 21490886 21561046 
2694.762 21633826 21709476 21788796 21872696 21961700 22055568 22153188 
2698.137 22252852 22353098 22452808 22551634 22649608 22747188 22843358 
2701.512 22937416 23027374 23111128 23187244 23254286 23311584 23358854 
2704.887 23395360 23421202 23436168 23441030 23437148 23426902 23412948 
2708.263 23397388 23381546 23365952 23350112 23333330 23315430 23296832 
2711.638 23278688 23262152 23248274 23237682 23230306 23226112 23224820 
2715.013 23226742 23232020 23241248 23254426 23271276 23290992 23313192 
2718.388 23337316 23363294 23391406 23421376 23453060 23485794 23518742 
2721.764 23551518 23584332 23617776 23652204 23687754 23723622 23758162 
2725.139 23789100 23814688 23833834 23846714 23854696 23859560 23863272 
2728.514 23866948 23871184 23875908 23880844 23885430 23889772 23893658 
2731.889 23897054 23899960 23902236 23904196 23906190 23908816 23912494 
2735.265 23917604 23924046 23931188 23938400 23945366 23952196 23959372 
2738.640 23968406 23979820 23994282 24012002 24032312 24054970 24080186 
2742.015 24108204 24139728 24175878 24217148 24263394 24314274 24368942 
2745.390 24426702 24486294 24546978 24607920 24668096 24727194 24785318 
2748.766 24843238 24902254 24963948 25029858 25100520 25175864 25255046 
2752.141 25337162 25421504 25508076 25597582 25690800 25788572 25890830 
2755.516 25996810 26105206 26214862 26325074 26435526 26546674 26658450 
2758.891 26771100 26884024 26996452 27107672 27217336 27325402 27432296 
2762.267 27538334 27643656 27747838 27850348 27950658 28048480 28144204 
2765.642 28238288 28331012 28422622 28512520 28599888 28683520 28762744 
2769.017 28836602 28905124 28968450 29027108 29081382 29132118 29179848 
2772.392 29225530 29270046 29313856 29357460 29400854 29444074 29487372 
2775.768 29531346 29577242 29626758 29681568 29743022 29811616 29887424 
2779.143 29970098 30058932 30153538 30253598 30358834 30469000 30583568 
2782.518 30701830 30823324 30947946 31075702 31207484 31343330 31483636 
2785.893 31627692 31774468 31922330 32069850 32215744 32358974 32498750 
2789.269 32634322 32765004 32890186 33010006 33124566 33235364 33343938 
2792.644 33451788 33560376 33670680 33782728 33896704 34012536 34130192 
2796.019 34249316 34369228 34488772 34605984 34718812 34825496 34925384 
2799.394 35019224 35108556 35195536 35282248 35369872 35458488 35547444 
2802.770 35635552 35721456 35804312 35883404 35958376 36028680 36093988 
2806.145 36154048 36208824 36258708 36304488 36346712 36385944 36421688 
2809.520 36453580 36481252 36504284 36523708 36541152 36558344 36577088 
2812.895 36598536 36623048 36650376 36680192 36711884 36745780 36781696 
2816.271 36819384 36858444 36897796 36936216 36972832 37006928 37039220 
2819.646 37069964 37099776 37128612 37155680 37179320 37198132 37210980 
2823.021 37217404 37218160 37214516 37207908 37200224 37192712 37186684 
2826.396 37183436 37183944 37189428 37200512 37217512 37240508 37269284 
2829.771 37303652 37344272 37392376 37449148 37516548 37595848 37687592 
2833.147 37792584 37911092 38043660 38191104 38354848 38535996 38735624 
2836.522 38954008 39191320 39446980 39720652 40012332 40322572 40652896 
2839.897 41004196 41377828 41774616 42194916 42638728 43105604 43595544 
2843.272 44107864 44641424 45194796 45764188 46344284 46927408 47502296 
2846.648 48055108 48569792 49027804 49410264 49699872 49881024 49943284 
2850.023 49881656 49697644 49398792 48997872 48511728 47958000 47354760 
2853.398 46719076 46064640 45402880 44742420 44089016 43446880 42818236 
2856.773 42204412 41606152 41023276 40455660 39903136 39365964 38845436 
2860.149 38343664 37863836 37409420 36983836 36589848 36228668 35900644 
2863.524 35605128 35341188 35107944 34904916 34731880 34588616 34474208 
2866.899 34387016 34324724 34284740 34264272 34260828 34272408 34296756 
2870.274 34331896 34375108 34423596 34474640 34525328 34573656 34618004 
2873.650 34657944 34693224 34724520 34752588 34778972 34805072 34832568 
2877.025 34863084 34898236 34938780 34985496 35038652 35097956 35162984 
2880.400 35232548 35305572 35380116 35454424 35526912 35596028 35661776 
2883.775 35724332 35784596 35843856 35902984 35962732 36022916 36083436 
2887.151 36143820 36204216 36264760 36325600 36387096 36448820 36510336 
2890.526 36570816 36629788 36686968 36742568 36797272 36851192 36904508 
2893.901 36956096 37005016 37049904 37089920 37124748 37155104 37182284 
2897.276 37207948 37233868 37261484 37291664 37325428 37363016 37404908 
2900.652 37451496 37502896 37559464 37621284 37688604 37762224 37842832 
2904.027 37932060 38031904 38144796 38273744 38422392 38594332 38793660 
2907.402 39024940 39293052 39603032 39960784 40371296 40839088 41366348 
2910.777 41952272 42591724 43274688 43987400 44711460 45426608 46113456 
2914.153 46752980 47329448 47831436 48250716 48583536 48829028 48990080 
2917.528 49071800 49081412 49028064 48921544 48771600 48587208 48375296 
2920.903 48140724 47885816 47611128 47315592 46996812 46652700 46280516 
2924.278 45878192 45444784 44979980 44484984 43962432 43416008 42850708 
2927.654 42271644 41684448 41095392 40510472 39936876 39381892 38853084 
2931.029 38358032 37902992 37492888 37130452 36816136 36549048 36326356 
2934.404 36144756 36000668 35889740 35807876 35750740 35713504 35691632 
2937.779 35680016 35673752 35668612 35660804 35647784 35628504 35603220 
2941.155 35573012 35540000 35506632 35475136 35447632 35425948 35411788 
2944.530 35406792 35412544 35430232 35461040 35505588 35564632 35638972 
2947.905 35730016 35839360 35968596 36117820 36285288 36465576 36650012 
2951.280 36827712 36985824 37112156 37196756 37231880 37213724 37141208 
2954.656 37015656 36840372 36619844 36360004 36067376 35749404 35414124 
2958.031 35068864 34720784 34376004 34039200 33714508 33405050 33112802 
2961.406 32838792 32582852 32343588 32118726 31905998 31703568 31510462 
2964.781 31326554 31152302 30987942 30833070 30686610 30546776 30411996 
2968.156 30281416 30154852 30033154 29916922 29806646 29702254 29602994 
2971.532 29508366 29418156 29333070 29254592 29184136 29123402 29073410 
2974.907 29034902 29008404 28994484 28994092 29008332 29037628 29081948 
2978.282 29140196 29210220 29290070 29377596 29471698 29571956 29678126 
2981.657 29790074 29907230 30028112 30151016 30273600 30394014 30510268 
2985.033 30620828 30723806 30817454 30899772 30968870 31023314 31062464 
2988.408 31086416 31095492 31090544 31071858 31039578 30993564 30933786 
2991.783 30860638 30775590 30680742 30579444 30475860 30374148 30278466 
2995.158 30191790 30116318 30052576 30000028 29957496 29923738 29898036 
2998.534 29880822 29873084 29876492 29891826 29919262 29957354 30004322 
3001.909 30057760 30115998 30178328 30245286 30317476 30395258 30477958 
3005.284 30564300 30652188 30739916 30826488 30912294 30998298 31085704 
3008.659 31175442 31267158 31359926 31452500 31543772 31633608 31722282 
3012.035 31810726 31899330 31988238 32076844 32163966 32248862 32331132 
3015.410 32411378 32491036 32571528 32654322 32740350 32830038 32923102 
3018.785 33018942 33116986 33216584 33317354 33419258 33522580 33627572 
3022.160 33734740 33844332 33956068 34068800 34180988 34290944 34397200 
3025.536 34499248 34597660 34694156 34790532 34888220 34987472 35087432 
3028.911 35186516 35282856 35375660 35464888 35552228 35639764 35729872 
3032.286 35823708 35921988 36023964 36128516 36234468 36341020 36447776 
3035.661 36554812 36662636 36772356 36885172 37002920 37127600 37260688 
3039.037 37403424 37555856 37717188 37885672 38059212 38236148 38414860 
3042.412 38594300 38772756 38947700 39115284 39270564 39408084 39523692 
3045.787 39615192 39683364 39731872 39766584 39794216 39820836 39850832 
3049.162 39886644 39928704 39976256 40028212 40083876 40143076 40205808 
3052.538 40272512 40343152 40417004 40493016 40569840 40646240 40721200 
3055.913 40794244 40865408 40935160 41003832 41071932 41139280 41205688 
3059.288 41270944 41334568 41396344 41456304 41514596 41571692 41628176 
3062.663 41684776 41742368 41801540 41862796 41926140 41991068 42056108 
3066.039 42119812 42180020 42235272 42284936 42329168 42369528 42407852 
3069.414 42445920 42484980 42525504 42566944 42608424 42649216 42689100 
3072.789 42728912 42770080 42814688 42864496 42920928 42983992 43053356 
3076.164 43127628 43205216 43284608 43364272 43443036 43519832 43593972 
3079.540 43664640 43731916 43795792 43856852 43915872 43973468 44029788 
3082.915 44083952 44134528 44179168 44215372 44241276 44256060 44260792 
3086.290 44257932 44251180 44244764 44242156 44245788 44256244 44273048 
3089.665 44294620 44319792 44347900 44379316 44415172 44457124 44505984 
3093.041 44561968 44623984 44690596 44760380 44832452 44907000 44985048 
3096.416 45068040 45156600 45250392 45346972 45443200 45534740 45617612 
3099.791 45689384 45749464 45799536 45842948 45883824 45926288 45973396 
3103.166 46026512 46085972 46150972 46220436 46294300 46372524 46456372 
3106.542 46546836 46645100 46751580 46866244 46988836 47120220 47262760 
3109.917 47420832 47601260 47811904 48061620 48359556 48713064 49129048 
3113.292 49612356 50166856 50794876 51496728 52270720 53111392 54008776 
3116.667 54947872 55905508 56852724 57753256 58563404 59239084 59736100 
3120.042 60014532 60046604 59816976 59326704 58591424 57641736 56518076 
3123.418 55263964 53925484 52545644 51159324 49798000 48485904 47240964 
3126.793 46076984 45002396 44020876 43132316 42333004 41617164 40977504 
3130.168 40406892 39898340 39444620 39039332 38676364 38349384 38053752 
3133.543 37785500 37541692 37320444 37120092 36938632 36773620 36622148 
3136.919 36481252 36348188 36220240 36095176 35971152 35846160 35718648 
3140.294 35587864 35454032 35318688 35184508 35054244 34929980 34812500 
3143.669 34700904 34592852 34486156 34378156 34267924 34155428 34041456 
3147.044 33926872 33812240 33697892 33583932 33470396 33358070 33247706 
3150.420 33139798 33034138 32929610 32823820 32714304 32598994 32476824 
3153.795 32348334 32215354 32080446 31946118 31814254 31685960 31560984 
3157.170 31438820 31318258 31198546 31078692 30958088 30836768 30715058 
3160.545 30593524 30473054 30354394 30237968 30123670 30010856 29898784 
3163.921 29786986 29675466 29564330 29454428 29346646 29241336 29138532 
3167.296 29037734 28938096 28839046 28740160 28641402 28542704 28444450 
3170.671 28346432 28248894 28151804 28055550 27960482 27867060 27775636 
3174.046 27686208 27598708 27512776 27428132 27344422 27261540 27179168 
3177.422 27096812 27014012 26929888 26844548 26758024 26671310 26585772 
3180.797 26502506 26422250 26345176 26270018 26195752 26121040 26045534 
3184.172 25968950 25892274 25815892 25740684 25666474 25592944 25520022 
3187.547 25447362 25374992 25303056 25231800 25160660 25089006 25016170 
3190.923 24941382 24864536 24786056 24706746 24627558 24548768 24470414 
3194.298 24392108 24312870 24232528 24150694 24067576 23984022 23900378 
3197.673 23817208 23734890 23653744 23574362 23497338 23423124 23352176 
3201.048 23284628 23220030 23157572 23096730 23036910 22977554 22918588 
3204.424 22859596 22800402 22740274 22679108 22616588 22553170 22489760 
3207.799 22427548 22367924 22311902 22260038 22212364 22167868 22125398 
3211.174 22083248 22039776 21993626 21944032 21891164 21835936 21780260 
3214.549 21725950 21674888 21627660 21584098 21542450 21501088 21458442 
3217.925 21413606 21366998 21319876 21273730 21230028 21189426 21151678 
3221.300 21116230 21081796 21047468 21012446 20976384 20939212 20901002 
3224.675 20862340 20823582 20785936 20750380 20717642 20687962 20660892 
3228.050 20635596 20611030 20586086 20561072 20536372 20512714 20490484 
3231.426 20469678 20448770 20426162 20399974 20368966 20332784 20292646 
3234.801 20250394 20208218 20168438 20132794 20102184 20076954 20057072 
3238.176 20041804 20030180 20020950 20012832 20004782 19996038 19986498 
3241.551 19976298 19965438 19954094 19942090 19929048 19915066 19900222 
3244.927 19885132 19870218 19855476 19840250 19823048 19802344 19777096 
3248.302 19747414 19714890 19682332 19652690 19628250 19609290 19595008 
3251.677 19582876 19570570 19556290 19539586 19520592 19500352 19479214 
3255.052 19457382 19434374 19410050 19384652 19359224 19335632 19315192 
3258.427 19298426 19285090 19273418 19261812 19248686 19234036 19218520 
3261.803 19203768 19190778 19180286 19172148 19165188 19158436 19151128 
3265.178 19142958 19134438 19126232 19118960 19113524 19110338 19109544 
3268.553 19111032 19114044 19117264 19117956 19114148 19103240 19084440 
3271.928 19058198 19026764 18993220 18960682 18930986 18904510 18880250 
3275.304 18856510 18831840 18805714 18778588 18751706 18726176 18702756 
3278.679 18681622 18662148 18643884 18626418 18609852 18594220 18579316 
3282.054 18564860 18549784 18533598 18516240 18498122 18480040 18462892 
3285.429 18446748 18431120 18414770 18397172 18378472 18359946 18343978 
3288.805 18332918 18328010 18328804 18333090 18337548 18339276 18336234 
3292.180 18327940 18315532 18300464 18283910 18266042 18245758 18222054 
3295.555 18193962 18161762 18126868 18091320 18057334 18026386 17999134 
3298.930 17975340 17954760 17937250 17923266 17913944 17910420 17913184 
3302.306 17921850 17934904 17949510 17962528 17970438 17970196 17959800 
3305.681 17938494 17906622 17865846 17818688 17768184 17716514 17666024 
3309.056 17617506 17571684 17528352 17488130 17451012 17418108 17390172 
3312.431 17367514 17350064 17336754 17326306 17317238 17308858 17300996 
3315.807 17293962 17288792 17286584 17287686 17292514 17301204 17313202 
3319.182 17328168 17345340 17364378 17384448 17405278 17426594 17448668 
3322.557 17471950 17496856 17523522 17551156 17578620 17603912 17625236 
3325.932 17641316 17651978 17658500 17663056 17668474 17677240 17690940 
3329.308 17709888 17733392 17759452 17785928 17810402 17831220 17847202 
3332.683 17857940 17864292 17867158 17868194 17868678 17869540 17870646 
3336.058 17871232 17869438 17863256 17850414 17829182 17798388 17758072 
3339.433 17708404 17650494 17585624 17515416 17441492 17365410 17288412 
3342.809 17211736 17136348 17062628 16990850 16921152 16853496 16788054 
3346.184 16724793 16664090 16605837 16550312 16496584 16444102 16391454 
3349.559 16336815 16278334 16214596 16144436 16067894 15986551 15902784 
3352.934 15819719 15740691 15668066 15603045 15545759 15494972 15448721 
3356.310 15405360 15363307 15321978 15280724 15239369 15197332 15154202 
3359.685 15109532 15063322 15016295 14969821 14925239 14884056 14846613 
3363.060 14813013 14782365 14754049 14727348 14702085 14678299 14655954 
3366.435 14634501 14612672 14588171 14558704 14522009 14476615 14422459 
3369.811 14360671 14293686 14224179 14155197 14089511 14029208 13975654 
3373.186 13929326 13890221 13857585 13829843 13805592 13783222 13761094 
3376.561 13738248 13714036 13688594 13662402 13636040 13610227 13584893 
3379.936 13560109 13534779 13507673 13477765 13444716 13408764 13371756 
3383.312 13335264 13301781 13272880 13249137 13230281 13215081 13202511 
3386.687 13192025 13183895 13179217 13179319 13184579 13194245 13205756 
3390.062 13215423 13219316 13213510 13196192 13166819 13127065 13080076 
3393.437 13029200 12978159 12929718 12885890 12847869 12815925 12790024 
3396.813 12769721 12754536 12743822 12736896 12732529 12729219 12724715 
3400.188 12716322 12701515 12678384 12646385 12606475 12561111 12514149 
3403.563 12469170 12429309 12395795 12368589 12346327 12326863 12308524 
3406.938 12290049 12271031 12251807 12232483 12213944 12196428 12180378 
3410.313 12166065 12154208 12144360 12135944 12127528 12117409 12103474 
3413.689 12084395 12059900 12031148 11999809 11968610 11939592 11913913 
3417.064 11891675 11872129 11853639 11834775 11814584 11792555 11768826 
3420.439 11744077 11719431 11696216 11675385 11657686 11643018 11630731 
3423.814 11619125 11606364 11590811 11571381 11547902 11521327 11493053 
3427.190 11464884 11437736 11412121 11387902 11364399 11341034 11317261 
3430.565 11293251 11269582 11246936 11225718 11206848 11190359 11176215 
3433.940 11163874 11152213 11139567 11124269 11104757 11080658 11052821 
3437.315 11023014 10993550 10966567 10943087 10922530 10902891 10881724 
3440.691 10857365 10829134 10798256 10767142 10737695 10711747 10689028 
3444.066 10667668 10645358 10619416 10588111 10551751 10511625 10469772 
3447.441 10428737 10390760 10357199 10328866 10306030 10288116 10274205 
3450.816 10262602 10251407 10238583 10222707 10203032 10180135 10155476 
3454.192 10130377 10106264 10083542 10062076 10041018 10019723 9997752 
3457.567 9975240 9952626 9930218 9908047 9885674 9862422 9838086 9812734 
3461.424 9787147 9762511 9739875 9719611 9701382 9684068 9666112 9645886 
3465.282 9622477 9595105 9564145 9530513 9495663 9460950 9428477 9399797 
3469.139 9375724 9355952 9339735 9324874 9309132 9290650 9268817 9243464 
3472.997 9215880 9187452 9159329 9132427 9106372 9080726 9055249 9030383 
3476.854 9006601 8985188 8966415 8950010 8934553 8917845 8897721 8872492 
3480.711 8841821 8806654 8768616 8730311 8694106 8661385 8632992 8608826 
3484.569 8588312 8570231 8553267 8536743 8519340 8501262 8482612 8464333 
3488.426 8446832 8430717 8415650 8400651 8384638 8366532 8345793 8322825 
3492.284 8298508 8273955 8250148 8227219 8204527 8181330 8156920 8131227 
3496.141 8104828 8079105 8055139 8034076 8016222 8001439 7988682 7977477 
3499.999 7966407 7954698 7941098 7924461 7904047 7879685 7852154 7823713 
3503.856 7797096 7775271 7760057 7751557 7747847 7745756 7741742 7733107 
3507.713 7718772 7699615 7677895 7657020 7639653 7627378 7620567 7618273 
3511.571 7618678 7620432 7622050 7623028 7622691 7621477 7619521 7617127 
3515.428 7614699 7613013 7612474 7613384 7616082 7620499 7626535 7633751 
3519.286 7641339 7648657 7654997 7659144 7660291 7657762 7652130 7644340 
3523.143 7636820 7631560 7630649 7635303 7644509 7656818 7669768 7681335 
3527.000 7689632 7694724 7697456 7699413 7702549 7707945 7716343 7728047 
3530.858 7743361 7761845 7783501 7807385 7832248 7856135 7876648 7891663 
3534.715 7899862 7901651 7898276 7892507 7887345 7884949 7886467 7891967 
3538.573 7900639 7911673 7924259 7938466 7954698 7973056 7993170 8013556 
3542.430 8031984 8045722 8051763 8048118 8033503 8008459 7974811 7935260 
3546.288 7893586 7853537 7818315 7790349 7770244 7757089 7748218 7740460 
3550.145 7730206 7714455 7691689 7661842 7626299 7587050 7546455 7506235 
3554.002 7467536 7430761 7396079 7363860 7334036 7306438 7280864 7256503 
3557.860 7232279 7207416 7181545 7154899 7128862 7104881 7084774 7069383 
3561.717 7058943 7052443 7048099 7043048 7033955 7016243 6985432 6937049 
3565.575 6868204 6779110 6673546 6560473 6451363 6357580 6287516 6244723 
3569.432 6226572 6227076 6237732 6250505 6259110 6259682 6251413 6235042 
3573.290 6212657 6186340 6157672 6127695 6097082 6066640 6037677 6010900 
3577.147 5987418 5967464 5950029 5934174 5918757 5902870 5886715 5871635 
3581.004 5859746 5853432 5854238 5863003 5878486 5898235 5917581 5931017 
3584.862 5932461 5916036 5877781 5817465 5739363 5652145 5568400 5500980 
3588.719 5459104 5446589 5460916 5494571 5537223 5578201 5608810 5622841 
3592.577 5618242 5596190 5560849 5518262 5473834 5433202 5400356 5377007 
3596.434 5363790 5359194 5360570 5363689 5364092 5357383 5340979 5314715 
3600.292 5280940 5244417 5211351 5187140 5175002 5176410 5189487 5210948 
3604.149 5236905 5262493 5283254 5294825 5292444 5272924 5234658 5179126 
3608.006 5111599 5039992 4973995 4920440 4881970 4856136 4836301 4814858 
3611.864 4786012 4747756 4703842 4662210 4631164 4617367 4622390 4642182 
3615.721 4667970 4689004 4694932 4677449 4632939 4563085 4475367 4381138 
3619.579 4293155 4223356 4178658 4160493 4165611 4187357 4218505 4252566 
3623.436 4286897 4320863 4356337 4394962 4435028 4470479 4490264 4478647 
3627.293 4421003 4309786 4151193 3968415 3795139 3664702 3594503 3583044 
3631.151 3613847 3665203 3716632 3753060 3767431 3760780 3739791 3712955 
3635.008 3688227 3669747 3657417 3648730 3640878 3631656 3621165 3610206 
3638.866 3600249 3591864 3584781 3577966 3571084 3565137 3562799 3567943 
3642.723 3584280 3613413 3654210 3702161 3750052 3789424 3812354 3812421 
3646.581 3785848 3732706 3655379 3559024 3450365 3336859 3227555 3132463 
3650.438 3062383 3025813 3027147 3064018 3128858 3209062 3289014 3353988 
3654.295 3391989 3395929 3367078 3315156 3256999 3210765 3190070 3200784 
3658.153 3239306 3296460 3359598 3417770 3462021 3487773 3494219 3485301 
3662.010 3466898 3446157 3430327 3424983 3433667 3458314 3498862 3553946 
3665.868 3620530 3694576 3770105 3839797 3896161 3934844 3957548 3976173 
3669.725 4013860 4100516 4261232 4509180 4839182 5231606 5654461 6070067 
3673.583 6439997 6720621 6873490 6874466 6724087 6450422 6097654 5708778 
3677.440 5311864 4920809 4543933 4189063 3868847 3599080 3391021 3248486 
3681.297 3164503 3124887 3112639 3114808 3125054 3143476 3172914 3214704 
3685.155 3265345 3314689 3349414 3355257 3322802 3250923 3148750 3032920 
3689.012 2921958 2830634 2765005 2724725 2706020 2704620 2717957 2744031 
3692.870 2780844 2824664 2870256 2912585 2946710 2970496 2985476 2995218 
3696.727 3004960 3019106 3039493 3064986 3091381 3112773 3123485 3119447 
3700.584 3099657 3067489 3028849 2992649 2966626 2956118 2963457 2986944 
3704.442 3022676 3065687 3111304 3156092 3198248 3236969 3272222 3303104 
3708.299 3327510 3341500 3339731 3317427 3271354 3202420 3116343 3024345 
3712.157 2940171 2876727 2843441 2843274 2873025 2924660 2988912 3055576 
3716.014 3116477 3166773 3204590 3231261 3249988 3264143 3276295 3286711 
3719.872 3294657 3298396 3297194 3292053 3285743 3281603 3281937 3286611 
3723.729 3293121 3296293 3291285 3274959 3248786 3218142 3192573 3182660 
3727.586 3195410 3232930 3290250 3357528 3421677 3470004 3493418 3489410 
3731.444 3462723 3423347 3383707 3351985 3327978 3303404 3266112 3206326 
3735.301 3122684 3025179 2932032 2864320 2835270 2847877 2895673 2968161 
3739.159 3055009 3149250 3248286 3349915 3449363 3536809 3594135 3599080 
3743.016 3533134 3391521 3196579 2995551 2847543 2792049 2833669 2946910 
3746.874 3092116 3230894 3331049 3374124 3356226 3287345 3186532 3075030 
3750.731 2969595 2878528 2806355 2757235 2735828 2747265 2791916 2864353 
3754.588 2952915 3042796 3121349 3179122 3212668 3224651 3221113 3207994 
3758.446 3189069 3165137 3137135 3107633 3083206 3071993 3080836 3111137 
3762.303 3157828 3209663 3252959 3277764 3279433 3262607 3237970 3219677 
3766.161 3216840 3230793 3254728 3275894 3282638 3266413 3227088 3172013 
3770.018 3114274 3066588 3037958 3031252 3043230 3067822 3098089 3128658 
3773.875 3156860 3182627 3206960 3231895 3258100 3284007 3305808 3317928 
3777.733 3315357 3295124 3259536 3215505 3174249 3147014 3140673 3155725 
3781.590 3186098 3221480 3250823 3266513 3265645 3251056 3229592 3208629 
3785.448 3193975 3187767 3188701 3193908 3201252 3209864 3220545 3234265 
3789.305 3251424 3271120 3291352 3310850 3329614 3348880 3371152 3397766 
3793.163 3427655 3456310 3477319 3484667 3475148 3451434 3421877 3399469 
3797.020 3395095 3414631 3454507 3503806 3544759 3557654 3527155 3447059 
3800.877 3326375 3188668 3067689 2992949 2978503 3019841 3097822 3186432 
3804.735 3258034 3291819 3276795 3216473 3128425 3039727 2977269 2955517 
3808.592 2975200 3024478 3088645 3154490 3215004 3270185 3324438 3382004 
3812.450 3443853 3503839 3550171 3569012 3548668 3486303 3392757 3292754 
3816.307 3215572 3184496 3206993 3273123 3360867 3440980 3486771 3478254 
3820.165 3408686 3288347 3145612 3017972 2935702 2913352 2946043 3015403 
3824.022 3097755 3171979 3224251 3250055 3254528 3248720 3246850 3258801 
3827.879 3287579 3329146 3374758 3414564 3440780 3450566 3445055 3429525 
3831.737 3411057 3396030 3389484 3393792 3408686 3431395 3457479 3479456 
3835.594 3489076 3478354 3441915 3380301 3300333 3215772 3141574 3090013 
3839.452 3066187 3067756 3087477 3114942 3141307 3160765 3171278 3173448 
3843.309 3171312 3169376 3171946 3182860 3204690 3238438 3283973 3339631 
3847.167 3403477 3473444 3547899 3626043 3706740 3787151 3860858 3916121 
3851.024 3936282 3902012 3796476 3615785 3376561 3120849 2900243 2755335 
3854.881 2700919 2725725 2804521 2909949 3021976 3127457 3220011 3298396 
3858.739 3363037 3414497 3453371 3479757 3494320 3498996 3496123 3487573 
3862.596 3473611 3453204 3425384 3392690 3362069 3343904 3349180 3383841 
3866.454 3445055 3520474 3589893 3633026 3632859 3583846 3495188 3391221 
3870.311 3302336 3250456 3242310 3267915 3308178 3342435 3356326 3346208 
3874.168 3319731 3291919 3278698 3290984 3330983 3391956 3460752 3523681 
3878.026 3567142 3582041 3565271 3521009 3460919 3401172 3358329 3345073 
3881.883 3364807 3411558 3471307 3526353 3557854 3552042 3506077 3429358 
3885.741 3343804 3274792 3243812 3258935 3314055 3392289 3472910 3536107 
3889.598 3566974 3559291 3517067 3453638 3385911 3330449 3298763 3294189 
3893.456 3314021 3352786 3403944 3461554 3521075 3578032 3628381 3667910 
3897.313 3692437 3699221 3687926 3661093 3624506 3584881 3547766 3515664 
3901.170 3487773 3459517 3425017 3381036 3327443 3269050 3214670 3174015 
3905.028 3154991 3160798 3189469 3235066 3290150 3347110 3399970 3445322 
3908.885 3481460 3508516 3527923 3541519 3551941 3561529 3573422 3589391 
3912.743 3610239 3634897 3660057 3681276 3693640 3693239 3678636 3651938 
3916.600 3617356 3581039 3548701 3524048 3508482 3501668 3502570 3510085 
3920.458 3523647 3542855 3566106 3591296 3613948 3629551 3634496 3627145 
3924.315 3609371 3586284 3564502 3550505 3548634 3559658 3580805 3608034 
3928.172 3635866 3659890 3677400 3686790 3688327 3682713 3671318 3656014 
3932.030 3638806 3622768 3610473 3604593 3606364 3615351 3629484 3645689 
3935.887 3660525 3672086 3679271 3682847 3684785 3687024 3690900 3696313 
3939.745 3701727 3704802 3703231 3695578 3682011 3664802 3647327 3633794 
3943.602 3627847 3631622 3644787 3664902 3688160 3709313 3723650 3728028 
3947.459 3721544 3705771 3684718 3663065 3645522 3634529 3631021 3633260 
3951.317 3639174 3646023 3652172 3657551 3662797 3669280 3677834 3688594 
3955.174 3700892 3713624 3725722 3736382 3745540 3753294 3759410 3763688 
3959.032 3765526 3764022 3759109 3751322 3741964 3733107 3726758 3724084 
3962.889 3725755 3731202 3739290 3748514 3757571 3765526 3771609 3775486 
3966.747 3777057 3776322 3773848 3770239 3766629 3764523 3764624 3767465 
3970.604 3772745 3779631 3786583 3792566 3796610 3798616 3798983 3798549 
3974.461 3798649 3799819 3802961 3808042 3815563 3825022 3835719 3846984 
3978.319 3857749 3866608 3872391 3874230 3871756 3865571 3856813 3847118 
3982.176 3838326 3831775 3827830 3826827 3828064 3830872 3834816 3840232 
3986.034 3847820 3858685 3874063 3894155 3918361 3945243 3971960 3995668 
3989.891 4014161 4025765 4030514 4029578 4024729 4018341 4012857 4009479 
3993.749 4009245 4012388 4018040 4025030 4031551 4036099 4036801 4032755 
3997.606 4023959 4011185 3996003 3980486 3966543 3955274 3947249 
##END=
