##TITLE=966_3_b
##JCAMP-DX=5.01  $$ Nicolet v. 1
##DATATYPE=INFRARED SPECTRUM
##ORIGIN=UniL
##OWNER=Nicolet
##LONGDATE=2011/09/29
##TIME=10:09:36
##SPECTROMETER/DATA SYSTEM=Nicolet iS5
##DATA PROCESSING=
Ratio against background
%Transmittance->Absorbance
Truncated
ElementMultiply or ElementDivide
##COMMENTS=
Number of sample scans: 32
Collection length: 51.18 sec
Sample gain: 2.0
Background collected on: Jeu Sep 29 10:06:40 2011 (GMT+02:00);
Number of background scans: 32
Background gain: 2.0
Sample spacing:  1.000
Number of scan points: 12415
Resolution points: 8192
Number of FFT points: 65536
Apodization: N-B fort;
Phase correction: Mertz;
Laser frequency: 15798.0 cm-1
Number of rejected sample scans: 0
Number of rejected background scans: 0
Bench serial number: ASB1000141;
##RESOLUTION=4.000
##XUNITS=1/CM
##YUNITS=ABSORBANCE
##FIRSTX=649.893372
##LASTX=4000.122314
##FIRSTY=0.073787
##MAXX=4000.122314
##MINX=649.893372
##MAXY=0.291919
##MINY=0.003229
##XFACTOR=1.000000
##YFACTOR=1.000000E-009
##NPOINTS=6950
##DELTAX=0.482117
##ZPD=6100
##XYDATA=(X++(Y..Y))
649.893 73787200 74394304 75051880 75769864 76544080 77360312 78203544 
653.268 79069560 79971368 80937472 81998576 83177800 84481480 85899712 
656.643 87418872 89034248 90758912 92627504 94687448 96981504 99545440 
660.018 102400800 105551368 108984488 112654656 116472160 120277192 
662.911 123855632 126979504 129430024 131056728 131771120 131514984 
665.803 130237160 127889232 124489672 120213472 115469760 110834488 
668.696 106804488 103628192 101273248 99550728 98232000 97130328 96132432 
672.071 95188640 94300160 93493784 92799376 92231512 91786888 91450112 
675.446 91206656 91052296 90995864 91054336 91245496 91579776 92055768 
678.820 92664208 93392616 94234576 95194696 96289976 97542128 98974144 
682.195 100603136 102440184 104496616 106794112 109367672 112273968 
685.088 115580568 119351712 123646224 128507632 133971320 140077024 
687.981 146868960 154380128 162582880 171327216 180261168 188752048 
690.873 195968048 200925120 202670016 200578384 194465280 184696272 
693.766 172081872 157770928 143023008 128934112 116421384 106068272 98107928 
697.141 92518592 89068448 87429688 87243848 88222152 90186336 93058128 
700.516 96826280 101461000 106806776 112527552 118064872 122667928 125597808 
703.890 126243040 124311272 119919552 113567968 106022712 98075992 90464880 
707.265 83706408 78046672 73526872 70029176 67372408 65363600 63849920 
710.640 62725180 61910720 61347476 60982084 60762400 60648392 60614296 
714.015 60648468 60748644 60911512 61125208 61370908 61625876 61874000 
717.390 62112024 62349904 62604912 62891700 63215816 63570552 63943276 
720.765 64321348 64701216 65090688 65506248 65965444 66479332 67048116 
724.139 67661544 68303032 68952144 69590440 70200704 70765920 71269952 
727.514 71700064 72051120 72331976 72570584 72812432 73107728 73506432 
730.889 74040840 74720632 75534176 76457784 77467824 78548664 79699904 
734.264 80930968 82255104 83680496 85206928 86829584 88546600 90368136 
737.639 92321256 94444976 96781384 99365424 102214480 105331392 108710832 
741.013 112353704 116276024 120514496 125121888 130169776 135747792 
743.906 141967920 148984304 156977936 166118192 176488512 187966400 
746.799 200111344 212017840 222417472 229818784 232817568 230645360 
749.692 223428112 212282400 198923520 185349248 173385152 164267344 
752.584 158688368 156708816 157891696 161419808 166294848 171572240 
755.477 176390224 180137744 182464160 183207200 182344800 179911200 
758.370 175951696 170513024 163668688 155566096 146451232 136687488 
761.262 126749320 117128824 108319480 100748024 94688768 90272632 87455544 
764.637 86048296 85740720 86164328 86972256 87843664 88537424 88901672 
768.012 88849872 88363576 87476856 86271376 84861752 83382336 81976488 
771.387 80761136 79815368 79172880 78822576 78728560 78848120 79151656 
774.762 79625112 80266032 81072432 82033392 83125960 84322400 85597648 
778.136 86938416 88343952 89820720 91372488 92992656 94662640 96357280 
781.511 98053488 99734704 101394376 103029792 104633704 106189896 107669656 
784.886 109036360 110256320 111302056 112155864 112808904 113252368 
787.779 113473864 113456696 113181200 112632800 111807928 110716000 
790.671 109376360 107811952 106044080 104088152 101956248 99662248 97226272 
794.046 94675576 92042624 89355480 86633976 83889256 81126784 78357416 
797.421 75605672 72908872 70316824 67880840 65638848 63614620 61814744 
800.796 60233608 58860584 57683476 56689028 55858968 55168320 54587520 
804.171 54084388 53633608 53220256 52840008 52495236 52189148 51920168 
807.546 51683336 51473828 51294844 51162084 51104716 51161412 51368120 
810.920 51752908 52327532 53084920 53996768 55011500 56058468 57037864 
814.295 57833272 58328300 58414300 58023796 57145148 55829128 54178256 
817.670 52326336 50418196 48570940 46868276 45356936 44050948 42946532 
821.045 42030632 41287156 40695544 40230088 39862416 39563072 39309084 
824.420 39089108 38902256 38754968 38652856 38595928 38576372 38582272 
827.794 38602592 38633408 38678032 38744752 38840292 38965136 39112816 
831.169 39273428 39438308 39605064 39778672 39967212 40177604 40410932 
834.544 40661812 40922420 41188164 41460936 41749848 42066516 42420384 
837.919 42813448 43241088 43694648 44168716 44665040 45193436 45767616 
841.294 46399956 47096844 47857216 48676260 49550216 50480008 51472672 
844.669 52536704 53677208 54889892 56159056 57459668 58758456 60016968 
848.043 61194516 62242704 63108860 63740432 64087836 64120248 63835488 
851.418 63267864 62485060 61577996 60650032 59789708 59063172 58508536 
854.793 58134540 57929164 57866812 57917808 58050268 58234252 58446404 
858.168 58668748 58892992 59120344 59359672 59623840 59925368 60273992 
861.543 60675748 61134552 61654248 62238420 62887260 63591340 64325460 
864.917 65045424 65685092 66170564 66427512 66394268 66038728 65361412 
868.292 64399464 63216312 61899444 60547744 59253628 58106360 57177348 
871.667 56514448 56145860 56078560 56306332 56817108 57601708 58658848 
875.042 59997948 61636800 63598088 65904008 68567496 71581200 74901344 
878.417 78440288 82047128 85502384 88554520 90924000 92358960 92698288 
881.792 91892224 90034856 87339248 84123896 80744256 77523432 74746088 
885.166 72607400 71215416 70613936 70790528 71696984 73253728 75358560 
888.541 77878632 80634816 83418192 85978464 88038408 89349408 89703720 
891.916 88982184 87181592 84416160 80905184 76916800 72753000 68686008 
895.291 64916200 61578412 58726592 56354204 54416792 52854676 51608436 
898.666 50621424 49846572 49241816 48767484 48391448 48088272 47841016 
902.040 47641816 47486512 47371168 47289952 47233540 47192760 47161880 
905.415 47140568 47133480 47146588 47183488 47242368 47317256 47399364 
908.790 47482852 47566360 47653540 47750320 47861028 47986236 48122840 
912.165 48266044 48413412 48566232 48729600 48909680 49110088 49330116 
915.540 49565552 49811116 50064072 50326696 50604372 50904204 51230044 
918.914 51580636 51949744 52329364 52713504 53100424 53493608 53898700 
922.289 54321932 54767564 55239128 55741568 56283472 56876592 57532968 
925.664 58257480 59040172 59851616 60646832 61367092 61953708 62363792 
929.039 62575212 62595188 62456212 62212496 61927916 61664368 61480184 
932.414 61420064 61513968 61778756 62217392 62821044 63570284 64437784 
935.789 65387792 66375316 67353368 68271744 69085720 69765888 70303696 
939.163 70717688 71049104 71360928 71723984 72200408 72839976 73668888 
942.538 74690048 75886216 77225432 78666040 80153960 81627760 83018440 
945.913 84246968 85238256 85926608 86263656 86230960 85839752 85131952 
949.288 84167976 83023336 81778768 80507096 79277424 78148128 77161552 
952.663 76347680 75718976 75273832 74998912 74875080 74883816 75008600 
956.037 75237504 75561736 75972648 76461216 77018152 77635384 78308688 
959.412 79038632 79830096 80689272 81621520 82630352 83716816 84883632 
962.787 86138472 87494688 88973848 90601000 92399000 94385792 96569192 
966.162 98946232 101505240 104231000 107110992 110140248 113326256 116688624 
969.537 120254728 124048608 128075776 132304696 136657536 140996352 
972.429 145123232 148817728 151845616 154006992 155185632 155367264 
975.322 154661568 153275472 151505088 149676512 148085248 146989232 
978.215 146553136 146836560 147789136 149253376 150985520 152659856 
981.108 153938544 154503120 154092880 152567744 149915424 146257696 
984.000 141809216 136852240 131689088 126579624 121746088 117348008 
986.893 113474160 110164040 107410408 105175720 103402248 102025560 
989.786 100985464 100225312 99698600 99367960 99199800 99166496 99243696 
993.160 99410120 99649880 99951488 100307496 100712672 101162432 101650560 
996.535 102170544 102715120 103278872 103859056 104455232 105068384 
999.428 105699400 106347664 107010896 107686176 108371904 109068168 
1002.321 109777424 110503304 111248928 112016552 112806544 113619448 
1005.213 114456824 115322824 116223408 117165016 118152816 119188016 
1008.106 120268448 121389208 122544680 123730936 124946024 126189784 
1010.999 127462344 128762576 130087824 131434512 132800920 134188472 
1013.891 135604384 137059760 138568032 140142896 141795488 143533216 
1016.784 145360992 147282240 149300160 151418336 153640496 155968864 
1019.677 158401680 160932272 163544768 166211328 168891840 171526544 
1022.570 174036528 176332784 178313760 179886128 180983360 181575584 
1025.462 181684576 181380080 180776976 180005920 179195024 178456320 
1028.355 177860896 177437024 177165408 176983776 176787712 176434496 
1031.249 175768240 174618160 172822144 170259072 166853808 162600176 
1034.142 157563232 151879984 145743600 139372288 133009208 126878392 
1037.035 121159832 115990600 111440280 107519688 104193680 101399352 
1039.928 99063336 97112344 95486928 94137568 93022368 92107456 91361976 
1043.303 90758752 90277944 89904512 89629056 89445080 89345672 89322272 
1046.678 89365488 89466408 89619072 89821328 90073632 90375320 90721144 
1050.053 91097120 91481888 91847472 92162352 92398264 92532648 92551224 
1053.429 92450328 92237328 91931320 91559904 91159448 90771008 90431216 
1056.804 90172224 90014720 89967112 90027768 90187520 90432600 90744048 
1060.179 91097488 91461560 91793360 92043360 92160224 92094768 91813288 
1063.554 91301384 90567360 89639560 88562040 87389160 86173744 84967600 
1066.930 83816352 82754088 81805768 80984664 80293576 79727888 79279136 
1070.305 78939872 78704688 78571136 78538096 78602544 78758144 78995472 
1073.680 79302600 79668616 80085064 80545936 81047072 81584696 82154160 
1077.055 82750920 83373192 84023728 84711840 85453328 86268672 87177984 
1080.431 88201320 89356456 90659328 92128640 93785552 95653776 97760648 
1083.806 100131504 102787160 105741496 108997560 112543784 116348136 
1086.699 120358488 124498056 128664896 132749688 136639328 140232272 
1089.592 143457968 146274160 148667040 150637968 152186336 153294336 
1092.485 153926352 154034848 153586352 152588896 151116976 149318624 
1095.378 147396160 145600320 144171904 143310736 143158944 143766976 
1098.271 145092592 146991792 149244272 151556784 153580688 154980256 
1101.164 155439712 154714880 152681136 149334592 144798688 139285168 
1104.057 133077904 126482296 119775896 113217496 107009112 101288304 
1106.950 96144296 91610344 87676984 84305584 81440704 79020984 76982192 
1110.326 75266344 73818104 72583352 71514544 70567432 69704064 68897704 
1113.701 68129464 67389704 66675812 65988972 65333216 64713904 64137800 
1117.076 63612172 63143536 62736704 62392824 62109844 61882748 61706264 
1120.451 61576160 61490412 61448576 61450332 61493848 61575320 61689688 
1123.827 61832664 62002400 62200376 62431308 62700220 63011476 63367844 
1127.202 63770400 64220728 64722596 65281608 65905356 66599592 67366104 
1130.577 68200168 69090960 70022480 70974576 71926096 72855608 73740976 
1133.952 74562296 75302400 75949680 76502472 76971080 77379984 77763248 
1137.328 78163992 78627840 79194792 79900624 80772712 81829888 83084832 
1140.703 84542696 86201744 88051712 90074320 92244008 94525536 96878288 
1144.078 99255344 101599312 103847224 105926712 107754328 109246760 
1146.971 110320648 110901128 110935736 110395456 109280040 107614976 
1149.864 105448504 102845384 99876632 96623496 93169640 89594800 85979032 
1153.240 82392632 78892544 75527784 72335024 69342072 66572288 64041600 
1156.615 61759088 59726556 57937724 56379780 55035044 53885048 52909244 
1159.990 52085696 51392176 50802844 50290612 49831224 49402504 48989416 
1163.365 48583536 48182072 47784976 47393340 47007924 46630084 46262636 
1166.740 45911516 45584788 45291692 45040180 44834364 44674916 44559728 
1170.116 44486308 44453528 44462520 44515416 44614548 44760272 44951572 
1173.491 45186672 45464832 45787864 46159852 46586340 47071808 47619152 
1176.866 48229168 48901928 49638060 50439628 51309052 52247028 53249700 
1180.241 54306684 55400172 56508940 57610676 58685664 59721464 60712440 
1183.617 61660856 62575288 63471140 64368992 65292164 66266464 67314640 
1186.992 68450992 69677528 70979840 72328256 73676392 74969576 76151432 
1190.367 77165472 77965656 78517928 78800256 78804304 78532976 77997464 
1193.742 77213672 76200720 74978792 73567768 71991600 70281840 68477792 
1197.118 66634128 64814948 63083112 61496980 60094356 58887184 57862608 
1200.493 56988596 56225768 55535328 54890156 54276912 53694832 53150976 
1203.868 52656276 52221768 51856280 51565936 51353988 51220348 51161152 
1207.243 51169052 51236120 51354172 51518816 51729912 51991644 52309740 
1210.619 52689712 53134760 53645416 54221312 54862596 55571740 56353676 
1213.994 57214240 58158632 59190100 60310008 61519468 62820784 64219728 
1217.369 65724492 67346168 69096640 70987176 73028888 75233448 77613552 
1220.744 80184128 82960872 85956976 89181264 92633288 96301888 100160416 
1224.120 104167320 108265096 112372112 116388032 120190520 123627464 
1227.013 126537544 128751400 130105256 130475952 129790456 128045872 
1229.906 125310568 121722232 117473144 112773288 107853624 102936384 
1232.799 98208240 93830960 89919712 86540544 83722848 81461568 79729888 
1236.174 78486176 77682928 77270720 77196144 77408704 77860160 78504280 
1239.549 79303280 80224264 81236640 82311488 83414656 84504504 85536560 
1242.925 86462256 87237528 87831088 88225920 88423320 88439728 88305872 
1246.300 88061336 87749288 87419272 87119352 86892928 86776896 86792888 
1249.675 86945376 87221440 87595088 88032240 88496472 88958520 89396592 
1253.050 89799328 90165944 90505080 90834880 91179968 91572704 92048320 
1256.426 92638200 93366824 94244536 95264672 96401576 97613480 98846032 
1259.801 100030784 101094096 101959560 102547168 102785560 102615104 
1262.694 101992160 100899064 99343344 97357720 94991488 92308384 89380192 
1266.069 86278288 83079936 79864704 76705600 73674232 70829376 68212152 
1269.444 65850520 63758620 61941020 60397464 59123840 58111436 57345276 
1272.820 56805064 56466488 56303580 56294792 56423432 56678152 57051772 
1276.195 57537700 58128064 58814636 59589368 60446700 61385868 62410076 
1279.570 63525328 64737828 66053660 67478480 69018792 70684192 72486752 
1282.945 74439056 76550368 78820592 81236792 83767528 86367648 88978160 
1286.321 91528480 93949416 96171912 98132592 99781600 101079176 101998320 
1289.696 102525184 102654936 102388968 101729240 100674776 99220664 97361784 
1293.071 95100400 92456192 89472928 86226312 82815432 79354664 75971856 
1296.446 72786136 69906952 67432584 65436436 63969532 63056448 62691452 
1299.822 62841268 63447440 64440668 65739408 67260288 68926592 70659200 
1303.197 72381016 74019496 75499328 76751848 77721280 78363488 78652968 
1306.572 78580624 78152056 77387240 76323696 75026440 73586304 72124392 
1309.947 70786128 69705936 68992032 68692960 68779864 69139840 69590520 
1313.323 69931200 69965104 69554744 68650616 67288912 65578496 63661232 
1316.698 61694388 59809292 58094996 56601224 55338404 54292496 53438628 
1320.073 52753648 52219788 51824544 51559520 51415524 51382404 51449840 
1323.448 51608436 51850940 52172784 52569056 53032956 53554512 54119404 
1326.823 54711340 55315520 55918740 56511696 57088988 57646884 58182764 
1330.199 58694768 59181820 59644712 60087088 60515480 60937400 61360756 
1333.574 61791784 62234104 62689692 63159788 63646160 64151400 64678760 
1336.949 65230744 65808452 66411644 67038836 67689736 68366440 69072624 
1340.324 69814792 70598928 71429000 72306528 73231408 74202832 75221584 
1343.700 76291272 77418400 78611512 79878680 81226048 82656240 84168576 
1347.075 85760184 87427816 89169424 90984384 92872488 94832352 96858616 
1350.450 98941896 101070768 103234032 105426248 107650768 109921136 
1353.343 112258304 114687128 117234024 119922040 122771088 125797808 
1356.236 129011032 132406888 135958128 139611680 143280096 146847488 
1359.129 150197968 153222944 155850672 158059584 159876592 161365760 
1362.022 162602592 163665952 164618480 165501712 166345008 167165040 
1364.916 167969024 168756416 169519568 170249424 170943008 171613760 
1367.809 172298304 173056656 173955616 175059280 176414544 178044480 
1370.702 179955568 182146512 184619728 187381136 190436384 193780672 
1373.595 197388192 201213776 205207728 209335856 213595888 218013184 
1376.488 222622848 227434496 232404528 237409024 242261296 246724688 
1379.381 250532624 253437312 255200416 255598752 254460208 251683360 
1382.274 247296608 241473056 234518560 226787008 218560208 210012496 
1385.167 201172912 191977392 182351440 172301056 161956624 151556128 
1388.060 141372240 131635200 122503816 114059304 106341744 99384376 93206264 
1391.435 87816976 83204000 79322008 76103032 73468368 71351440 69693912 
1394.811 68444440 67551984 66948248 66555948 66306680 66151692 66082360 
1398.186 66132092 66372184 66886792 67745968 68994360 70642120 72678376 
1401.561 75080320 77819056 80847264 84075552 87369960 90533688 93320728 
1404.936 95491960 96838488 97229504 96633888 95110472 92791904 89846808 
1408.312 86476656 82887400 79268632 75804824 72643784 69885464 67586048 
1411.687 65754788 64372264 63407564 62834108 62632964 62787392 63276224 
1415.062 64065868 65110704 66367520 67801736 69398200 71163728 73115024 
1418.437 75260432 77579720 80023744 82529320 85044360 87547136 90043216 
1421.813 92548848 95066176 97566688 99984528 102213136 104137752 105659464 
1425.188 106709848 107256456 107282072 106766608 105683464 104010464 
1428.081 101755288 98972032 95773312 92313752 88750272 85230392 81872656 
1431.456 78762952 75970192 73541160 71495168 69826152 68500648 67470200 
1434.831 66685044 66115848 65763928 65658660 65834828 66304132 67038676 
1438.207 67979824 69057792 70208144 71384328 72550496 73678472 74746912 
1441.582 75735072 76625624 77407152 78074192 78628200 79074128 79417240 
1444.957 79659104 79796176 79823168 79739400 79557728 79311352 79049168 
1448.332 78824168 78679064 78630776 78672792 78785040 78950560 79165568 
1451.708 79443336 79806128 80273120 80847416 81512976 82234640 82967896 
1455.083 83672384 84314352 84877832 85363104 85785088 86157256 86482520 
1458.458 86756952 86976872 87146968 87283136 87407808 87543208 87706104 
1461.833 87903056 88132560 88389360 88671800 88986624 89350960 89787840 
1465.208 90323056 90980872 91781120 92745792 93896304 95250480 96818200 
1468.584 98596160 100569008 102705048 104965592 107303752 109651112 
1471.477 111918016 113988688 115732096 117033984 117818080 118050264 
1474.370 117728128 116864480 115485328 113636968 111394584 108859560 
1477.263 106133368 103304008 100422760 97503024 94539952 91527536 88474864 
1480.638 85417304 82407368 79499832 76741616 74158296 71756384 69529888 
1484.013 67466136 65551252 63772628 62119936 60587172 59175288 57891532 
1487.389 56748268 55757428 54925764 54252096 53729480 53352340 53118848 
1490.764 53032056 53093984 53298580 53627084 54051364 54535788 55048172 
1494.139 55564736 56072224 56569592 57062388 57554496 58038944 58494928 
1497.514 58892308 59202740 59407464 59503784 59504504 59436224 59334036 
1500.890 59233692 59170540 59172288 59254692 59420760 59657444 59937652 
1504.265 60216784 60443232 60569724 60573840 60479412 60357216 60297712 
1507.640 60358396 60546372 60828604 61160068 61499956 61821280 62113360 
1511.015 62376568 62619724 62854900 63094496 63347028 63615620 63897280 
1514.391 64183584 64464884 64733096 64989352 65248184 65537072 65885612 
1517.766 66313548 66820740 67385912 67971656 68533584 69039920 69483776 
1521.141 69895000 70325312 70827312 71423384 72098840 72812464 73516400 
1524.516 74175000 74769000 75301056 75790024 76262472 76740896 77238176 
1527.892 77762856 78323128 78931928 79606088 80358912 81193376 82097720 
1531.267 83050968 84030760 85026272 86048496 87133072 88328656 89667744 
1534.642 91158344 92779928 94501192 96288776 98119640 99989408 101901024 
1538.017 103870968 105925784 108099824 110424248 112913232 115570616 
1540.910 118377912 121310776 124356808 127511264 130778088 134157928 
1543.803 137636592 141172048 144693120 148118384 151366496 154371568 
1546.697 157087152 159460816 161423616 162896640 163798400 164092624 
1549.590 163815648 163081568 162032160 160773200 159341872 157703328 
1552.483 155796800 153597872 151168176 148662592 146289664 144210560 
1555.376 142484112 141038800 139704448 138243568 136408752 134027840 
1558.269 131089344 127822072 124622224 121850472 119649088 117951136 
1561.162 116583776 115369272 114162984 112845168 111326160 109551704 
1564.055 107518200 105280672 102940800 100615632 98380672 96246680 94153736 
1567.430 91998800 89671736 87104000 84308840 81390184 78511584 75826640 
1570.805 73431512 71343472 69523560 67908968 66438288 65060436 63735016 
1574.181 62431500 61135468 59865120 58686044 57707048 57053168 56813520 
1577.556 57019692 57655360 58681908 60066656 61795644 63876980 66331000 
1580.931 69177136 72422864 76048312 79999288 84188688 88481032 92698456 
1584.306 96639144 100072840 102785520 104609208 105429248 105209408 
1587.199 103993248 101913464 99177904 96057688 92870720 89910056 87429608 
1590.575 85620328 84589840 84385488 85002128 86400728 88514752 91259144 
1593.950 94542256 98254520 102276832 106491096 110774016 115015952 119128904 
1597.325 123034488 126660304 129926144 132727832 134951520 136488368 
1600.218 137254976 137219648 136404352 134881136 132748872 130129304 
1603.111 127159968 123976800 120720520 117518008 114459584 111601248 
1606.004 108958040 106515528 104245872 102122928 100132872 98272176 96542296 
1609.380 94942336 93463864 92095088 90826504 89657240 88595360 87651728 
1612.755 86830640 86119880 85486816 84879728 84242384 83527096 82720768 
1616.130 81861296 81037576 80358360 79903368 79702016 79730320 79936112 
1619.505 80259176 80650336 81078904 81531360 82012112 82539944 83143856 
1622.881 83854008 84694728 85680744 86812712 88081304 89469096 90954680 
1626.256 92511208 94107440 95713984 97303744 98859728 100377504 101864576 
1629.631 103335824 104806928 106291880 107801800 109347416 110939320 
1632.524 112591960 114325520 116166088 118148592 120315960 122718608 
1635.417 125394376 128360528 131613832 135124896 138867056 142826768 
1638.310 147005504 151417024 156079248 161011376 166218656 171689952 
1641.203 177401744 183309968 189360800 195502048 201669984 207809456 
1644.096 213885088 219880688 225817872 231746624 237735376 243814640 
1646.990 249955440 256076272 262063648 267821072 273279360 278396672 
1649.883 283088864 287164832 290295968 291919200 291319296 287925408 
1652.776 281794560 273888832 265586528 257884528 250994032 244606528 
1655.669 238243088 231531792 224286672 216505088 208311968 199887968 
1658.562 191415408 182995008 174650304 166345776 158019824 149630000 
1661.455 141185408 132763040 124507680 116608056 109249912 102574448 
1664.348 96645312 91443728 86892432 82877944 79279416 75991432 72943744 
1667.723 70112032 67521984 65234864 63321376 61831552 60777076 60131340 
1671.098 59843064 59859260 60133968 60633268 61338624 62244464 63360176 
1674.474 64706712 66310428 68188696 70335992 72734384 75362896 78213256 
1677.849 81294928 84628728 88233512 92102096 96197392 100462680 104832872 
1681.224 109278936 113822264 118536296 123528984 128894032 134640048 
1684.117 140613184 146527424 152068656 157001680 161200272 164600432 
1687.010 167164400 168840512 169583968 169375376 168222800 166168464 
1689.903 163283088 159675024 155490336 150902736 146102272 141227968 
1692.796 136324752 131323680 126048640 120292312 113952592 107177656 
1695.689 100404768 94205064 88988736 84857408 81613440 78918136 76411280 
1699.065 73841352 71156424 68525552 66245392 64533880 63396448 62647820 
1702.440 62043332 61352092 60410372 59114464 57409252 55291812 52809324 
1705.815 50055704 47148324 44209836 41349912 38645288 36142416 33852752 
1709.190 31757142 29821338 28013138 26318738 24747994 23325708 22071256 
1712.566 20985496 20040694 19190260 18384142 17593042 16817468 16083332 
1715.941 15420980 14843527 14334780 13860391 13392737 12933371 12515069 
1719.316 12180855 11956927 11837738 11790104 11766035 11725932 11649552 
1722.691 11545350 11441071 11368719 11343652 11356883 11380386 11384808 
1726.067 11355386 11298386 11235239 11188556 11169007 11167783 11163636 
1729.442 11135045 11076103 10999700 10931432 10891747 10883457 10883559 
1732.817 10852745 10752096 10573342 10351871 10152084 10026776 9988496 
1736.192 10012366 10055192 10077776 10055531 9987479 9891471 9795925 9721712 
1740.050 9672447 9634063 9587484 9521334 9438500 9352261 9277245 9218554 
1743.907 9168264 9109045 9025207 8912602 8781903 8653475 8545866 8466427 
1747.765 8405413 8342416 8255618 8135684 7990842 7843585 7718435 7629132 
1751.622 7573630 7538296 7509269 7480582 7456884 7447749 7459379 7488267 
1755.479 7520698 7537420 7526261 7489245 7444278 7414684 7418256 7456918 
1759.337 7516686 7573967 7607011 7607146 7582160 7552591 7539173 7552692 
1763.194 7588162 7631358 7667812 7691723 7707305 7724742 7752535 7792036 
1767.052 7834981 7869866 7887682 7890820 7890482 7901752 7932762 7978691 
1770.909 8020676 8035325 8007751 7941908 7861297 7795882 7767343 7777631 
1774.767 7812277 7849657 7874084 7881642 7881541 7888020 7912718 7955507 
1778.624 8004713 8042447 8054903 8041165 8014129 7993879 7995938 8023074 
1782.481 8064387 8101655 8119243 8112727 8091393 8073332 8074311 8100271 
1786.339 8144529 8193723 8236133 8268856 8298171 8335626 8389604 8458556 
1790.196 8529613 8583141 8603048 8585811 8544683 8501770 8478185 8481361 
1794.054 8504946 8534039 8555802 8566615 8572293 8584053 8610179 8651143 
1797.911 8697486 8735078 8752218 8746674 8727944 8712090 8712259 8732880 
1801.769 8767027 8801954 8827009 8839927 8846893 8859642 8886932 8929682 
1805.626 8980994 9029504 9067226 9093718 9116591 9146436 9191174 9250132 
1809.483 9313770 9368783 9406636 9427799 9443172 9467114 9510496 9574477 
1813.341 9650934 9726964 9792604 9846390 9895775 9952897 10026065 10116234 
1817.198 10214396 10307760 10385535 10445062 10492480 10537934 10588858 
1820.573 10644679 10696805 10733415 10745201 10730495 10694903 10648821 
1823.949 10601489 10556470 10511998 10464511 10413872 10365513 10328458 
1827.324 10309389 10308032 10314716 10313970 10290694 10240178 10171316 
1830.699 10103890 10057599 10042171 10054175 10079371 10101685 10110402 
1834.074 10105925 10097582 10098667 10117083 10151100 10189701 10220095 
1837.450 10234410 10235665 10236004 10251068 10291407 10356622 10436000 
1840.825 10513832 10576976 10618974 10641997 10652862 10658703 10662133 
1844.200 10661386 10654492 10643830 10638160 10648889 10683289 10740276 
1847.575 10809262 10875031 10924025 10951140 10963237 10974892 11001604 
1850.951 11050509 11118185 11192126 11258838 11310969 11350795 11388685 
1854.326 11436546 11499484 11572606 11642609 11695569 11723992 11730732 
1857.701 11727260 11726512 11736179 11754017 11770188 11773865 11760860 
1861.076 11736588 11714700 11708300 11724809 11760179 11803349 11841075 
1864.452 11866068 11881221 11896783 11923551 11965782 12017114 12063307 
1867.827 12089710 12089471 12069439 12046819 12041640 12064056 12111855 
1871.202 12172097 12229825 12274643 12305729 12329283 12353350 12381578 
1874.577 12409500 12426889 12423956 12397908 12356213 12313705 12285277 
1877.953 12279824 12295537 12322159 12347555 12365009 12376021 12389043 
1881.328 12413455 12452393 12500986 12549173 12587203 12612648 12632604 
1884.703 12660303 12707724 12778524 12865343 12952350 13025034 13074681 
1888.078 13104219 13125836 13154933 13200563 13262767 13333010 13400836 
1891.454 13460847 13515090 13570843 13635151 13709419 13787293 13858577 
1894.829 13914512 13954611 13987870 14029174 14090538 14175976 14278346 
1898.204 14384165 14480007 14560382 14629326 14698830 14780411 14878500 
1901.579 14988445 15099034 15199426 15285082 15359737 15433237 15513514 
1904.955 15601018 15686790 15755672 15794875 15799206 15775427 15736535 
1908.330 15697369 15666625 15643919 15622554 15596554 15566296 15540986 
1911.705 15533946 15555994 15609742 15687166 15774466 15857521 15929352 
1915.080 15991708 16052593 16118817 16192583 16268117 16336404 16391695 
1918.456 16436428 16480856 16538059 16616130 16712260 16813920 16904408 
1921.831 16971866 17014728 17043882 17075620 17124526 17194222 17276550 
1925.206 17356548 17421904 17469260 17506102 17545706 17598702 17667334 
1928.581 17743954 17815442 17871784 17913322 17950546 17999584 18071978 
1931.957 18168360 18276446 18379060 18460886 18518316 18559740 18601620 
1935.332 18657686 18731332 18814468 18891600 18950922 18989066 19014370 
1938.707 19040748 19078382 19126648 19172944 19198848 19190536 19148082 
1942.082 19086932 19029878 18998030 18998170 19021432 19048988 19064118 
1945.458 19060552 19045768 19035384 19041856 19068272 19105942 19138976 
1948.833 19155526 19155458 19151302 19162488 19204252 19277816 19369650 
1952.208 19458388 19524994 19562392 19577608 19586758 19604610 19635324 
1955.583 19670580 19694918 19696480 19674672 19642464 19620002 19623710 
1958.958 19657130 19709238 19760036 19794194 19809384 19818296 19840042 
1962.334 19890196 19970956 20070118 20168890 20252130 20317020 20374312 
1965.709 20441198 20528140 20632956 20739710 20826848 20880592 20901106 
1969.084 20903400 20907676 20926764 20957156 20980590 20975132 20926486 
1972.459 20838666 20732514 20636326 20572398 20547244 20550336 20564440 
1975.835 20579868 20600990 20645568 20732132 20866582 21032998 21200940 
1979.210 21334736 21412386 21434108 21419524 21396722 21386594 21396130 
1982.585 21416216 21432438 21434072 21423246 21413674 21423246 21461226 
1985.960 21523824 21593918 21651344 21684084 21694742 21697598 21713932 
1989.336 21756746 21824402 21902176 21969298 22011438 22028308 22032212 
1992.711 22039394 22060728 22094648 22127526 22143322 22133592 22103644 
1996.086 22071500 22058532 22077846 22127874 22193776 22253864 22293066 
1999.461 22308728 22312356 22320832 22346122 22387356 22431456 22461392 
2002.837 22464532 22441608 22405778 22376366 22367262 22379576 22401450 
2006.212 22414674 22407592 22380134 22344064 22315844 22305694 22311066 
2009.587 22318528 22311866 22282430 22235102 22186594 22154826 22150678 
2012.962 22170832 22200576 22221814 22224882 22212852 22201796 22210550 
2016.338 22248528 22312808 22387878 22455774 22505744 22540744 22573586 
2019.713 22619590 22686370 22768138 22848560 22911532 22948140 22963404 
2023.088 22972034 22989396 23022516 23065702 23103336 23119794 23110604 
2026.463 23084710 23061194 23057490 23080796 23121472 23161032 23178962 
2029.839 23167220 23133214 23097464 23079854 23091140 23126364 23169142 
2033.214 23202344 23217096 23217722 23219190 23235550 23269422 23310326 
2036.589 23337910 23334800 23294978 23228840 23155860 23098338 23067834 
2039.964 23060846 23062556 23056618 23034220 22998724 22962882 22939546 
2043.340 22934134 22941082 22946254 22935914 22905874 22864102 22828094 
2046.715 22815314 22834312 22880760 22940280 22995300 23033906 23053960 
2050.090 23061648 23065596 23071186 23078770 23084884 23087296 23089324 
2053.465 23099108 23125944 23175782 23244430 23320218 23387316 23433964 
2056.841 23458760 23470966 23484816 23513566 23562362 23625124 23689398 
2060.216 23742416 23778322 23800372 23817942 23839750 23869292 23901500 
2063.591 23926356 23934830 23925096 23903250 23881720 23872792 23881720 
2066.966 23905280 23935006 23961262 23979052 23990676 24002512 24020510 
2070.342 24046040 24073672 24094510 24102426 24096472 24082672 24070696 
2073.717 24069014 24078924 24095316 24108450 24110306 24099134 24080046 
2077.092 24062324 24053394 24055286 24062044 24064776 24055040 24030456 
2080.467 23996768 23963364 23938400 23925236 23919984 23914524 23901710 
2083.843 23879094 23850424 23823332 23805062 23797222 23795226 23790956 
2087.218 23777202 23751444 23716728 23680336 23648916 23624984 23605532 
2090.593 23584680 23557744 23524830 23491532 23466316 23456174 23462888 
2093.968 23482646 23506886 23528398 23544032 23555576 23567750 23583808 
2097.344 23602630 23618126 23623060 23612774 23588006 23555996 23526122 
2100.719 23505382 23495170 23490168 23482646 23466176 23439736 23407564 
2104.094 23377352 23355218 23341792 23332946 23321724 23303648 23279178 
2107.469 23254566 23236948 23232124 23239710 23253728 23265264 23267780 
2110.844 23259914 23245898 23232928 23225832 23224820 23225518 23221114 
2114.220 23207866 23186964 23164912 23150268 23148556 23159320 23175922 
2117.595 23189622 23193466 23186510 23173754 23163200 23160718 23166764 
2120.970 23175152 23176444 23163514 23134122 23092992 23048616 23009624 
2124.345 22979754 22958516 22941538 22925366 22910590 22901334 22902906 
2127.721 22917576 22941258 22964628 22976226 22968156 22939756 22898888 
2131.096 22859176 22831972 22824464 22835814 22860330 22891134 22925646 
2134.471 22965152 23013782 23074612 23144606 23215940 23278548 23324730 
2137.846 23352874 23367176 23374344 23379520 23382770 23378994 23362210 
2141.222 23331196 23291378 23254252 23232648 23233488 23254916 23286972 
2144.597 23315604 23329590 23328016 23316338 23305046 23301900 23307914 
2147.972 23316234 23318052 23306934 23283652 23255964 23234398 23223386 
2151.347 23220134 23212514 23187000 23134332 23054870 22957956 22858548 
2154.723 22769534 22696178 22637950 22592188 22562034 22558544 22599728 
2158.098 22698554 22855964 23054100 23261698 23443828 23578628 23660426 
2161.473 23700946 23719598 23733456 23751268 23772440 23792460 23808456 
2164.848 23822878 23842548 23872724 23912212 23950340 23971242 23961474 
2168.224 23916308 23841954 23755328 23674948 23613124 23571388 23541688 
2171.599 23510594 23470058 23419138 23364624 23317878 23287008 23272254 
2174.974 23267360 23262362 23248904 23224960 23194166 23159670 23123988 
2178.349 23083034 23031112 22964138 22885266 22805188 22739926 22703580 
2181.725 22701102 22726902 22766286 22803684 22828550 22840458 22845626 
2185.100 22853938 22870946 22894768 22918134 22933328 22936158 22929940 
2188.475 22922710 22922606 22932176 22947126 22957082 22951388 22925750 
2191.850 22883172 22833508 22788112 22754452 22732384 22716498 22698832 
2195.226 22674882 22645210 22616064 22593760 22580776 22574704 22568526 
2198.601 22555332 22531812 22500194 22467394 22440770 22423744 22415616 
2201.976 22412404 22410242 22409160 22414150 22431456 22465824 22516316 
2205.351 22575680 22633586 22681622 22717022 22744256 22772154 22808120 
2208.727 22854288 22906048 22953728 22987616 23003336 23003616 22996522 
2212.102 22991562 22995266 23008682 23028596 23050678 23072060 23094110 
2215.477 23119410 23149010 23180396 23206468 23217584 23208216 23177772 
2218.852 23131816 23081496 23036842 23003512 22981536 22966480 22953066 
2222.228 22938674 22924944 22914956 22911324 22912476 22913174 22906120 
2225.603 22886874 22855510 22818178 22784060 22759898 22747992 22744638 
2228.978 22742440 22733990 22716568 22691954 22665632 22643012 22625768 
2232.353 22611562 22595820 22574530 22547622 22518900 22494158 22476814 
2235.729 22466172 22456298 22438748 22407904 22362936 22309320 22256550 
2239.104 22214072 22186838 22174110 22170622 22169750 22167518 22163962 
2242.479 22161556 22163892 22172436 22185408 22199218 22210340 22217490 
2245.854 22222268 22227916 22236392 22247934 22259792 22268164 22270570 
2249.229 22268058 22264152 22263770 22270536 22284172 22300950 22315948 
2252.605 22325260 22328644 22329098 22331016 22337470 22348214 22359552 
2255.980 22365936 22363528 22351284 22332202 22310578 22290346 22272698 
2259.355 22256690 22239390 22219094 22196636 22174702 22156292 22142902 
2262.730 22133036 22122680 22108106 22087432 22061914 22035840 22013808 
2266.106 21997984 21986968 21976722 21962328 21941486 21916012 21890362 
2269.481 21869978 21858166 21853984 21853114 21849804 21840360 21824926 
2272.856 21807122 21791826 21782490 21779250 21779146 21777404 21771168 
2276.231 21759602 21745982 21734172 21726822 21723966 21722572 21718462 
2279.607 21708674 21693278 21674820 21656950 21642184 21630238 21617806 
2282.982 21601370 21577376 21545514 21507702 21467424 21426868 21387254 
2286.357 21347300 21305398 21261168 21216144 21173386 21136234 21105970 
2289.732 21081518 21059606 21036406 21009526 20979410 20948496 20919672 
2293.108 20894916 20873326 20851980 20827404 20797302 20762544 20726016 
2296.483 20692272 20664994 20645776 20633684 20626424 20621906 20619058 
2299.858 20618326 20620726 20626528 20634624 20642580 20648244 20650710 
2303.233 20651198 20652414 20657418 20668086 20683722 20702002 20719448 
2306.609 20734080 20745582 20755418 20765776 20778218 20792296 20806756 
2309.984 20819790 20830498 20839884 20850488 20864880 20884278 20907816 
2313.359 20932606 20955382 20974264 20989078 21002014 21016096 21032686 
2316.734 21051676 21070632 21086040 21095258 21097448 21093970 21087604 
2320.110 21081204 21075848 21070980 21064614 21053554 21035086 21006916 
2323.485 20967308 20915498 20851286 20776134 20693314 20608496 20528208 
2326.860 20459226 20406262 20370320 20348582 20336012 20326464 20315700 
2330.235 20302262 20287404 20273620 20263344 20257094 20253972 20252722 
2333.611 20252304 20253032 20255984 20262094 20270566 20279348 20285110 
2336.986 20284904 20277406 20263830 20246854 20229358 20213494 20199158 
2340.361 20185482 20171284 20156604 20142478 20130018 20119432 20108050 
2343.736 20091218 20064116 20024176 19973522 19919092 19871708 19841914 
2347.112 19837024 19859706 19907402 19974458 20053186 20136716 20218700 
2350.487 20294140 20358790 20409560 20444256 20462420 20466032 20458740 
2353.862 20445332 20430536 20416472 20403276 20388584 20369242 20343686 
2357.237 20311950 20275980 20238868 20202698 20167952 20133836 20098506 
2360.613 20060230 20018418 19973210 19925370 19875420 19823706 19771132 
2363.988 19719398 19671412 19630228 19598024 19574522 19556498 19538370 
2367.363 19514978 19483268 19443936 19401458 19361510 19329326 19306878 
2370.738 19292400 19281662 19270334 19255336 19236252 19214952 19193826 
2374.114 19174608 19157708 19142124 19126544 19110858 19095866 19082916 
2377.489 19073326 19066750 19061626 19055254 19045492 19031922 19015652 
2380.864 18999486 18986332 18977990 18974978 18975636 18978612 18982144 
2384.239 18985778 18990106 18995990 19004124 19014820 19027872 19043034 
2387.615 19060586 19080736 19104038 19129834 19156772 19182398 19204530 
2390.990 19222158 19235664 19246990 19258384 19271478 19285816 19299810 
2394.365 19310792 19316474 19316508 19311796 19304556 19296832 19289732 
2397.740 19282942 19275426 19266454 19256064 19245500 19236598 19230052 
2401.115 19225898 19222468 19217898 19211074 19202624 19194486 19189186 
2404.491 19188806 19193100 19200650 19208544 19214294 19217412 19219144 
2407.866 19221360 19226070 19234036 19244114 19254506 19263166 19269884 
2411.241 19275634 19282528 19292294 19305422 19320874 19336530 19350458 
2414.616 19361856 19371314 19380114 19389608 19399654 19408870 19415210 
2417.992 19417014 19414102 19408074 19401526 19397228 19397022 19400938 
2421.367 19407762 19416078 19424498 19432294 19439120 19444802 19447888 
2424.742 19447090 19441546 19431184 19417776 19404090 19392898 19385934 
2428.117 19382884 19381776 19380080 19375644 19367954 19358806 19350596 
2431.493 19345676 19344810 19346924 19349834 19350736 19347790 19340480 
2434.868 19328980 19314258 19296522 19276048 19253224 19228980 19204978 
2438.243 19183958 19167994 19158054 19153206 19151198 19148808 19143822 
2441.618 19135234 19123566 19110306 19096836 19083956 19070902 19057436 
2444.994 19042828 19027872 19013852 19002428 18994708 18990728 18989238 
2448.369 18989066 18989066 18988996 18989170 18990000 18990762 18990036 
2451.744 18985536 18975498 18959126 18937388 18912748 18888106 18865854 
2455.119 18847410 18832740 18821320 18812980 18807550 18805334 18806302 
2458.495 18809486 18813050 18815090 18814226 18810732 18806338 18803916 
2461.870 18806026 18813984 18827100 18843674 18861322 18878486 18894924 
2465.245 18911050 18927422 18944414 18961062 18975774 18987888 18997546 
2468.620 19006270 19016066 19028390 19043000 19058266 19071250 19079454 
2471.996 19082328 19081014 19078522 19077828 19080632 19086310 19092750 
2475.371 19096696 19095934 19089738 19079490 19067476 19055740 19045872 
2478.746 19038188 19032406 19028564 19026970 19028530 19033756 19042168 
2482.121 19052554 19062734 19071250 19077898 19083540 19090396 19100402 
2485.497 19114426 19131808 19150610 19168928 19184962 19198710 19210832 
2488.872 19222086 19233100 19243492 19252636 19259700 19265346 19270404 
2492.247 19276326 19284016 19292918 19301300 19307086 19308436 19305354 
2495.622 19298876 19291706 19285402 19281106 19278300 19275634 19272066 
2498.998 19267390 19262714 19259596 19259286 19261432 19264620 19267044 
2502.373 19267252 19265624 19264274 19265554 19271580 19282354 19295586 
2505.748 19307744 19315504 19316854 19312212 19303690 19293992 19285090 
2509.123 19277782 19271408 19265036 19257968 19250522 19243318 19236980 
2512.499 19230746 19222848 19211108 19194382 19172634 19148220 19124190 
2515.874 19103380 19086760 19073672 19061902 19049058 19033894 19017278 
2519.249 19001320 18988754 18981278 18979064 18980552 18983806 18986956 
2522.624 18988754 18988996 18987544 18983702 18976258 18964144 18946006 
2526.000 18922542 18895372 18867378 18840836 18817584 18797548 18780008 
2529.375 18763504 18746898 18729948 18712406 18693936 18673666 18649834 
2532.750 18621266 18587164 18548468 18507424 18466972 18429496 18396344 
2536.125 18367204 18341004 18316500 18293310 18271780 18252842 18237154 
2539.500 18224334 18213278 18202808 18191820 18180246 18168914 18158098 
2542.876 18147978 18137060 18123136 18104344 18079992 18051460 18021894 
2546.251 17995302 17974650 17961250 17954138 17951478 17951238 17952306 
2549.626 17954930 17960146 17968744 17980210 17993438 18006562 18018166 
2553.001 18028492 18038680 18050770 18066244 18085382 18107108 18129562 
2556.377 18151224 18171746 18192374 18214728 18240300 18269016 18299600 
2559.752 18329738 18357180 18380962 18401252 18419228 18436340 18453314 
2563.127 18470256 18486436 18501236 18514616 18527030 18539582 18552792 
2566.502 18567176 18582220 18598024 18614868 18634166 18657062 18684874 
2569.878 18717010 18751638 18785648 18815958 18841044 18861114 18878140 
2573.253 18894682 18912990 18933512 18955492 18976986 18996162 19012260 
2576.628 19025794 19038084 19050098 19061902 19072946 19082086 19088146 
2580.003 19091124 19091504 19090188 19087488 19083264 19076340 19065850 
2583.379 19051792 19035728 19019804 19006962 18998758 18996058 18997998 
2586.754 19003328 19011358 19022090 19036594 19055948 19080216 19108124 
2590.129 19137382 19165014 19189082 19208996 19225966 19242070 19259148 
2593.504 19278196 19298668 19319452 19339268 19357906 19375506 19393072 
2596.880 19410916 19428760 19444908 19457658 19465248 19466806 19462996 
2600.255 19455130 19445080 19434130 19423146 19412612 19402704 19394006 
2603.630 19387250 19382816 19380632 19379976 19379698 19378728 19376822 
2607.005 19374258 19371972 19370412 19369340 19367504 19363242 19355204 
2610.381 19343114 19328356 19313252 19300434 19291740 19287412 19286198 
2613.756 19286302 19285748 19283740 19280380 19276778 19273554 19271408 
2617.131 19269920 19268428 19266454 19264064 19261432 19259076 19257138 
2620.506 19254990 19251354 19245016 19235388 19222468 19207056 19190572 
2623.882 19174226 19158642 19144272 19131220 19119860 19111068 19105352 
2627.257 19103380 19104626 19107742 19110928 19112174 19110720 19106600 
2630.632 19100886 19094826 19089842 19086344 19084440 19083784 19084544 
2634.007 19087038 19092508 19101648 19114840 19131980 19151960 19174124 
2637.383 19197290 19221118 19245466 19270230 19294962 19318794 19340862 
2640.758 19360642 19378486 19395464 19413236 19433090 19455648 19480322 
2644.133 19505932 19531198 19555182 19578022 19600588 19623746 19647872 
2647.508 19672624 19696964 19719398 19738884 19755458 19769398 19781708 
2650.884 19793430 19804770 19815730 19825858 19834562 19841602 19847222 
2654.259 19851210 19853846 19854818 19853776 19850932 19846770 19842782 
2657.634 19840632 19842158 19848228 19859188 19874346 19892278 19911808 
2661.009 19932170 19952844 19974042 19995864 20018522 20042220 20066858 
2664.385 20092710 20120022 20148864 20179268 20210404 20241438 20270912 
2667.760 20297748 20321394 20341532 20358582 20373064 20385044 20394836 
2671.135 20402302 20407754 20411784 20415256 20419318 20424840 20432064 
2674.510 20441164 20451478 20462974 20475896 20490832 20508478 20529494 
2677.885 20553776 20580700 20609294 20638654 20668258 20698074 20728484 
2681.261 20759868 20792088 20824798 20857266 20889180 20920506 20951834 
2684.636 20984068 21017732 21052580 21088232 21123328 21157106 21189146 
2688.011 21219868 21250418 21282082 21316326 21353702 21394462 21438980 
2691.386 21487196 21539214 21595414 21655732 21719994 21787716 21858480 
2694.762 21932424 22010148 22092800 22181572 22277092 22379052 22486376 
2698.137 22597112 22709376 22821564 22933084 23043516 23152924 23260508 
2701.512 23365288 23465336 23558550 23643248 23717742 23781402 23834078 
2704.887 23875770 23906682 23927162 23938120 23940326 23935110 23924116 
2708.263 23908326 23889072 23867088 23843250 23818466 23793966 23771110 
2711.638 23750882 23734086 23720474 23709380 23700212 23692548 23686460 
2715.013 23682962 23683206 23688174 23698566 23714070 23734086 23757814 
2718.388 23784656 23814266 23846680 23881474 23918094 23955592 23992848 
2721.764 24029264 24064426 24098608 24132548 24166490 24199946 24232108 
2725.139 24261398 24286450 24306142 24320160 24329446 24334808 24337648 
2728.514 24338908 24339434 24339716 24339994 24340730 24342272 24344480 
2731.889 24347600 24351560 24355940 24360846 24366138 24371606 24377214 
2735.265 24382366 24386466 24388850 24388990 24387376 24384924 24383312 
2738.640 24384784 24390568 24402062 24419412 24442440 24470834 24503822 
2742.015 24541018 24581938 24625874 24672164 24720108 24769532 24820188 
2745.390 24872466 24927098 24984126 25043478 25104452 25166032 25227516 
2748.766 25289042 25350966 25415110 25482988 25555762 25634066 25717516 
2752.141 25805588 25897584 25992870 26091378 26193076 26297898 26405348 
2755.516 26514974 26626248 26738820 26852900 26968776 27086900 27207600 
2758.891 27330236 27454110 27578368 27701924 27824348 27945252 28064598 
2762.267 28182352 28298262 28411904 28523278 28632340 28739522 28845312 
2765.642 28949890 29052934 29153662 29250870 29343526 29430744 29512656 
2769.017 29589762 29662554 29731632 29797276 29859134 29917310 29971944 
2772.392 30023850 30073774 30122534 30170692 30218394 30265428 30312394 
2775.768 30359722 30409578 30464166 30525622 30595478 30673986 30760224 
2779.143 30852528 30949086 31048868 31151698 31258256 31369362 31486020 
2782.518 31608660 31737362 31871804 32011706 32156724 32306750 32461294 
2785.893 32619928 32781620 32945194 33109010 33271744 33431638 33587440 
2789.269 33737676 33881872 34019704 34151988 34280080 34406060 34532036 
2792.644 34659272 34788700 34919460 35050616 35180732 35308948 35435480 
2796.019 35560100 35683932 35806972 35929076 36049632 36167444 36282048 
2799.394 36393436 36501976 36608736 36714480 36819456 36923300 37025148 
2802.770 37123956 37218668 37308672 37393568 37473200 37547220 37615396 
2806.145 37677652 37734104 37785536 37832712 37876384 37917016 37954588 
2809.520 37988580 38018452 38044348 38066840 38087640 38108660 38131920 
2812.895 38158688 38189584 38224464 38262456 38302984 38345328 38389160 
2816.271 38434048 38479476 38524520 38568188 38609252 38647208 38681360 
2819.646 38712076 38739608 38764496 38786776 38806740 38824204 38839056 
2823.021 38850868 38859784 38865548 38868772 38869680 38869060 38868192 
2826.396 38868700 38872072 38879932 38893304 38912656 38938568 38971116 
2829.771 39010880 39058728 39116080 39184324 39264800 39358456 39465704 
2833.147 39586952 39722068 39871788 40037404 40220744 40424092 40649300 
2836.522 40898424 41172536 41472124 41797528 42148108 42523856 42924696 
2839.897 43350836 43803048 44282036 44788960 45324608 45889568 46484028 
2843.272 47107516 47758532 48434932 49132276 49843636 50559252 51264604 
2846.648 51941564 52568904 53121916 53576328 53910140 54104316 54147176 
2850.023 54034368 53769940 53365380 52838400 52212240 51510236 50756776 
2853.398 49974508 49180848 48390076 47611868 46851592 46112096 45394196 
2856.773 44697756 44022048 43366320 42730080 42112364 41512408 40930536 
2860.149 40367912 39827008 39311512 38825908 38374284 37959796 37584356 
2863.524 37248236 36950428 36689240 36462732 36268540 36104572 35968776 
2866.899 35859040 35773944 35712136 35672964 35655732 35659620 35682928 
2870.274 35722676 35774592 35833564 35893912 35951032 36001356 36043076 
2873.650 36076056 36101584 36122072 36140256 36159200 36181380 36208860 
2877.025 36242964 36284500 36333384 36389224 36451272 36518808 36591000 
2880.400 36666852 36745488 36825620 36905912 36984956 37061380 37134640 
2883.775 37204300 37270436 37333584 37394288 37453016 37510552 37567812 
2887.151 37625656 37685208 37747620 37813408 37882164 37952928 38024056 
2890.526 38093900 38161040 38224788 38284852 38341528 38394664 38444180 
2893.901 38489252 38529552 38564856 38595492 38622724 38648404 38674628 
2897.276 38703312 38735840 38772900 38815036 38862176 38914360 38971696 
2900.652 39034296 39102632 39177180 39258596 39347680 39445492 39552980 
2904.027 39671460 39802568 39947924 40110404 40293452 40502180 40742308 
2907.402 41021348 41346740 41726392 42167640 42676704 43258216 43913820 
2910.777 44641612 45435032 46281728 47165280 48064064 48953516 49809780 
2914.153 50609100 51330828 51959748 52484580 52899212 53202396 53396852 
2917.528 53488588 53486336 53401272 53245016 53029472 52765996 52463532 
2920.903 52129296 51767988 51382256 50972456 50537628 50075636 49583792 
2924.278 49059520 48500872 47907424 47280644 46624036 45943120 45244692 
2927.654 44535788 43823828 43116180 42420020 41743648 41095316 40483812 
2931.029 39917516 39403116 38944948 38545120 38203004 37916040 37680472 
2934.404 37492204 37346696 37239064 37164088 37115728 37087000 37071520 
2937.779 37062532 37054304 37042976 37025980 37002312 36972400 36937620 
2941.155 36899780 36861076 36823352 36788436 36757932 36733304 36716104 
2944.530 36708096 36711520 36728436 36761140 36811556 36881600 36972908 
2947.905 37086780 37224408 37386088 37570520 37774476 37991112 38210676 
2951.280 38421376 38608928 38760076 38863556 38910772 38897252 38821884 
2954.656 38686832 38496388 38256196 37973428 37655356 37309972 36945592 
2958.031 36569916 36190420 35813704 35444864 35087936 34745844 34420440 
2961.406 34112880 33823344 33551752 33296966 33058308 32834650 32625284 
2964.781 32429588 32246682 32075416 31914022 31760316 31612188 31467818 
2968.156 31326554 31188436 31054348 30925352 30802586 30686324 30576638 
2971.532 30473444 30376744 30287276 30206140 30134822 30074840 30027474 
2974.907 29993388 29973330 29967508 29975992 29998784 30035212 30084606 
2978.282 30145440 30216620 30296976 30385700 30482862 30588830 30703750 
2981.657 30827450 30958870 31096238 31236998 31378552 31518120 31653278 
2985.033 31781490 31900506 32008142 32102100 32180276 32241046 32283406 
2988.408 32307464 32313566 32303148 32277412 32237728 32185376 32121188 
2991.783 32045736 31959954 31864886 31762492 31655774 31548298 31444412 
2995.158 31348032 31262490 31189396 31128880 31080010 31041178 31011464 
2998.534 30990718 30980078 30981322 30996092 31024702 31066376 31118948 
3001.909 31179322 31244724 31313166 31383894 31456844 31532478 31611014 
3005.284 31692340 31775858 31861282 31948366 32037568 32129570 32224846 
3008.659 32323350 32424056 32525602 32626212 32724560 32820068 32912880 
3012.035 33003856 33093848 33183682 33273566 33363722 33453610 33543590 
3015.410 33633516 33724032 33815824 33909636 34006408 34106824 34211352 
3018.785 34320312 34433392 34549940 34668996 34789348 34910048 35030500 
3022.160 35150408 35269668 35387988 35504904 35619408 35730628 35838244 
3025.536 35942324 36044228 36145620 36248048 36352296 36457868 36563392 
3028.911 36666888 36766948 36863312 36957320 37051524 37148716 37251084 
3032.286 37359404 37472876 37589776 37707612 37824904 37941136 38057008 
3035.661 38174316 38295096 38421304 38554028 38694112 38841704 38996668 
3039.037 39158688 39327364 39502136 39682204 39866740 40054696 40244812 
3042.412 40435372 40624372 40808548 40984532 41148132 41295288 41422588 
3045.787 41528156 41612096 41677008 41726832 41767208 41803728 41840868 
3049.162 41882356 41929792 41983476 42042676 42106780 42175016 42247028 
3052.538 42322992 42403032 42486844 42573632 42661720 42749168 42834580 
3055.913 42916904 42996028 43072852 43148492 43224248 43300752 43377964 
3059.288 43454864 43530528 43603716 43674168 43742176 43808804 43875364 
3062.663 43943292 44013432 44086044 44160496 44235552 44309632 44380860 
3066.039 44447912 44509728 44566192 44617852 44665956 44711936 44757628 
3069.414 44803948 44851632 44900572 44950212 44999784 45048852 45097668 
3072.789 45146888 45197848 45252340 45311696 45376876 45448680 45526536 
3076.164 45609884 45697412 45787644 45879112 45970372 46060076 46147616 
3079.540 46232452 46314608 46394388 46472488 46549012 46623776 46695792 
3082.915 46763060 46823064 46872924 46910392 46934052 46944352 46943244 
3086.290 46934680 46923236 46913528 46909096 46912272 46923308 46941288 
3089.665 46964732 46992420 47023876 47059992 47102016 47151908 47210712 
3093.041 47278868 47355460 47439016 47527688 47619856 47714596 47811384 
3096.416 47910236 48010844 48112700 48214580 48314704 48411148 48502056 
3099.791 48586204 48663140 48733124 48797216 48857208 48914944 48972464 
3103.166 49031364 49093392 49159916 49231872 49310480 49396232 49489388 
3106.542 49589960 49697608 49812048 49933172 50062100 50201296 50355084 
3109.917 50529400 50732268 50971752 51256964 51596420 51997436 52466896 
3113.292 53010420 53632556 54336764 55124944 55996680 56948136 57970592 
3116.667 59048748 60157980 61265704 62329788 63298224 64117944 64735136 
3120.042 65101080 65181768 64958140 64430328 63616352 62551068 61281996 
3123.418 59859680 58339140 56771564 55199808 53661536 52185936 50793612 
3126.793 49499376 48311408 47232136 46259248 45386916 44607424 43911436 
3130.168 43290392 42735784 42239908 41796104 41397912 41039592 40716540 
3133.543 40424132 40158628 39916864 39695636 39491936 39303136 39126596 
3136.919 38960204 38802028 38650432 38503228 38358356 38213208 38065864 
3140.294 37914920 37760596 37604412 37449040 37297336 37151672 37012776 
3143.669 36880336 36752808 36628204 36504716 36381260 36257228 36132476 
3147.044 36007076 35880776 35753544 35625376 35496740 35368328 35240740 
3150.420 35114264 34988516 34862620 34735000 34604512 34470512 34333292 
3153.795 34193572 34052564 33911252 33770228 33629576 33489078 33348694 
3157.170 33208360 33068068 32928002 32788624 32649644 32510962 32372576 
3160.545 32234516 32096856 31960134 31824880 31691558 31560556 31432480 
3163.921 31307608 31186300 31068406 30953140 30839438 30725016 30608490 
3167.296 30488302 30364484 30237790 30110210 29984158 29861372 29742736 
3170.671 29628108 29516558 29406704 29297516 29188602 29080176 28972664 
3174.046 28866914 28762958 28661082 28560996 28462102 28363798 28265622 
3177.422 28167042 28067956 27968326 27868684 27769736 27672684 27578158 
3180.797 27486584 27397780 27311112 27225520 27140226 27054916 26969514 
3184.172 26884518 26800210 26716304 26632238 26546920 26459612 26369998 
3187.547 26278430 26186180 26093982 26002474 25911686 25821062 25729504 
3190.923 25636384 25541458 25445078 25348226 25251816 25156728 25063170 
3194.298 24971176 24880358 24790194 24700152 24609814 24518442 24426070 
3197.673 24332566 24238308 24144072 24050942 23959864 23871288 23785460 
3201.048 23702450 23621974 23544346 23469882 23399170 23332282 23268374 
3204.424 23205910 23142616 23076534 23006376 22932072 22855092 22777460 
3207.799 22701136 22627444 22556486 22487770 22420500 22353970 22288394 
3211.174 22223802 22160512 22098274 22036188 21973306 21909182 21844090 
3214.549 21779424 21716930 21658204 21603982 21553454 21504778 21456038 
3217.925 21405774 21353702 21300804 21248504 21198088 21150078 21104266 
3221.300 21059432 21014600 20969222 20923740 20878820 20835816 20795458 
3224.675 20757816 20722576 20688588 20654812 20619788 20582750 20542902 
3228.050 20499830 20453840 20405984 20358270 20312958 20272092 20237308 
3231.426 20207800 20182184 20156986 20128976 20095660 20056134 20011026 
3234.801 19962802 19914060 19867652 19825440 19788228 19755772 19727164 
3238.176 19701056 19676336 19651858 19627002 19601246 19575042 19549012 
3241.551 19524128 19501496 19481638 19464868 19450486 19437698 19425606 
3244.927 19413272 19399794 19384342 19365736 19343286 19316128 19284570 
3248.302 19249690 19213706 19179006 19147770 19120692 19097044 19074712 
3251.677 19051134 19024306 18993704 18960198 18925796 18892190 18860560 
3255.052 18830558 18800940 18770216 18737558 18703346 18669134 18636690 
3258.427 18607292 18581218 18557528 18534844 18511920 18488718 18466210 
3261.803 18446262 18430670 18420058 18414042 18410966 18408442 18404364 
3265.178 18397172 18386666 18373358 18358598 18343804 18330360 18318816 
3268.553 18309172 18300534 18291616 18280418 18265318 18245412 18220774 
3271.928 18192236 18161658 18130598 18100164 18070008 18038922 18005592 
3275.304 17969298 17930448 17890810 17853176 17820104 17792522 17770360 
3278.679 17751582 17733426 17713478 17690526 17664472 17636518 17608328 
3282.054 17581346 17556296 17533424 17512690 17493750 17476744 17461810 
3285.429 17448530 17436734 17425938 17416004 17407348 17401210 17399002 
3288.805 17401692 17409244 17419868 17430834 17438148 17438492 17429938 
3292.180 17412108 17386758 17356030 17322686 17288308 17253588 17218422 
3295.555 17182158 17144620 17106430 17068348 17031922 16998602 16969352 
3298.930 16944854 16925734 16912056 16904030 16901962 16906098 16916018 
3302.306 16931004 16949366 16968868 16986304 16998464 17001842 16993882 
3305.681 16972900 16938722 16892870 16838064 16777860 16716184 16656308 
3309.056 16600432 16549589 16503915 16462548 16424729 16389458 16356634 
3312.431 16326392 16299454 16276682 16258933 16246445 16239189 16236058 
3315.807 16235784 16236849 16238121 16238742 16239120 16239911 16242353 
3319.182 16247271 16255148 16265916 16278986 16294191 16311737 16332069 
3322.557 16356289 16384674 16416641 16450262 16482955 16511694 16534306 
3325.932 16550174 16560020 16566353 16571894 16579090 16589656 16603978 
3329.308 16621500 16641434 16662711 16684748 16707025 16728822 16749691 
3332.683 16768804 16785438 16799456 16810820 16820050 16827388 16833036 
3336.058 16836032 16835136 16828110 16813610 16790086 16757576 16716840 
3339.433 16669253 16616475 16560020 16500887 16439559 16376177 16310669 
3342.809 16243109 16173530 16102552 16030625 15958570 15887249 15817212 
3346.184 15749419 15684385 15622795 15564785 15509874 15457442 15405702 
3349.559 15352700 15296168 15234084 15165387 15090355 15010395 14928360 
3352.934 14847470 14770847 14700510 14637551 14581592 14532047 14487201 
3356.310 14446196 14408175 14372144 14336937 14301459 14263794 14222604 
3359.685 14177037 14127607 14075615 14023391 13973499 13927820 13887587 
3363.060 13852967 13823480 13798340 13777032 13758768 13743104 13729118 
3366.435 13714925 13698819 13678405 13651563 13616961 13573510 13521447 
3369.811 13461462 13395437 13325186 13253715 13184340 13119962 13063207 
3373.186 13015406 12976622 12945114 12918829 12895072 12871828 12848449 
3376.561 12824867 12801218 12778524 12756584 12734815 12712603 12689028 
3379.936 12663953 12637379 12609988 12582428 12555074 12527687 12500473 
3383.312 12473295 12446290 12420035 12395317 12372884 12353214 12336919 
3386.687 12324749 12317318 12315921 12321102 12332760 12349327 12367532 
3390.062 12383180 12391874 12389862 12375236 12348407 12311660 12268065 
3393.437 12221442 12174686 12129675 12088006 12050532 12018136 11992282 
3396.813 11973685 11963467 11961116 11964898 11972425 11980190 11984686 
3400.188 11982983 11972799 11953725 11926003 11891301 11851732 11810158 
3403.563 11768656 11729200 11692846 11660035 11630255 11603029 11578050 
3406.938 11554741 11533304 11514081 11497035 11482167 11469102 11456856 
3410.313 11444609 11431579 11416646 11399264 11378922 11355625 11329980 
3413.689 11302739 11275840 11251017 11229935 11214090 11203686 11197872 
3417.064 11194846 11192636 11188624 11181145 11168871 11151738 11130082 
3420.439 11104961 11077939 11050815 11025223 11002589 10983762 10968572 
3423.814 10955863 10944140 10931432 10916618 10899290 10879992 10860355 
3427.190 10842145 10826484 10813882 10803318 10793602 10782801 10769724 
3430.565 10754270 10736472 10717080 10697247 10677313 10657209 10636971 
3433.940 10615987 10594020 10571102 10547575 10523981 10501475 10480599 
3437.315 10461694 10445097 10430400 10416995 10403724 10389403 10372944 
3440.691 10354212 10333208 10311222 10289609 10269659 10251746 10234885 
3444.066 10217245 10195704 10167449 10131055 10086119 10034914 9981003 
3447.441 9928726 9882691 9845305 9817785 9798907 9786774 9778167 9770440 
3451.299 9761765 9751192 9738485 9724457 9709819 9694911 9679732 9663943 
3455.156 9646767 9627999 9607674 9586366 9564654 9543383 9522892 9502944 
3459.013 9483065 9462339 9440091 9416354 9391332 9366041 9341496 9318780 
3462.871 9298333 9280291 9264145 9249116 9234393 9219840 9204847 9189921 
3466.728 9175065 9160548 9146233 9131785 9116218 9098962 9079068 9056230 
3470.586 9030756 9003353 8975176 8947778 8921937 8898093 8875908 8854603 
3474.443 8833265 8811387 8788801 8766283 8744747 8725376 8708439 8693869 
3478.301 8680753 8667300 8652326 8634345 8612916 8588312 8561783 8534716 
3482.158 8508899 8485923 8466495 8450683 8437913 8426392 8414433 8400009 
3486.015 8381565 8358831 8331843 8302459 8272436 8243934 8218406 8196457 
3489.873 8178258 8162794 8149054 8136123 8122991 8109115 8094262 8078363 
3493.730 8061484 8044034 8026179 8008728 7992225 7977342 7964316 7953145 
3497.588 7943865 7935968 7929017 7922842 7916566 7909816 7901685 7890820 
3501.445 7876244 7857383 7834307 7808296 7781545 7756853 7737424 7725147 
3505.302 7720998 7723730 7731218 7740021 7746497 7747914 7742281 7729903 
3509.160 7712870 7694050 7676951 7664338 7657458 7656042 7658437 7661910 
3513.017 7663967 7662820 7658066 7650444 7641777 7633988 7628997 7627918 
3516.875 7631290 7638338 7648353 7660156 7672196 7683628 7693308 7700424 
3520.732 7705079 7707169 7707338 7706630 7706124 7706697 7708856 7712634 
3524.590 7717423 7723191 7729261 7735299 7741910 7749027 7757325 7766972 
3528.447 7778340 7790686 7803978 7817911 7831911 7846047 7860048 7873814 
3532.304 7887446 7900673 7913022 7924326 7933809 7940828 7945181 7947172 
3536.162 7947240 7946666 7947105 7950040 7956723 7968061 7984261 8005118 
3540.019 8029722 8056657 8084709 8112154 8137406 8158608 8174072 8182175 
3543.877 8181432 8171066 8150438 8120020 8081603 8037992 7993271 7951728 
3547.734 7917747 7894532 7882519 7880158 7882992 7885792 7882553 7869192 
3551.592 7843955 7808498 7766736 7724135 7685787 7654693 7631391 7614328 
3555.449 7600335 7586375 7570157 7550602 7527643 7502561 7476401 7450614 
3559.306 7426616 7404977 7386339 7371443 7360389 7353447 7350380 7350010 
3563.164 7350347 7348560 7340473 7321669 7287771 7235918 7165476 7080092 
3567.021 6986779 6895741 6816200 6755350 6715809 6695484 6688923 6688822 
3570.879 6689158 6684784 6673176 6654401 6630244 6602960 6575240 6548767 
3574.736 6524010 6501307 6479647 6458527 6436869 6413532 6388211 6360303 
3578.594 6330548 6300190 6271548 6247648 6231009 6223682 6226337 6238068 
3582.451 6256825 6279515 6302577 6321706 6333003 6332565 6316629 6283011 
3586.308 6231446 6165301 6091000 6017989 5956345 5913383 5893029 5894204 
3590.166 5912073 5939717 5969412 5994775 6011203 6016141 6009691 5993498 
3594.023 5970655 5944117 5917145 5891820 5869754 5851484 5836506 5823812 
3597.881 5811690 5797854 5780495 5758468 5731675 5701828 5671648 5644088 
3601.738 5622304 5608340 5602769 5604883 5612972 5624721 5636905 5646338 
3605.595 5649426 5642108 5621599 5586256 5537558 5480210 5421392 5369258 
3609.453 5330145 5306430 5295664 5292209 5288553 5278189 5258335 5229929 
3613.310 5198407 5170576 5152670 5147037 5152503 5163534 5172185 5170743 
3617.168 5152067 5111397 5048406 4966219 4872019 4775225 4686157 4612611 
3621.025 4560005 4529737 4519894 4526858 4546578 4575308 4611305 4653201 
3624.883 4700392 4749899 4796096 4829399 4836937 4805578 4726686 4602599 
3628.740 4450427 4297404 4173306 4097038 4071149 4085097 4122024 4164441 
3632.597 4197761 4214624 4213520 4198966 4177956 4157616 4142328 4132895 
3636.455 4127577 4123295 4117842 4109848 4099580 4087839 4074628 4060280 
3640.312 4043858 4025465 4005700 3987308 3974166 3970455 3979182 4001387 
3644.170 4035631 4077671 4121589 4161095 4189933 4203047 4196925 4170061 
3648.027 4122458 4055898 3974133 3883624 3792900 3712989 3654176 3623670 
3651.885 3623336 3649799 3694108 3744604 3788521 3815061 3816298 3791596 
3655.742 3747177 3696013 3652706 3629150 3630787 3655312 3695244 3740393 
3659.599 3782505 3814493 3833112 3838995 3834917 3825724 3816365 3811351 
3663.457 3814159 3827295 3852133 3889140 3938389 3998143 4065062 4134869 
3667.314 4200973 4257150 4298843 4327087 4349912 4385154 4455816 4582641 
3671.172 4777905 5041266 5360972 5716466 6080987 6425301 6712747 6905807 
3675.029 6973546 6902373 6704839 6413431 6067748 5699512 5329205 4970275 
3678.886 4634011 4331873 4077203 3878944 3739558 3653241 3608535 3591763 
3682.744 3591630 3602321 3621799 3650735 3688460 3731102 3770807 3797546 
3686.601 3801490 3775854 3720441 3641847 3552209 3463925 3387047 3326041 
3690.459 3280968 3250456 3233297 3229458 3239339 3261906 3294056 3330449 
3694.316 3365508 3393759 3412727 3422612 3427054 3431229 3439377 3453906 
3698.174 3474045 3495823 3513159 3520240 3513059 3490111 3454841 3413462 
3702.031 3374959 3347477 3336559 3344205 3369682 3408586 3455910 3507346 
3705.888 3558723 3607332 3651971 3691401 3724385 3749082 3763053 3762551 
3709.746 3744671 3707575 3651603 3581307 3504841 3431930 3373189 3336292 
3713.603 3324338 3335557 3364507 3403209 3444454 3481327 3510085 3529894 
3717.461 3542721 3551607 3560059 3569714 3580571 3591129 3599281 3603891 
3721.318 3605528 3606631 3610306 3618959 3632825 3649432 3664234 3672354 
3725.176 3670082 3657117 3636935 3616520 3604760 3609203 3633727 3677500 
3729.033 3734912 3797245 3854205 3897264 3920935 3924948 3913747 3894757 
3732.890 3873862 3853570 3829970 3796209 3746342 3678836 3600049 3522545 
3736.748 3461320 3426653 3421510 3443085 3484900 3541018 3608034 3685319 
3740.605 3771776 3863499 3951061 4018207 4043557 4008676 3905355 3748715 
3744.463 3576228 3438776 3373957 3390520 3471841 3587654 3707174 3803061 
3748.320 3858919 3867978 3834248 3768701 3684250 3592498 3501301 3417536 
3752.177 3349314 3306375 3296493 3322201 3378598 3454273 3533836 3603657 
3756.035 3653441 3679037 3682880 3671151 3650935 3627814 3604359 3581975 
3759.892 3562832 3551039 3552209 3570583 3606196 3654043 3704300 3745607 
3763.750 3768802 3770105 3752892 3726290 3702395 3690599 3692805 3704467 
3767.607 3715930 3717066 3700390 3664568 3614048 3558823 3509551 3474112 
3771.465 3456477 3455910 3468367 3489142 3514027 3540016 3566206 3592732 
3775.322 3620095 3648429 3676431 3700858 3717233 3721043 3709614 3683782 
3779.179 3649264 3615184 3591229 3584480 3596641 3623537 3657651 3689630 
3783.037 3711920 3720943 3717099 3704033 3687258 3671485 3659589 3651938 
3786.894 3648128 3646692 3647059 3648897 3651637 3654210 3655479 3654343 
3790.752 3651470 3648964 3650334 3659122 3677500 3704267 3735146 3764022 
3794.609 3785179 3795173 3795775 3792332 3793836 3807674 3837357 3879512 
3798.467 3925717 3962463 3974936 3951763 3887770 3789791 3676063 3573556 
3802.324 3507514 3491013 3522979 3589091 3669380 3740192 3781837 3782338 
3806.181 3740360 3667375 3584981 3516666 3478120 3473511 3496291 3535205 
3810.039 3579269 3621666 3661394 3701259 3745941 3796644 3850628 3899973 
3813.896 3933875 3941933 3919765 3871689 3813122 3764824 3744671 3761315 
3817.754 3810649 3878810 3945143 3989281 3993595 3948787 3858551 3741095 
3821.611 3624940 3535706 3489643 3487840 3519839 3568845 3617656 3654544 
3825.469 3673022 3674927 3667609 3661494 3665337 3682947 3712922 3749283 
3829.326 3784711 3812855 3830170 3836555 3835352 3831641 3830638 3837390 
3833.183 3853871 3880448 3914850 3952198 3985135 4005600 4005600 3980587 
3837.041 3930865 3863231 3789858 3724084 3676197 3650501 3644720 3652739 
3840.898 3665871 3677500 3682980 3680240 3670249 3655379 3638706 3624038 
3844.756 3615050 3615217 3627580 3653942 3694409 3748447 3813925 3889341 
3848.613 3972795 4062855 4156445 4248985 4330802 4387933 4403765 4361425 
3852.470 4251997 4084026 3885998 3698151 3556652 3479356 3462723 3490980 
3856.328 3544358 3607466 3670082 3727025 3776857 3819875 3856412 3886299 
3860.185 3909234 3925382 3935547 3941063 3943103 3940729 3932471 3916890 
3864.043 3894757 3871689 3856412 3858752 3885296 3935145 3999581 4063089 
3867.900 4108042 4119883 4091819 4029210 3950225 3878676 3833546 3822047 
3871.758 3837959 3867176 3892985 3902948 3893019 3867744 3838193 3817535 
3875.615 3816131 3837123 3877138 3927689 3978079 4017639 4038006 4034561 
3879.472 4008744 3967913 3923243 3888405 3874230 3884828 3917559 3962162 
3883.330 4005031 4030949 4028842 3994598 3935012 3866641 3809546 3781302 
3887.187 3790059 3831741 3893988 3960892 4016736 4048574 4050246 4023023 
3891.045 3975771 3921102 3871956 3837792 3822515 3825089 3842071 3869081 
3894.902 3902279 3938422 3975604 4011185 4042855 4068039 4084427 4090816 
3898.760 4087973 4078173 4065029 4051751 4039611 4027505 4011820 3988144 
3902.617 3953602 3907896 3855409 3803061 3759243 3731436 3722814 3732807 
3906.474 3757571 3791596 3829769 3868179 3904653 3938021 3968214 3994932 
3910.332 4017606 4036266 4050748 4062219 4071852 4081083 4090682 4099813 
3914.189 4106704 4108979 4104965 4094428 4078942 4061851 4046534 4035664 
3918.047 4030013 4028441 4029110 4030648 4032989 4037102 4044360 4055564 
3921.904 4069377 4083424 4093459 4096335 4090314 4077103 4060213 4044694 
3925.761 4035564 4035364 4043825 4058808 4076869 4094729 4110183 4121790 
3929.619 4129450 4133130 4132661 4127911 4119314 4107908 4095800 4086100 
3933.476 4081150 4082722 4090883 4103995 4119515 4134902 4148216 4158821 
3937.334 4167217 4174410 4181335 4188327 4194315 4197594 4196390 4188996 
3941.191 4174811 4155107 4132326 4110116 4092522 4083023 4083457 4093726 
3945.049 4111420 4132561 4153033 4168287 4175848 4175012 4167418 4155810 
3948.906 4144168 4135705 4131691 4132226 4135839 4141091 4146343 4150959 
3952.763 4155074 4159289 4164039 4169459 4175246 4180766 4185282 4188461 
3956.621 4190468 4191538 4192342 4193245 4194315 4195453 4196457 4196825 
3960.478 4196089 4194315 4191371 4187189 4182439 4177755 4173807 4171566 
3964.336 4171365 4173440 4177186 4182372 4187691 4193245 4198598 4203984 
3968.193 4209571 4215226 4220713 4225397 4228943 4231218 4233025 4235535 
3972.051 4239784 4246777 4256581 4268259 4280472 4291582 4300784 4307611 
3975.908 4312630 4316680 4320863 4325515 4330668 4335387 4339203 4340909 
3979.765 4339905 4336023 4329698 4321633 4312999 4305201 4299579 4297538 
3983.623 4299847 4306306 4316512 4329263 4343218 4357610 4371934 4385958 
3987.480 4400217 4414777 4429271 4443263 4455716 4465993 4473692 4478815 
3991.338 4481995 4483702 4484539 4484405 4483970 4483200 4482598 4483200 
3995.195 4485711 4490465 4496960 4503890 4509749 4512829 4512260 4507840 
3999.052 4500643 4491938 4483233 4475500 
##END=
