##TITLE=1111a_1_b
##JCAMP-DX=5.01  $$ Nicolet v. 1
##DATATYPE=INFRARED SPECTRUM
##ORIGIN=UniL
##OWNER=Nicolet
##LONGDATE=2011/09/28
##TIME=14:47:32
##SPECTROMETER/DATA SYSTEM=Nicolet iS5
##DATA PROCESSING=
Ratio against background
%Transmittance->Absorbance
Truncated
ElementMultiply or ElementDivide
##COMMENTS=
Number of sample scans: 32
Collection length: 51.18 sec
Sample gain: 2.0
Background collected on: Mer Sep 28 14:40:34 2011 (GMT+02:00);
Number of background scans: 32
Background gain: 2.0
Sample spacing:  1.000
Number of scan points: 12415
Resolution points: 8192
Number of FFT points: 65536
Apodization: N-B fort;
Phase correction: Mertz;
Laser frequency: 15798.0 cm-1
Number of rejected sample scans: 0
Number of rejected background scans: 0
Bench serial number: ASB1000141;
##RESOLUTION=4.000
##XUNITS=1/CM
##YUNITS=ABSORBANCE
##FIRSTX=649.893372
##LASTX=4000.122314
##FIRSTY=0.069321
##MAXX=4000.122314
##MINX=649.893372
##MAXY=0.282755
##MINY=-0.003133
##XFACTOR=1.000000
##YFACTOR=1.000000E-009
##NPOINTS=6950
##DELTAX=0.482117
##ZPD=6100
##XYDATA=(X++(Y..Y))
649.893 69321312 69333248 69382264 69488904 69652328 69853168 70066280 
653.268 70276776 70490064 70728560 71021008 71385880 71824288 72319448 
656.643 72848592 73396872 73968152 74581536 75262440 76025616 76870296 
660.018 77778952 78731728 79717856 80743784 81828088 82989072 84228512 
663.393 85525904 86840352 88127448 89352104 90487488 91514360 92407448 
666.767 93123112 93607504 93822568 93779512 93539392 93180432 92752432 
670.142 92261512 91683384 90985040 90148616 89185488 88139256 87071040 
673.517 86044576 85101232 84251880 83483080 82770888 82098120 81459328 
676.892 80861112 80311392 79811424 79351560 78914520 78483600 78051392 
680.267 77621680 77206120 76813936 76445456 76088976 75725488 75336840 
683.642 74915320 74467496 74011048 73567968 73153248 72772936 72422512 
687.016 72093328 71777336 71472320 71179960 70903104 70639672 70382904 
690.391 70121608 69847208 69555832 69252640 68946712 68648016 68361480 
693.766 68086168 67815992 67547064 67280712 67027316 66803432 66625320 
697.141 66505164 66447088 66447088 66497252 66590712 66723720 66894912 
700.516 67103408 67343040 67602000 67863832 68112600 68336888 68535096 
703.890 68713256 68882056 69049168 69216968 69379424 69527712 69653688 
707.265 69755960 69840672 69920144 70007608 70111720 70236456 70382160 
710.640 70551216 70754656 71013664 71357376 71815336 72402936 73109256 
714.015 73886920 74657856 75318400 75758072 75891624 75671688 75107224 
717.390 74261328 73249416 72217976 71311616 70668008 70388040 70524824 
720.765 71081648 72006032 73195920 74494440 75715624 76667560 77169424 
724.139 77103616 76436600 75235648 73651384 71890904 70173720 68666912 
727.514 67472440 66614076 66054008 65719596 65533376 65438488 65398804 
730.889 65398232 65428892 65481744 65544472 65606052 65662124 65719248 
734.264 65790756 65891356 66027036 66191436 66367828 66538304 66691108 
737.639 66826888 66956604 67095368 67254056 67433976 67627440 67824280 
741.013 68018656 68213352 68419072 68646616 68901896 69181184 69473040 
744.388 69764640 70048800 70328432 70614128 70918120 71246648 71596440 
747.763 71956944 72316552 72668968 73017168 73370344 73738112 74122736 
751.138 74516896 74906184 75278128 75628424 75964912 76302568 76656656 
754.513 77033112 77425128 77815808 78187520 78530880 78848680 79153440 
757.888 79459168 79773832 80094784 80413096 80719720 81014216 81306832 
761.262 81613768 81947912 82312608 82699328 83094536 83490032 83891984 
764.637 84322200 84812528 85392424 86077304 86867344 87750712 88714184 
768.012 89751048 90866000 92074328 93405640 94909560 96670768 98832392 
771.387 101580056 105119664 109609920 115063152 121253960 127641808 
774.279 133457080 137748784 139625888 138556624 134492448 127940208 
777.172 119758344 111001016 102616576 95252496 89268544 84707096 81401136 
780.547 79069040 77425880 76244584 75361832 74687768 74173512 73791320 
783.922 73527464 73379640 73361048 73496032 73814056 74340624 75087800 
787.297 76058536 77253976 78684104 80375464 82369920 84712728 87447552 
790.671 90605976 94209304 98278408 102840688 107930552 113580240 119796280 
794.046 126533192 133659336 140959776 148126304 154758512 160428896 
796.939 164684368 167094864 167341328 165239568 160803520 154247440 
799.832 145974880 136515088 126413720 116222592 106411328 97325256 89218984 
803.206 82228560 76393424 71685528 68026288 65311068 63420480 62241672 
806.581 61672196 61619496 62007748 62764884 63811652 65060168 66400372 
809.956 67703680 68844432 69702048 70182792 70234360 69841568 69027456 
813.331 67841712 66358560 64663640 62844828 60993484 59189260 57495524 
816.706 55960384 54609840 53453168 52487796 51705244 51096332 50654300 
820.081 50374992 50256012 50295632 50493108 50850676 51377036 52086516 
823.455 53001284 54144888 55535100 57178408 59061316 61147024 63366540 
826.830 65619148 67777416 69678584 71153616 72046512 72234608 71667080 
830.205 70375496 68476592 66141196 63572660 60974916 58507516 56288228 
833.580 54382880 52810036 51557204 50591640 49872476 49353020 48986780 
836.955 48732936 48554524 48425968 48333592 48273344 48246904 48256012 
840.329 48297932 48365000 48446304 48532216 48618260 48706544 48803112 
843.704 48914128 49042460 49186300 49341360 49503684 49673312 49854488 
847.079 50054144 50278556 50530180 50807652 51107512 51427348 51768848 
850.454 52137288 52539884 52982568 53467560 53993240 54556904 55158048 
853.829 55801244 56496264 57254688 58087272 59001036 59999352 61084740 
857.204 62263088 63545732 64950332 66498952 68212032 70108680 72204120 
860.578 74509584 77033184 79775112 82721016 85827072 89013176 92159160 
863.953 95097144 97643064 99609952 100827416 101178704 100606400 99124656 
867.328 96815672 93827008 90356592 86614112 82819040 79168944 75812712 
870.703 72860632 70373008 68365504 66820704 65695928 64934172 64463688 
874.078 64207552 64086488 64017488 63928224 63762492 63485028 63087940 
877.452 62586888 62017340 61421672 60846480 60337036 59932060 59668656 
880.827 59581384 59697816 60039832 60615396 61416136 62412944 63559464 
884.202 64798324 66063068 67291504 68433808 69455160 70346240 71123056 
887.577 71828976 72524264 73277376 74153856 75197592 76426608 77828096 
890.952 79366360 80988624 82636400 84258640 85809112 87248544 88544120 
894.327 89661960 90569232 91236664 91635872 91743744 91541816 91014336 
897.701 90151920 88955304 87441680 85648576 83634944 81481872 79276352 
901.076 77106984 75055584 73183832 71537792 70147000 69025856 68178304 
904.451 67599408 67276336 67188304 67308992 67612144 68073376 68676384 
907.826 69414688 70288936 71303376 72461264 73762176 75201920 76774672 
911.201 78474816 80297600 82236248 84276736 86397128 88565696 90747400 
914.575 92915000 95056024 97180392 99318192 101518136 103838688 106336832 
917.950 109069968 112087104 115422344 119089632 123068448 127294896 
920.843 131646944 135958960 140042992 143708928 146821648 149326048 
923.736 151271168 152802224 154150240 155608192 157465040 159996880 
926.628 163421088 167852752 173283168 179537664 186281520 192968912 
929.521 198890912 203286128 205365472 204511504 200409824 193103728 
932.414 183025824 170897184 157647680 144191488 131322968 119674624 
935.306 109620408 101335544 94835688 90024832 86754320 84860664 84198616 
938.681 84628576 86001888 88148472 90829120 93734528 96521648 98809056 
942.056 100260624 100648128 99872496 97995472 95210464 91817424 88141616 
945.431 84480632 81081384 78093704 75585672 73558312 71969624 70756840 
948.806 69853240 69203408 68760184 68485088 68347936 68321488 68382264 
952.181 68513488 68702856 68943560 69233056 69569480 69949808 70369424 
955.555 70821416 71299352 71798560 72317016 72855336 73414840 73996832 
958.930 74600768 75225408 75869296 76531920 77214864 77920424 78650432 
962.305 79404584 80180176 80973488 81780728 82600776 83435416 84288768 
965.680 85164840 86065192 86988000 87928288 88880976 89843544 90817600 
969.055 91808792 92824888 93871840 94952608 96065832 97208488 98378136 
972.429 99575360 100803888 102069352 103376728 104728408 106123560 107560304 
975.804 109037336 110556376 112121328 113737056 115406312 117128136 
978.697 118899320 120715392 122574816 124481064 126441464 128465000 
981.590 130557480 132719768 134946688 137228928 139555616 141916240 
984.482 144298176 146681920 149039072 151326592 153489904 155474192 
987.375 157227328 158712752 159915184 160839312 161508512 161958400 
990.268 162238192 162403984 162514672 162633424 162814352 163098800 
993.160 163512288 164061024 164738256 165529456 166422032 167408016 
996.053 168484736 169652112 170907904 172244704 173652288 175119664 
998.946 176639280 178209472 179830784 181500432 183207296 184927152 
1001.839 186625712 188267200 189818896 191261296 192589488 193811680 
1004.731 194944784 196011664 197041648 198068096 199131584 200277376 
1007.624 201545984 202969440 204563600 206326432 208241920 210288448 
1010.517 212448240 214710304 217071616 219531152 222084368 224719904 
1013.409 227422160 230175152 232969584 235802464 238672288 241568752 
1016.302 244462800 247298656 250003216 252492512 254686080 256526592 
1019.195 257982432 259052272 259761696 260163488 260336960 260377680 
1022.087 260404016 260539232 260889776 261540688 262535488 263874736 
1024.980 265522656 267419248 269495584 271674496 273879680 276029920 
1027.873 278030368 279784064 281196608 282187520 282710848 282755360 
1030.766 282345120 281525568 280357728 278909152 277246176 275439808 
1033.659 273557120 271648256 269736224 267798784 265766384 263518752 
1036.552 260909264 257794112 254042416 249568272 244335040 238351440 
1039.446 231670368 224382944 216619520 208531968 200292192 192079840 
1042.339 184048960 176330704 169021600 162176448 155824400 149973744 
1045.232 144619152 139748384 135342432 131376800 127819808 124634936 
1048.125 121785256 119234016 116950480 114909872 113090656 111473600 
1051.018 110038984 108765096 107630896 106617584 105709504 104895264 
1053.911 104164416 103503544 102895312 102314568 101731000 101114888 
1056.804 100437624 99676720 98818248 97855112 96787640 95624376 94383904 
1060.179 93095320 91796712 90536296 89363864 88325192 87461296 86800728 
1063.554 86361552 86153016 86176208 86426672 86893080 87558488 88397488 
1066.930 89377056 90461776 91614104 92799376 93990304 95163344 96298992 
1070.305 97379816 98386816 99302288 100112600 100809280 101392536 101870152 
1073.680 102256920 102571464 102835104 103072432 103307664 103564056 
1076.573 103860064 104202648 104584840 104982760 105362464 105683040 
1079.466 105907472 106011544 105984272 105827816 105551496 105168208 
1082.359 104690872 104134680 103523680 102895152 102300320 101809784 
1085.252 101502648 101460296 101765432 102485496 103671696 105349880 
1088.146 107511912 110105240 113020632 116102360 119138496 121880960 
1091.039 124095384 125569360 126160008 125818384 124590968 122614144 
1093.932 120081336 117234328 114315744 111536776 109076176 107047392 
1096.825 105499792 104422272 103750064 103376816 103162464 102962760 
1099.718 102634240 102047816 101111872 99770472 98013456 95874112 93425248 
1103.093 90767864 88007888 85253168 82594488 80096024 77802296 75736408 
1106.468 73905968 72310680 70945312 69802536 68873544 68148224 67614976 
1109.844 67259976 67068956 67026032 67112304 67306360 67580672 67900792 
1113.219 68229288 68525744 68751488 68877352 68882128 68756616 68501152 
1116.594 68124648 67642192 67072788 66440024 65769092 65084876 64412228 
1119.969 63772508 63182668 62656924 62204812 61831096 61535080 61307792 
1123.344 61130432 60972364 60797388 60565876 60244492 59816216 59283860 
1126.720 58672464 58022168 57384336 56809100 56335872 55992348 55790132 
1130.095 55727632 55792012 55963284 56216716 56522112 56848684 57167408 
1133.470 57453236 57691952 57881352 58032432 58165416 58306964 58484956 
1136.845 58721620 59032996 59425512 59896192 60431964 61010224 61602696 
1140.221 62174680 62691412 63122884 63444912 63643320 63713296 63657128 
1143.596 63482300 63199028 62821312 62364632 61846680 61286956 60702348 
1146.971 60106836 59507660 58905436 58294840 57667848 57016668 56336284 
1150.346 55625856 54888460 54130176 53358936 52582704 51810692 51051760 
1153.722 50314492 49606856 48934488 48300524 47705088 47146220 46621272 
1157.097 46128308 45667412 45239988 44848984 44496768 44185260 43915212 
1160.472 43686920 43500752 43357096 43255836 43194348 43166164 43161080 
1163.847 43163532 43156248 43122104 43045160 42912624 42715712 42447676 
1167.223 42105248 41687844 41198696 40644748 40036748 39388492 38713672 
1170.598 38025248 37334884 36650952 35981700 35335296 34720860 34149192 
1173.973 33630976 33175812 32791410 32482288 32251396 32100246 32030684 
1177.348 32045092 32146376 32337450 32620318 32996706 33468894 34040456 
1180.724 34717416 35506848 36415996 37450556 38613452 39906184 41330488 
1184.099 42891012 44597472 46464336 48507804 50743740 53181572 55820044 
1187.474 58642580 61613620 64678760 67756264 70745144 73532016 75993208 
1190.849 78021880 79539984 80508808 80936960 80874608 80405240 79620976 
1194.225 78614416 77464496 76222712 74917920 73556624 72131312 70628632 
1197.600 69039104 67362928 65613448 63816064 62002284 60207916 58464108 
1200.975 56794184 55214448 53732928 52353212 51076912 49906000 48842784 
1204.350 47889328 47045512 46307236 45665168 45106932 44617192 44180968 
1207.726 43785784 43421724 43081600 42760828 42455496 42163772 41885672 
1211.101 41624312 41386028 41179900 41017344 40910256 40869664 40906692 
1214.476 41031616 41254512 41586024 42035448 42610400 43315472 44151804 
1217.851 45117960 46211220 47430040 48773600 50242288 51836380 53554736 
1221.227 55394936 57355292 59436148 61642984 63986004 66479640 69138472 
1224.602 71973688 74989976 78183544 81540360 85033040 88620960 92245480 
1227.977 95823624 99258720 102435240 105228368 107524608 109221624 110242272 
1231.352 110546384 110132776 109048664 107384912 105285024 102929080 
1234.245 100509032 98233664 96293736 94849008 94037536 93960352 94688800 
1237.621 96273976 98744448 102108752 106348168 111414536 117216480 123608792 
1240.996 130408976 137380064 144240480 150700512 156446240 161176848 
1243.889 164647920 166676848 167182528 166190928 163832656 160319024 
1246.782 155905040 150889088 145566992 140212416 135078624 130350992 
1249.675 126137584 122455408 119224816 116281480 113396248 110338968 
1252.568 106904160 102958304 98470320 93507096 88220928 82801560 77460688 
1255.943 72386808 67712896 63522568 59839336 56639496 53865052 51441000 
1259.319 49289916 47335216 45514832 43782488 42105576 40467628 38863156 
1262.694 37294048 35765488 34283740 32854338 31482100 30171934 28929454 
1266.069 27760270 26669476 25659618 24730280 23877590 23095892 22380134 
1269.444 21726510 21133484 20600990 20128108 19712324 19349108 19032406 
1272.820 18757000 18519354 18317502 18150672 18017060 17912942 17833150 
1276.195 17772706 17727904 17698672 17688076 17700984 17741468 17812438 
1279.570 17914080 18045140 18203326 18385282 18585610 18793606 18992872 
1282.945 19161932 19276048 19314290 19264794 19127930 18916796 18654156 
1286.321 18368966 18087868 17833878 17624340 17470468 17379170 17354616 
1289.696 17397658 17506102 17674100 17893742 18155266 18449408 18768142 
1293.071 19103586 19446084 19784172 20102602 20385946 20621872 20803662 
1296.446 20933406 21020584 21080126 21127328 21175230 21233716 21308634 
1299.822 21404694 21525634 21674400 21851650 22053304 22270326 22488294 
1303.197 22690768 22862496 22990760 23067412 23087820 23049664 22952822 
1306.572 22799668 22596622 22355192 22091058 21823358 21569436 21342322 
1309.947 21149140 20990884 20866164 20773598 20714548 20692932 20713332 
1313.323 20778358 20886780 21034008 21214372 21423318 21659494 21924478 
1316.698 22220908 22550098 22910904 23299978 23713474 24149398 24608166 
1320.073 25091710 25600816 26133004 26681456 27235962 27785456 28321780 
1323.448 28841312 29346184 29842952 30343202 30863094 31421438 32041386 
1326.823 32746136 33552110 34462944 35462188 36511740 37550580 38509092 
1330.199 39321560 39935680 40326680 40499052 40484976 40333952 40106004 
1333.574 39864672 39664560 39553668 39569820 39737060 40068252 40563872 
1336.949 41216040 42010740 42933696 43974240 45124688 46379016 47729088 
1340.324 49161364 50656084 52188512 53728052 55240184 56684308 58007700 
1343.700 59151636 60051628 60643780 60880556 60733592 60198516 59292368 
1347.075 58049204 56514376 54736780 52771572 50678352 48517100 46355308 
1350.450 44261344 42297208 40520480 38972924 37677728 36641756 35856812 
1353.825 35305572 34964600 34808264 34807656 34927752 35131152 35377960 
1357.201 35629408 35856092 36038000 36165212 36237060 36258204 36238320 
1360.576 36191500 36140760 36119228 36167768 36333816 36659136 37170696 
1363.951 37880072 38783228 39868808 41122780 42531348 44075628 45719464 
1367.326 47406088 49050616 50541832 51766796 52618980 53017908 52923652 
1370.702 52335532 51293276 49865784 48154420 46282800 44379316 42579664 
1374.077 40999136 39714044 38758084 38121208 37767284 37652324 37744948 
1377.452 38034688 38534112 39272740 40291888 41640172 43363612 45502724 
1380.827 48077608 51068864 54390540 57868064 61260132 64255996 66532084 
1384.203 67819088 67911872 66721440 64288920 60812976 56631608 52158212 
1387.578 47830360 43981092 40791952 38300956 36436428 35074968 34080592 
1390.953 33340252 32765574 32292188 31879968 31503122 31149740 30819340 
1394.328 30520114 30264042 30061348 29915466 29822474 29773608 29757674 
1397.704 29764418 29786382 29817398 29853032 29889484 29922636 29948302 
1401.079 29962680 29962040 29944928 29912626 29872304 29836458 29823468 
1404.454 29853812 29943792 30101828 30325968 30605684 30926528 31275384 
1407.829 31645152 32033964 32443584 32875746 33328984 33797556 34273628 
1411.205 34749824 35222448 35691668 36159556 36627012 37091728 37547688 
1414.580 37988944 38411496 38815724 39205352 39585572 39959984 40330900 
1417.955 40702496 41086212 41501764 41976688 42533396 43178240 43900696 
1421.330 44676788 45481092 46294520 47114792 47958892 48860728 49858724 
1424.706 50983824 52252300 53663564 55209704 56883884 58685284 60613116 
1428.081 62654248 64775520 66912188 68975720 70876072 72536520 73916416 
1431.456 75018008 75883264 76580528 77185736 77778552 78433976 79227752 
1434.831 80251608 81611048 83414104 85746576 88624376 91984104 95704616 
1438.207 99646792 103674760 107647240 111417024 114793592 117552184 
1441.100 119484240 120408416 120222424 118917280 116564456 113293952 
1443.993 109257712 104625352 99554024 94176712 88620432 83006160 77470792 
1447.368 72192464 67365328 63168944 59727392 57073572 55162936 53903688 
1450.743 53202172 52981784 53190184 53792556 54750800 56016656 57544360 
1454.118 59292748 61244376 63412972 65826348 68500296 71396432 74405792 
1457.494 77370800 80144712 82639328 84824208 86705328 88302616 89643224 
1460.869 90757776 91678104 92433312 93041832 93506520 93817096 93960968 
1464.244 93940200 93781608 93535984 93256744 92975696 92693656 92382528 
1467.619 92002040 91509584 90869512 90049288 89006584 87680672 85993048 
1470.995 83867232 81274352 78279000 75061216 71859944 68892104 66278308 
1474.370 64029276 62089580 60393768 58911128 57659256 56694048 56075844 
1477.745 55851584 56038784 56633192 57628228 59029620 60861272 63159212 
1481.120 65953560 69252600 73033704 77250728 81850536 86784672 92027504 
1484.496 97566816 103385056 109444600 115649016 121817664 127699432 
1487.389 132957456 137205280 140072544 141236864 140511296 137908208 
1490.282 133667592 128214000 122034008 115586144 109188048 102997704 
1493.175 97066688 91368272 85857600 80523840 75405656 70599752 66239288 
1496.550 62444048 59281164 56745172 54782488 53314540 52268220 51592840 
1499.925 51254088 51229076 51497292 52033552 52805772 53778152 54902224 
1503.301 56119316 57357524 58506796 59417916 59898092 59726784 58739108 
1506.676 56912588 54400604 51453496 48298560 45071128 41822372 38566992 
1510.051 35323288 32124900 29035256 26130858 23472784 21102560 19027768 
1513.426 17228420 15670093 14314644 13127748 12078739 11143986 10308744 
1516.802 9566076 8918758 8372241 7927228 7573428 7287131 7033787 6779682 
1520.659 6504805 6216354 5947275 5739430 5617403 5575583 5583503 5601091 
1524.516 5596694 5554540 5481518 5399887 5337424 5310824 5319378 5348393 
1528.374 5380496 5404785 5421358 5438234 5463332 5497189 5529672 5542827 
1532.231 5519369 5454742 5364025 5279632 5232176 5237542 5287178 5357685 
1536.089 5420083 5451118 5438134 5379121 5280336 5152436 5005903 4849200 
1539.946 4691215 4546746 4435129 4373875 4369290 4412233 4481326 4551300 
1543.803 4605010 4638565 4664119 4700727 4764606 4859319 4974297 5089673 
1547.661 5185497 5251191 5287782 5307873 5327596 5358557 5399686 5438637 
1551.518 5457292 5441522 5386770 5300594 5198206 5097317 5009758 4936057 
1555.376 4867462 4790100 4690578 4558833 4389707 4185349 3961159 3748748 
1559.233 3586485 3504274 3508248 3583344 3704100 3843040 3977009 4086000 
1563.091 4159456 4196958 4209103 4213820 4229044 4264779 4318721 4378661 
1566.948 4429070 4459097 4466830 4461507 4458796 4475801 4522706 4600020 
1570.805 4701062 4817739 4944670 5078308 5215308 5350003 5472995 5574374 
1574.663 5649493 5705521 5765015 5859914 6020039 6256825 6563097 6922135 
1578.520 7320287 7752738 8226037 8753571 9350467 10027522 10787284 11623925 
1582.378 12524960 13474415 14450170 15422319 16353467 17195464 17899336 
1585.753 18426350 18754302 18886964 18853916 18710816 18527686 18382724 
1589.128 18356214 18514790 18910288 19573654 20508268 21684710 23033870 
1592.503 24455902 25815540 26961830 27758612 28091144 27895430 27168516 
1595.879 25970252 24411244 22624582 20753368 18918214 17206666 15678991 
1599.254 14364232 13270249 12388567 11701935 11188828 10829100 10608891 
1602.629 10521673 10566519 10745507 11058939 11502886 12068042 12737306 
1606.004 13485080 14277114 15063185 15780821 16363446 16742563 16865276 
1609.380 16703686 16258381 15560836 14667640 13656555 12606304 11585571 
1612.755 10644916 9806770 9073282 8431798 7865042 7357087 6900421 6499053 
1616.612 6165133 5912006 5746817 5665136 5652950 5690515 5755177 5825625 
1620.470 5884599 5919966 5928430 5916171 5897664 5889536 5904314 5945158 
1624.327 6005861 6075208 6142414 6201263 6250303 6291617 6328800 6365313 
1628.185 6403679 6445949 6494547 6552030 6619546 6696258 6777292 6854807 
1632.042 6917926 6955769 6959337 6922774 6845988 6735697 6608343 6485835 
1635.899 6391910 6343459 6344871 6389993 6465320 6555965 6646999 6726240 
1639.757 6786716 6826903 6851710 6869315 6888301 6912607 6940349 6963176 
1643.614 6969506 6948294 6892072 6800515 6682362 6554418 6437811 6352200 
1647.472 6311217 6319151 6371836 6458796 6566326 6675901 6764167 6804453 
1651.329 6766927 6631456 6405091 6142684 5931790 5839730 5878486 6010262 
1655.187 6183516 6355226 6499995 6607603 6676675 6712208 6720857 6708574 
1659.044 6678761 6632398 6569050 6488560 6391540 6280725 6160797 6038954 
1662.901 5923560 5823308 5744870 5690615 5658522 5640564 5624888 5598406 
1666.759 5547257 5461855 5339134 5185229 5014752 4847056 4701162 4589305 
1670.616 4514871 4473157 4454946 4448016 4438677 4413538 4359818 4269597 
1674.474 4144503 3999480 3859888 3750185 3683949 3658052 3657083 3660291 
1678.331 3650100 3618425 3567342 3507580 3451501 3406549 3369449 3325540 
1682.188 3252625 3130894 2953215 2737229 2523349 2357845 2266940 2245324 
1686.046 2267339 2303846 2334692 2349217 2345153 2325465 2294386 2255915 
1689.903 2213351 2170492 2132032 2102931 2085851 2078560 2072434 2052559 
1693.761 2002026 1907534 1768413 1601733 1440968 1320674 1256735 1241150 
1697.618 1247065 1243310 1201809 1108753 971615 823498 709813 661494 681969 
1701.958 749840 837043 918286 978157 1009773 1013957 998282 974703 956439 
1706.297 952520 966667 996787 1037206 1081548 1124400 1163302 1199051 
1710.155 1234604 1273450 1318181 1368768 1423183 1477638 1528974 1575495 
1714.012 1617165 1654548 1687211 1711593 1723037 1717049 1694629 1664626 
1717.870 1642840 1645834 1682820 1752145 1843509 1943179 2038044 2119213 
1721.727 2183812 2233800 2274134 2309875 2344653 2379500 2413717 2446404 
1725.584 2477694 2508552 2539613 2569810 2596175 2614108 2620542 2614809 
1729.442 2600408 2581776 2562344 2540147 2506619 2447303 2346851 2197033 
1733.299 2006453 1805577 1636321 1535192 1513114 1555110 1632330 1715252 
1737.157 1782287 1819152 1821082 1790871 1738505 1676833 1618395 1571637 
1741.014 1539681 1522191 1516638 1520628 1532067 1548792 1569343 1592255 
1744.872 1616666 1641643 1666555 1690005 1710728 1726995 1737774 1742830 
1748.729 1742930 1739537 1733715 1726463 1719011 1712891 1710263 1713623 
1752.586 1723369 1737973 1752145 1757701 1744959 1705972 1637186 1542242 
1756.444 1431427 1319577 1219286 1136160 1067398 1003961 935187 852546 
1760.301 753093 640953 526023 420541 334948 274900 240420 227325 228950 
1764.641 238232 247813 250532 240454 214960 175612 129275 85494 53448 36515 
1769.463 31445 29125 19284 -5699 -44927 -88790 -120193 -123870 -93162 -31940 
1774.284 48776 136699 222784 303050 377693 448667 516535 579105 632259 
1778.624 672014 697036 710444 718841 730191 750106 778917 812244 843118 
1782.964 866191 878808 883057 883954 887075 896272 912176 932464 954380 
1787.303 975666 995226 1012031 1024452 1028770 1020201 993533 946709 881995 
1791.643 807730 735701 676261 635047 611090 598083 588395 575787 556942 
1795.982 531032 498555 459812 414538 361908 301425 234785 165635 99115 41386 
1800.804 -3147 -32834 -48406 -52116 -47412 -37108 -23955 -10602 629 8217 
1805.626 11663 12326 13154 17461 27734 44203 64616 85262 102893 116282 
1810.448 126855 138853 156785 183435 218839 259649 302254 342774 379517 
1814.787 413112 445748 479614 516469 556644 599377 643177 687213 730158 
1819.127 771017 808095 839101 861842 874359 875521 865295 843915 812410 
1823.467 772046 725777 678186 636009 606079 593073 597121 613379 632923 
1827.806 645168 641119 618091 580233 539293 508640 499915 517265 556644 
1832.146 609431 666306 720965 771482 819714 869711 925126 987621 1056470 
1836.485 1130147 1207192 1287972 1374319 1468296 1571537 1683552 1802150 
1840.343 1923842 2044503 2160835 2270170 2371471 2466064 2558544 2656878 
1844.200 2770707 2908782 3075330 3267281 3475381 3686923 3888171 4067671 
1848.058 4219408 4342449 4439915 4516880 4576881 4620582 4645833 4648813 
1851.915 4626911 4579928 4510653 4423178 4321097 4206326 4078541 3937319 
1855.772 3783374 3619594 3451434 3285376 3125755 2974466 2830167 2690684 
1859.630 2554478 2422880 2298949 2186709 2088149 2002492 1925905 1853891 
1863.487 1783119 1713390 1647463 1588431 1538418 1496257 1457690 1417897 
1867.345 1373853 1327354 1284915 1255472 1245703 1257466 1286842 1325892 
1871.202 1366075 1401908 1430430 1451440 1465636 1473382 1474247 1467631 
1875.060 1453435 1433422 1409919 1385853 1362020 1337624 1309275 1274148 
1878.917 1230218 1177854 1119051 1056171 989846 919448 842354 757607 666107 
1883.257 572668 484557 408303 347914 302519 266810 233624 196794 153702 
1887.596 106141 58982 17594 -13551 -32668 -40322 -37340 -24286 -1027 32108 
1892.418 73862 121055 169314 215358 257494 297612 339093 385453 438087 
1896.758 495304 553293 608269 658574 705565 752363 802186 856331 912574 
1901.097 967231 1016149 1057832 1094038 1129217 1167123 1209384 1253877 
1904.955 1295815 1329648 1352016 1362187 1362685 1356968 1347496 1335131 
1908.812 1319777 1301199 1281226 1263647 1252083 1249225 1253977 1261453 
1912.669 1265109 1259161 1241150 1212275 1176093 1135196 1089819 1036973 
1916.527 972478 893981 803713 708917 619650 543340 482202 431254 382701 
1920.866 328416 264921 195103 127518 71244 32903 12094 3114 -1954 -9310 
1925.688 -20708 -33199 -42343 -45258 -42343 -37539 -35982 -40951 -52282 
1930.028 -66925 -80408 -90015 -96541 -103332 -113899 -129832 -149839 -169712 
1934.367 -186438 -199652 -212668 -231346 -260322 -300123 -346178 -390607 
1938.225 -426490 -450654 -466045 -479449 -498480 -526511 -561259 -594878 
1942.082 -617874 -623830 -611985 -587665 -558016 -528993 -502452 -476570 
1945.940 -448734 -419208 -390640 -368559 -357236 -356508 -360646 -360713 
1949.797 -348662 -320718 -279991 -235717 -198493 -176767 -172362 -182762 
1953.655 -201905 -224789 -249262 -277607 -312838 -358527 -413911 -476669 
1957.512 -542131 -607683 -670843 -730752 -786056 -832225 -863012 -873759 
1961.369 -862384 -833151 -793729 -755097 -724004 -702899 -688277 -675243 
1965.227 -660620 -647585 -642159 -653276 -683944 -730818 -782186 -824552 
1969.084 -848297 -852463 -845585 -839897 -846643 -869361 -901700 -932086 
1972.942 -947692 -941377 -911785 -864004 -802195 -727411 -636832 -525386 
1976.799 -392196 -244592 -96707 33930 134578 199678 233624 244266 240354 
1981.139 226132 201335 164243 116349 62892 13618 -21702 -37936 -37804 -29422 
1985.960 -24187 -29653 -46318 -67024 -81005 -79116 -58444 -24087 15440 51062 
1990.782 79197 101667 125331 155824 195269 240818 287201 330869 371757 
1995.122 413875 462598 520350 584911 648751 702081 737659 754089 755317 
1999.461 748380 739120 730191 717845 697003 662622 614540 557075 497262 
2003.801 440077 388272 339955 292075 243238 196661 156951 129938 115885 
2008.141 109753 100242 77739 36614 -19581 -81071 -134536 -170143 -184384 
2012.480 -182132 -171501 -159908 -149375 -138014 -120624 -94786 -62486 
2016.338 -29620 -3479 12591 22233 33566 56430 96497 153702 220828 289323 
2021.159 351561 404954 451321 493579 531231 560691 574559 568720 542809 
2025.499 505024 466313 437457 423162 419414 416097 402964 375338 337104 
2029.839 299270 274071 270026 288196 322049 363068 406081 451719 505521 
2034.178 573896 657976 752130 845774 927417 991540 1040162 1082212 1128087 
2038.518 1183734 1249524 1318946 1384656 1441999 1490771 1536389 1584607 
2042.375 1638051 1693631 1743961 1780923 1799521 1801185 1792168 1781655 
2046.233 1777629 1782553 1795628 1812531 1829367 1842677 1850397 1849132 
2050.090 1834558 1801983 1748619 1676733 1595548 1517104 1456460 1422584 
2053.948 1418130 1435815 1463176 1487213 1499316 1498285 1489175 1478702 
2057.805 1472485 1470290 1469293 1465204 1456859 1446553 1440170 1442331 
2061.662 1454698 1473549 1491369 1500346 1497454 1484021 1467232 1455064 
2065.520 1453867 1464073 1482592 1503272 1522025 1538085 1553913 1572103 
2069.377 1593918 1615701 1631998 1636255 1625379 1600603 1567081 1531535 
2073.235 1498152 1467963 1438109 1404733 1365244 1320342 1274148 1231913 
2077.092 1197722 1172040 1152671 1135794 1118520 1100249 1083010 1068693 
2080.949 1058098 1049562 1039531 1024054 1002035 975135 948137 925956 911479 
2085.289 904108 900223 894147 880534 857526 825423 787049 745857 704902 
2089.629 666107 631032 601501 579403 566630 564241 570213 581593 593936 
2093.968 604354 612019 618555 626220 636706 649017 660034 666007 664912 
2098.308 657479 648121 641982 643641 653961 670587 688673 704205 715621 
2102.647 725279 737095 755350 781373 813307 847467 880335 910084 938707 
2106.987 968925 1004060 1045144 1090517 1136591 1180777 1221811 1261088 
2110.844 1300800 1342643 1385121 1424745 1456261 1476408 1485152 1487014 
2114.702 1488211 1495326 1512050 1537952 1569509 1602531 1633993 1663927 
2118.559 1694396 1728026 1765818 1806508 1846703 1882309 1910397 1930298 
2122.417 1943145 1951666 1956991 1959787 1959255 1954295 1943911 1928368 
2126.274 1907401 1879414 1842078 1791436 1724700 1641477 1545201 1442032 
2130.132 1339585 1243842 1158053 1082113 1014024 951923 896305 849824 815199 
2134.471 793854 782966 775963 766303 748380 721695 690034 660333 637038 
2138.811 622404 613744 606577 597784 587565 578408 575223 580332 590983 
2143.150 600206 599841 583152 549577 504758 457656 417192 387211 365390 
2147.490 346123 322414 291776 254908 217214 182209 151979 123010 90730 49902 
2152.312 231 -57318 -119001 -183391 -252043 -329823 -417023 -508971 -588459 
2156.651 -631307 -608312 -501028 -306282 -44364 250167 539624 794020 999278 
2160.991 1157355 1278800 1375283 1455828 1525150 1584706 1636288 1682122 
2164.848 1725166 1766484 1804778 1835656 1854190 1857717 1846936 1826173 
2168.706 1801884 1776498 1750149 1719145 1679228 1628938 1573333 1521593 
2172.563 1486249 1476807 1496523 1541310 1601866 1666755 1725831 1773537 
2176.421 1808338 1829600 1838484 1834591 1818420 1792268 1760895 1731652 
2180.278 1711560 1705306 1712957 1731619 1755339 1779792 1803015 1826206 
2184.135 1850197 1875620 1900579 1922211 1939784 1955760 1974832 2005655 
2187.993 2053924 2120278 2199397 2281129 2353747 2409086 2444671 2464031 
2191.850 2474028 2482026 2491656 2503220 2514918 2524416 2531148 2536447 
2195.708 2541546 2547179 2551145 2550278 2541413 2524482 2501354 2477460 
2199.565 2457367 2443805 2435308 2429044 2420447 2408020 2393326 2381266 
2203.423 2376235 2380733 2392993 2408286 2421214 2428444 2429677 2428944 
2207.280 2429844 2435675 2445438 2456434 2464398 2467263 2465597 2462398 
2211.137 2461332 2464997 2472595 2481626 2488857 2493823 2498288 2507186 
2214.995 2524383 2551812 2587576 2626942 2663913 2695685 2722124 2747265 
2218.852 2775509 2808823 2845909 2881397 2908215 2920390 2915487 2895606 
2222.710 2865854 2832635 2801020 2773308 2749866 2729260 2709755 2689950 
2226.567 2668747 2645077 2618509 2588875 2558144 2529482 2506986 2493989 
2230.425 2491290 2495889 2502687 2504787 2497955 2480759 2456800 2432376 
2234.282 2413217 2403288 2403188 2409419 2418348 2427045 2434942 2443672 
2238.139 2455734 2471695 2490990 2510585 2527982 2541380 2551912 2561011 
2241.997 2571276 2583042 2595109 2604209 2608142 2605342 2597842 2589342 
2245.854 2584142 2585675 2595208 2611042 2630743 2651044 2670347 2686550 
2249.712 2699252 2707021 2708888 2704487 2695251 2683816 2675014 2672981 
2253.569 2680182 2696185 2717757 2740263 2759436 2772941 2780377 2783445 
2257.427 2783345 2780377 2773341 2760436 2740930 2716023 2689784 2665846 
2261.284 2649011 2641277 2642610 2651311 2666046 2686016 2712022 2745031 
2265.141 2785179 2830000 2875693 2917355 2950947 2975434 2992482 3005060 
2268.999 3017138 3030151 3043630 3055443 3063051 3065086 3062417 3057545 
2272.856 3052940 3051138 3052306 3056177 3061883 3069057 3077600 3088144 
2276.714 3100492 3113807 3125988 3135667 3141974 3145846 3150118 3157260 
2280.571 3169509 3187033 3208161 3230460 3251991 3272422 3292854 3315557 
2284.428 3341768 3371252 3401840 3430694 3454974 3473444 3486905 3497660 
2288.286 3508182 3520407 3534905 3552042 3570950 3592064 3616253 3644553 
2292.143 3677433 3714860 3754463 3794036 3831140 3864736 3894724 3922105 
2296.001 3948185 3973464 3998076 4021552 4043323 4063858 4083424 4102623 
2299.858 4121254 4138515 4152498 4162132 4166816 4167184 4165143 4162935 
2303.716 4161798 4161898 4161932 4160326 4156412 4151160 4146911 4146978 
2307.573 4154170 4169459 4191472 4217601 4244401 4268928 4289641 4306272 
2311.430 4319190 4328995 4335822 4339537 4340340 4338767 4336324 4335220 
2315.288 4337128 4343218 4353861 4368386 4385824 4405405 4426928 4450192 
2319.145 4475400 4502417 4531612 4562751 4596203 4631733 4668238 4702870 
2323.003 4731342 4748459 4749397 4731342 4694966 4644593 4586592 4529101 
2326.860 4479015 4440150 4413806 4398175 4390476 4387866 4388468 4391615 
2330.718 4397472 4406208 4417722 4431715 4448452 4468370 4492842 4522672 
2334.575 4558365 4598480 4641211 4683142 4722264 4757169 4788659 4818041 
2338.432 4846922 4875570 4903618 4929723 4952713 4972118 4988909 5003959 
2342.290 5017802 5029768 5037680 5039054 5032987 5020785 5007076 4999133 
2346.147 5005635 5033087 5085818 5164238 5265746 5385327 5516584 5653118 
2350.005 5788285 5916372 6033242 6136903 6227883 6308527 6382899 6454491 
2353.862 6525793 6597107 6667893 6737076 6804486 6871975 6941998 7017859 
2357.719 7101546 7193402 7291511 7392979 7494672 7593726 7689396 7781005 
2361.577 7869057 7953246 8033300 8108541 8178461 8242617 8300602 8352008 
2365.434 8395921 8431291 8457609 8474941 8483490 8484605 8478928 8466563 
2369.292 8446697 8418082 8379605 8332283 8278684 8223335 8172315 8131835 
2373.149 8106347 8099764 8113909 8149729 8207330 8286485 8386058 8504844 
2377.007 8640598 8791370 8955793 9133374 9324568 9530614 9751972 9988259 
2380.864 10237022 10494415 10755220 11014517 11267848 11511494 11742103 
2384.239 11956621 12150937 12321034 12462895 12573901 12653139 12702095 
2387.615 12723384 12720792 12697591 12656824 12600471 12530484 12447961 
2390.990 12354441 12250751 12137443 12014388 11881119 11737711 11585537 
2394.365 11427497 11268291 11113018 10967009 10834434 10717724 10618194 
2397.740 10536712 10473947 10430978 10409358 10409901 10432980 10477952 
2401.115 10543230 10627294 10728797 10846731 10980941 11130864 11296243 
2404.491 11475941 11669191 11875432 12094752 12328056 12575606 12837563 
2407.866 13112892 13399879 13696630 14002071 14315842 14638442 14970302 
2411.241 15310652 15656490 16003154 16343972 16671423 16978860 17260206 
2414.616 17510792 17727110 17906588 18047696 18150292 18215972 18247658 
2417.992 18249872 18227410 18184012 18122654 18044692 17950546 17840678 
2421.367 17715928 17578034 17429594 17273826 17113944 16953260 16795530 
2424.742 16644567 16505327 16382577 16281052 16204655 16156025 16135873 
2428.117 16144745 16182404 16248818 16344247 16468810 16621638 16801418 
2431.493 17006390 17234522 17484576 17756312 18050320 18367342 18707600 
2434.868 19070592 19454470 19857904 20279556 20719274 21178152 21658032 
2438.243 22160406 22686822 23237404 23812866 24413874 25042248 25700080 
2441.618 26389926 27113846 27872394 28665186 29491416 30348744 31236002 
2444.994 32150588 33090346 34051384 35029816 36020616 37018868 38019716 
2448.369 39019504 40014404 41000808 41975156 42933916 43873460 44791420 
2451.744 45685080 46552588 47390420 48193476 48954700 49665028 50313824 
2455.119 50891164 51386956 51791956 52098172 52297672 52383264 52349248 
2458.495 52191052 51906240 51494980 50958972 50301512 49527192 48641608 
2461.870 47651728 46565608 45393280 44145460 42834216 41472524 40072212 
2465.245 38646192 37207044 35767000 34338780 32935328 31568322 30249584 
2468.620 28989488 27796406 26677016 25635964 24674936 23793650 22989710 
2471.996 22259304 21596494 20995232 20448388 19948856 19490510 19067648 
2475.371 18675360 18309726 17966776 17642972 17335306 17040780 16757783 
2478.746 16485674 16224535 15975516 15738973 15515540 15304749 15106341 
2482.121 14919443 14743800 14579399 14426363 14284681 14154067 14033383 
2485.497 13922243 13820437 13728707 13648383 13581099 13528112 13489044 
2488.872 13462351 13445844 13436616 13432789 13433438 13438496 13448646 
2492.247 13465051 13488189 13518576 13556588 13602397 13656247 13718174 
2495.622 13786848 13860698 13936921 14012919 14086465 14157285 14225617 
2498.998 14292968 14360533 14428555 14496005 14561170 14622062 14677306 
2502.373 14727279 14773143 14816579 14859744 14903704 14948867 14995098 
2505.748 15042089 15089394 15136806 15184121 15230034 15273207 15311476 
2509.123 15342470 15364302 15375184 15373708 15358809 15329358 15284224 
2512.499 15222966 15145830 15053752 14948935 14834202 14712129 14585498 
2515.874 14456609 14327143 14199050 14074007 13953550 13839182 13731922 
2519.249 13631595 13538129 13451346 13371278 13298536 13234278 13178602 
2522.624 13131402 13091037 13055832 13023839 12994443 12968088 12946547 
2526.000 12931834 12925075 12926441 12934974 12948868 12967337 12990346 
2529.375 13019571 13057027 13104765 13162550 13229154 13301918 13377702 
2532.750 13454285 13531120 13608688 13688321 13771149 13858099 13948862 
2536.125 14043239 14140683 14241504 14345464 14452533 14561992 14672336 
2539.500 14782262 14890536 14997396 15104008 15212294 15324279 15440824 
2542.876 15561729 15685070 15809102 15931655 16051494 16167924 16280947 
2546.251 16390525 16496584 16599124 16698245 16794426 16888390 16980754 
2549.626 17071900 17161304 17247796 17329892 17406348 17476504 17541256 
2553.001 17601564 17658674 17713650 17766838 17817582 17865708 17910386 
2556.377 17951306 17987842 18019476 18044862 18062720 18071426 18069870 
2559.752 18057262 18033430 17998342 17952064 17894538 17825556 17745818 
2563.127 17656844 17560782 17461120 17361272 17263586 17169714 17080238 
2566.502 16994814 16913848 16838306 16769940 16711364 16664570 16630623 
2569.878 16609211 16598951 16597368 16602429 16612653 16627526 16646771 
2573.253 16671387 16701860 16739015 16783440 16835724 16895934 16963768 
2576.628 17037576 17115322 17194396 17272518 17348410 17422316 17495614 
2580.003 17570408 17648458 17731322 17819068 17911250 18006974 18105416 
2583.379 18206090 18309070 18414148 18521324 18630120 18740118 18850628 
2586.754 18961548 19072220 19182364 19291014 19396918 19498898 19596256 
2590.129 19688816 19777340 19863072 19947190 20030180 20111866 20191452 
2593.504 20268344 20342576 20415500 20489062 20565656 20647306 20735226 
2596.880 20829072 20928642 21032964 21142252 21257204 21379008 21508712 
2600.255 21646886 21793046 21946260 22105526 22269734 22438748 22612784 
2603.630 22792196 22977274 23167778 23362804 23561628 23763342 23967286 
2607.005 24173498 24381700 24591754 24803140 25014766 25225198 25432570 
2610.381 25634734 25828622 26011374 26179564 26329862 26459224 26565906 
2613.756 26648550 26707460 26743436 26758166 26753690 26732230 26695620 
2617.131 26645802 26584540 26513320 26433696 26347570 26256572 26162916 
2620.506 26068508 25975492 25885346 25799190 25717412 25640146 25567534 
2623.882 25499958 25438718 25385530 25342606 25311592 25293538 25288866 
2627.257 25296734 25316228 25346362 25386864 25437664 25499292 25571610 
2630.632 25654276 25746344 25845994 25951784 26062176 26176466 26294376 
2634.007 26415982 26541742 26671768 26806518 26946176 27091132 27241218 
2637.383 27396616 27556552 27720148 27885856 28052476 28219158 28384986 
2640.758 28549850 28713822 28876332 29037062 29195052 29349340 29499534 
2644.133 29645666 29788440 29928884 30068094 30206958 30346044 30486274 
2647.508 30628222 30773170 30922330 31077196 31238672 31407080 31582542 
2650.884 31764380 31952396 32146126 32345910 32552172 32765396 32986090 
2654.259 33214546 33450998 33695492 33948040 34208732 34477400 34753704 
2657.634 35037076 35326596 35621420 35921232 36225572 36534992 36849244 
2661.009 37168312 37491336 37816988 38143708 38469376 38792756 39112856 
2664.385 39429312 39742620 40053536 40363620 40674076 40986608 41302680 
2667.760 41623292 41948952 42279860 42615444 42955604 43299908 43648484 
2671.135 44001332 44358508 44719868 45084360 45450484 45816252 46179492 
2674.510 46538240 46890568 47234612 47568612 47891180 48201140 48498204 
2677.885 48783464 49059300 49329300 49598128 49870916 50152168 50446180 
2681.261 50757036 51087572 51440552 51818164 52222028 52653056 53111280 
2684.636 53596380 54107396 54643392 55203196 55785496 56389176 57012208 
2688.011 57652788 58308708 58978568 59661280 60356912 61065480 61787584 
2691.386 62523172 63271888 64032808 64805672 65590440 66387668 67198360 
2694.762 68023616 68863568 69717792 70585088 71463688 72352560 73250584 
2698.137 74157552 75072760 75995696 76924592 77857544 78792464 79726936 
2701.512 80659672 81589016 82512976 83429032 84333464 85221280 86087240 
2704.887 86925824 87731408 88498304 89220288 89890976 90503072 91049840 
2708.263 91525416 91925664 92248312 92492920 92660144 92751576 92768520 
2711.638 92712600 92585504 92389208 92126104 91798272 91407248 90953944 
2715.013 90437984 89858864 89216256 88510408 87743128 86917168 86036832 
2718.388 85107400 84134784 83125520 82087272 81027744 79954680 78876328 
2721.764 77800072 76733312 75683240 74656208 73658880 72697408 71777384 
2725.139 70903328 70078736 69305616 68585464 67919232 67307408 66751300 
2728.514 66251756 65809420 65424652 65096728 64824680 64606732 64441396 
2731.889 64326920 64261684 64244120 64272320 64343596 64455196 64604432 
2735.265 64788328 65004708 65251464 65526092 65825344 66144788 66478520 
2738.640 66820436 67164048 67503056 67832720 68148416 68446728 68724672 
2742.015 68980104 69211568 69419352 69605152 69772384 69925008 70067760 
2745.390 70204288 70337936 70471040 70605360 70742488 70883872 71030448 
2748.766 71182776 71340896 71504120 71671696 71843640 72020776 72206008 
2752.141 72403016 72616648 72852080 73114160 73407112 73734896 74100448 
2755.516 74506512 74954376 75444488 75975488 76544360 77146712 77776848 
2758.891 78428264 79094080 79766584 80436792 81096192 81734176 82340408 
2762.267 82905176 83419200 83874464 84264952 84585328 84832272 85003704 
2765.642 85099624 85121632 85073184 84959856 84788240 84565448 84299512 
2769.017 83998232 83669528 83321640 82962040 82598248 82236688 81882416 
2772.392 81539720 81211544 80899952 80606768 80333280 80079480 79844992 
2775.768 79627736 79424320 79230264 79039624 78846264 78642768 78422024 
2779.143 78176088 77897232 77578456 77214632 76802664 76343408 75840248 
2782.518 75299680 74729560 74138288 73534488 72925176 72317136 71716248 
2785.893 71127312 70554376 70000256 69466552 68953352 68460384 67986256 
2789.269 67530232 67091504 66669940 66265652 65878516 65508172 65153776 
2792.644 64814524 64489448 64177552 63877940 63589192 63309112 63034692 
2796.019 62762348 62487856 62207028 61915916 61611288 61290200 60950172 
2799.394 60589724 60206928 59801044 59371680 58919252 58444584 57948476 
2802.770 57431868 56895364 56339940 55766656 55177536 54575648 53964728 
2806.145 53349792 52735392 52126644 51528180 50944216 50379012 49836832 
2809.520 49321352 48836668 48385924 47971988 47596600 47260176 46962220 
2812.895 46701364 46475580 46282616 46119688 45985144 45877048 45794896 
2816.271 45738164 45707384 45703264 45726788 45778332 45858744 45967868 
2819.646 46105688 46272072 46466844 46689628 46940256 47217952 47521552 
2823.021 47849636 48200252 48570900 48958704 49360144 49770840 50185676 
2826.396 50598788 51003348 51392924 51760560 52099520 52403452 52666484 
2829.771 52882708 53047704 53158128 53212280 53211008 53156932 53054408 
2833.147 52908420 52724880 52509296 52267060 52003672 51724352 51434212 
2836.522 51137928 50838752 50538740 50238420 49937332 49634564 49329484 
2839.897 49021720 48712032 48401372 48090752 47780944 47472356 47165204 
2843.272 46860412 46559080 46263376 45975788 45699140 45435584 45186560 
2846.648 44952528 44732648 44525036 44327056 44134972 43944800 43752252 
2850.023 43553972 43347504 43132204 42909300 42682300 42455640 42234756 
2853.398 42025232 41831528 41657680 41506356 41379176 41276664 41198220 
2856.773 41142304 41106172 41085848 41077068 41074776 41074008 41069896 
2860.149 41057728 41033036 40992544 40933596 40855104 40757632 40643548 
2863.524 40516440 40381148 40243212 40107680 39979416 39863180 39762224 
2866.899 39679592 39617188 39576172 39556608 39558276 39580128 39621144 
2870.274 39680640 39757544 39850652 39958348 40078428 40208168 40345152 
2873.650 40488068 40637288 40794532 40963416 41147876 41351588 41577016 
2877.025 41825072 42095388 42386736 42697472 43025840 43370240 43728544 
2880.400 44098804 44477752 44862396 45250100 45638224 46024928 46409064 
2883.775 46788668 47161808 47525804 47877120 48211876 48527068 48820168 
2887.151 49089612 49335424 49558496 49760696 49944844 50114756 50274616 
2890.526 50429580 50585088 50745936 50917316 51103824 51310208 51541200 
2893.901 51802260 52098472 52435076 52815872 53242244 53711556 54216884 
2897.276 54745504 55277964 55791936 56260996 56658260 56961584 57154708 
2900.652 57230344 57191260 57049992 56825684 56540192 56216604 55875248 
2904.027 55531560 55198040 54882900 54591992 54329480 54098200 53899752 
2907.402 53735140 53603956 53505748 53439420 53404384 53400672 53428512 
2910.777 53487912 53578128 53696780 53840408 54003336 54179196 54361136 
2914.153 54541720 54714116 54872032 55010148 55124528 55212412 55272996 
2917.528 55306300 55313712 55297344 55260236 55205340 55136792 55058816 
2920.903 54975960 54892712 54813200 54740312 54675412 54618256 54566332 
2924.278 54515540 54460660 54395348 54313032 54208552 54077560 53918468 
2927.654 53732704 53524528 53300864 53070056 52841656 52624440 52426292 
2931.029 52254128 52112780 52005912 51936412 51905868 51915388 51965316 
2934.404 52055440 52185112 52353396 52558768 52799372 53072532 53374672 
2937.779 53701356 54047276 54407740 54777676 55153796 55533292 55914364 
2941.155 56295204 56673248 57044100 57401428 57735812 58035424 58286772 
2944.530 58475444 58587216 58611332 58540804 58375184 58120452 57789404 
2947.905 57400332 56973180 56529396 56087608 55661336 55260200 54887824 
2951.280 54543640 54223680 53921732 53631508 53346460 53061448 52772992 
2954.656 52479048 52178988 51872932 51561756 51245812 50925516 50601020 
2958.031 50272716 49941128 49607376 49272804 48938788 48606472 48276636 
2961.406 47949972 47627396 47310200 47000948 46702692 46418796 46152776 
2964.781 45907652 45685704 45489112 45319492 45178324 45066644 44984828 
2968.156 44931364 44902996 44893956 44896860 44902956 44904316 44893772 
2971.532 44866328 44819816 44754504 44672932 44579812 44481240 44383832 
2974.907 44293336 44213504 44144580 44082156 44015780 43930280 43806972 
2978.282 43624888 43365152 43013620 42562376 42011688 41370648 40656028 
2981.657 39888820 39094148 38297592 37521248 36784940 36103780 35487504 
2985.033 34942512 34472560 34079408 33764788 33529882 33375066 33297714 
2988.408 33290702 33339214 33418826 33497776 33538222 33498992 33345978 
2991.783 33054482 32615460 32037568 31346534 30581044 29783048 28995474 
2995.158 28253528 27579394 26984642 26469156 26025974 25643626 25309834 
2998.534 25014276 24748030 24504278 24278148 24065406 23862748 23667530 
3001.909 23478066 23293228 23113050 22937834 22768418 22605696 22450644 
3005.284 22303914 22165776 22035944 21913780 21797924 21687356 21581102 
3008.659 21478702 21380608 21287372 21199688 21117934 21042006 20971098 
3012.035 20904826 20842768 20785344 20733626 20688832 20651962 20623538 
3015.410 20603248 20590498 20584766 20586086 20594632 20611274 20635874 
3018.785 20667460 20703738 20741100 20775334 20802272 20818296 20820592 
3022.160 20807346 20777454 20730394 20666696 20588032 20497188 20398516 
3025.536 20297020 20197492 20103884 20018730 19942820 19875698 19815868 
3028.911 19761770 19711666 19663716 19616290 19567278 19514666 19456516 
3032.286 19391996 19321152 19245466 19167196 19088976 19013192 18941854 
3035.661 18876062 18816960 18765304 18721852 18687674 18663532 18649800 
3039.037 18646478 18652982 18668442 18691654 18721402 18756480 18795578 
3042.412 18837618 18881496 18926486 18972070 19017764 19063322 19107916 
3045.787 19150576 19189948 19224754 19254332 19279132 19300158 19319384 
3049.162 19338264 19357594 19376752 19393834 19406446 19411920 19408422 
3052.538 19394804 19371036 19337606 19295446 19245778 19189774 19129592 
3055.913 19067130 19005440 18947010 18894024 18847480 18807202 18771878 
3059.288 18740152 18710436 18681414 18652392 18622994 18592802 18561852 
3062.663 18529968 18497742 18465898 18435892 18409306 18387598 18371490 
3066.039 18361154 18355798 18354622 18356246 18360188 18365960 18373600 
3069.414 18383174 18394788 18408340 18424068 18441976 18462372 18485468 
3072.789 18511572 18540966 18573366 18608814 18646756 18687086 18729254 
3076.164 18772880 18817340 18862152 18906656 18950508 18993532 19036110 
3079.540 19078312 19120518 19162140 19202554 19240410 19274490 19303622 
3082.915 19327628 19346510 19361266 19372978 19383128 19393072 19404298 
3086.290 19417706 19434234 19454158 19477342 19503090 19530920 19559826 
3089.665 19589530 19619930 19651512 19684656 19719778 19756326 19793812 
3093.041 19831338 19868656 19905910 19944104 19984520 20028480 20076366 
3096.416 20127762 20181872 20237028 20292054 20346152 20399246 20451758 
3099.791 20503894 20556070 20607974 20659362 20709578 20758582 20805888 
3103.166 20851564 20895474 20937544 20977634 21016340 21054180 21092230 
3106.542 21131572 21173072 21217086 21263466 21311662 21361256 21412212 
3109.917 21464916 21519820 21577690 21638528 21701952 21766882 21832138 
3113.292 21896426 21959086 22019594 22077530 22132896 22185408 22235276 
3116.667 22283126 22330320 22378528 22429674 22484840 22544340 22606850 
3120.042 22670554 22733222 22793384 22850306 22904722 22958026 23011686 
3123.418 23066330 23122066 23178018 23232928 23286098 23337630 23387772 
3126.793 23438300 23490622 23546238 23606020 23670082 23737586 23807092 
3130.168 23876574 23944002 24007520 24066422 24120848 24172376 24222894 
3133.543 24274852 24330042 24389376 24452710 24519212 24587688 24657644 
3136.919 24728422 24800052 24872184 24944012 25014450 25081880 25145072 
3140.294 25203742 25258700 25312222 25366666 25424490 25487380 25555832 
3143.669 25629250 25706406 25785512 25865370 25944610 26022422 26098030 
3147.044 26171186 26241860 26310922 26379504 26449400 26522370 26599440 
3150.420 26680892 26765990 26852970 26940076 27025436 27107956 27187528 
3153.795 27264362 27339694 27415144 27492160 27572226 27656334 27745012 
3157.170 27838196 27934934 28033920 28133458 28232206 28329418 28425418 
3160.545 28521118 28618326 28718600 28822616 28930658 29041666 29153910 
3163.921 29265402 29374368 29479890 29581746 29680682 29777618 29874008 
3167.296 29970560 30067596 30164832 30261236 30355424 30446148 30531702 
3170.671 30611016 30683302 30747954 30804684 30853452 30894044 30927310 
3174.046 30953960 30975452 30992852 31007584 31020148 31031216 31040396 
3177.422 31048084 31054168 31059260 31063850 31068868 31074848 31082322 
3180.797 31091042 31101080 31112008 31124038 31137138 31151806 31167966 
3184.172 31186088 31205596 31226744 31249176 31272996 31298068 31324490 
3187.547 31352088 31380724 31410180 31440634 31472698 31507290 31544984 
3190.923 31586460 31631324 31678334 31725526 31770866 31812474 31849482 
3194.298 31881750 31910136 31935524 31959244 31982210 32005716 32030862 
3197.673 32059218 32091864 32129430 32171712 32217388 32263924 32309286 
3201.048 32351370 32389354 32423270 32454542 32484214 32513532 32543030 
3204.424 32572600 32602030 32631214 32660502 32690440 32721344 32753286 
3207.799 32785478 32817532 32848764 32878820 32908164 32937296 32966320 
3211.174 32994848 33021804 33045936 33066746 33084304 33100144 33116448 
3214.549 33135686 33158790 33185792 33215084 33244592 33272282 33297356 
3217.925 33320182 33342150 33364974 33389914 33417434 33447244 33478126 
3221.300 33509192 33539512 33569112 33597784 33626176 33654676 33683676 
3224.675 33713180 33743440 33774456 33806260 33838636 33871232 33903584 
3228.050 33935576 33967212 33998780 34030420 34062136 34093384 34123384 
3231.426 34151412 34177188 34201132 34224364 34248240 34274164 34302704 
3234.801 34333832 34366680 34400284 34434108 34468328 34503268 34539824 
3238.176 34578212 34618220 34658484 34698320 34736724 34774160 34811532 
3241.551 34849836 34889692 34930876 34972388 35012612 35050220 35084704 
3244.927 35116600 35147536 35178652 35211308 35245480 35280664 35315888 
3248.302 35350676 35384648 35418652 35453276 35489192 35526228 35563988 
3251.677 35601532 35638256 35673612 35707928 35741348 35774376 35806972 
3255.052 35838388 35868508 35896756 35923032 35947976 35972628 35997216 
3258.427 36022196 36046676 36070044 36091000 36109432 36125132 36139320 
3261.803 36153076 36167768 36184008 36201584 36219664 36236556 36250496 
3265.178 36260364 36265552 36266448 36264256 36260688 36257376 36255864 
3268.553 36256544 36259176 36262920 36266164 36266920 36264180 36257052 
3271.928 36245812 36231080 36214224 36196256 36178608 36161900 36146560 
3275.304 36132444 36119228 36106228 36093124 36079296 36064968 36050240 
3278.679 36035984 36023100 36012872 36006140 36003368 36004236 36007980 
3282.054 36012872 36017696 36020832 36021480 36019248 36014132 36006504 
3285.429 35996676 35984868 35971044 35955280 35937392 35917740 35897188 
3288.805 35876892 35858428 35842668 35830652 35822664 35818380 35817156 
3292.180 35818452 35821544 35826480 35833060 35841232 35850944 35861920 
3295.555 35873184 35884848 35896004 35907156 35918604 35930660 35943584 
3298.930 35956936 35970036 35981880 35992176 36000924 36008880 36017372 
3302.306 36027996 36041672 36058916 36079296 36102160 36126032 36150480 
3305.681 36174648 36198200 36221212 36243256 36264180 36283668 36302040 
3309.056 36319656 36337632 36356908 36378164 36401904 36427632 36454552 
3312.431 36481648 36507632 36531316 36552216 36570024 36584800 36597236 
3315.807 36608844 36620776 36634980 36652900 36675144 36701248 36729516 
3319.182 36758000 36784688 36808128 36828436 36846288 36863312 36880480 
3322.557 36898300 36916120 36932860 36947000 36957716 36964896 36969188 
3325.932 36971716 36973700 36975828 36978460 36981164 36983548 36985172 
3329.308 36985460 36983944 36980192 36973556 36963776 36950752 36934808 
3332.683 36916592 36896644 36874820 36850688 36823708 36793092 36758688 
3336.058 36721116 36682136 36643668 36607620 36574928 36545260 36517400 
3339.433 36489072 36458584 36424028 36384792 36340480 36291304 36237384 
3342.809 36179256 36117428 36052472 35985120 35916516 35847060 35777652 
3346.184 35708432 35639656 35571500 35504616 35439900 35378104 35319336 
3349.559 35263416 35209044 35154400 35098388 35040016 34979320 34917340 
3352.934 34855188 34794048 34734392 34676212 34618940 34561960 34504988 
3356.310 34447952 34391248 34335300 34280656 34227520 34176112 34126824 
3359.685 34080304 34037012 33997276 33961084 33927728 33895808 33864248 
3363.060 33831976 33798704 33764640 33730476 33696852 33664344 33633408 
3366.435 33604300 33576952 33552040 33529166 33508514 33489366 33471112 
3369.811 33452072 33431068 33407126 33379898 33349446 33316102 33280078 
3373.186 33241410 33199310 33153102 33102468 33047222 32987590 32924392 
3376.561 32858126 32789052 32716840 32641358 32561746 32478076 32389674 
3379.936 32296828 32199506 32097284 31989306 31874940 31753544 31624806 
3383.312 31489118 31347674 31201822 31052782 30901764 30749518 30596580 
3386.687 30443552 30290652 30138480 29987424 29837556 29688558 29539504 
3390.062 29389084 29236304 29080496 28921838 28761330 28600702 28441336 
3393.437 28284576 28130806 27979918 27831026 27683454 27536710 27390932 
3396.813 27247040 27105804 26968034 26833726 26702420 26572246 26441864 
3400.188 26309724 26174954 26037338 25897232 25755276 25612132 25468372 
3403.563 25324376 25180428 25036986 24894536 24753816 24615598 24480158 
3406.938 24347878 24218548 24091532 23966446 23842900 23720718 23599690 
3410.313 23479956 23361058 23243242 23126538 23011232 22897806 22786890 
3413.689 22678376 22572330 22467882 22363948 22259026 22152178 22042672 
3417.064 21930788 21817504 21704284 21592768 21484342 21379806 21279472 
3420.439 21182466 21087988 20994606 20901140 20807000 20712392 20617946 
3423.814 20525186 20435260 20349034 20266190 20185828 20106280 20026050 
3427.190 19944068 19860194 19774982 19689578 19604784 19520730 19436730 
3430.565 19351740 19264342 19174468 19082570 18990312 18899664 18812254 
3433.940 18728944 18649558 18572882 18497638 18422686 18347538 18272332 
3437.315 18197418 18122966 18048732 17973786 17896782 17816374 17731838 
3440.691 17643282 17551640 17458670 17366480 17277206 17192086 17111394 
3444.066 17034336 16958600 16881810 16801418 16716633 16628008 16538540 
3447.441 16451810 16372152 16302139 16242834 16192308 16146809 16101865 
3450.816 16052971 15997482 15934130 15863227 15786491 15705477 15621901 
3454.192 15537380 15453047 15370515 15291294 15216686 15147340 15083081 
3457.567 15022606 14964197 14905521 14844796 14780788 14713259 14642691 
3460.942 14570044 14496554 14423280 14351218 14281736 14215551 14153177 
3464.317 14094371 14038551 13984003 13929463 13873560 13815853 13756511 
3467.693 13696630 13637066 13578979 13523088 13469768 13418777 13369877 
3471.068 13321836 13273460 13223142 13168970 13109341 13043779 12972799 
3474.443 12898178 12822819 12749964 12681625 12619027 12561690 12507908 
3477.818 12455701 12403329 12348850 12292197 12232791 12170972 12107698 
3481.194 12044468 11983017 11925799 11874785 11831438 11795348 11764230 
3484.569 11734988 11703569 11667046 11623993 11575158 11522382 11468660 
3487.944 11415999 11365726 11318008 11272337 11228235 11185972 11145890 
3491.319 11108972 11075083 11043644 11012887 10981281 10947232 10910875 
3494.695 10873129 10835690 10800770 10769825 10743164 10720510 10700948 
3498.070 10683662 10668041 10653609 10639450 10624985 10608619 10589300 
3501.445 10566655 10541227 10515393 10492310 10475508 10467871 10470587 
3504.820 10483010 10502595 10526018 10549239 10569234 10583766 10592661 
3508.196 10596634 10598467 10601658 10609502 10624679 10648482 10679689 
3511.571 10715959 10754167 10791055 10824515 10853458 10878564 10901226 
3514.946 10922802 10944684 10967553 10991306 11015333 11038716 11060705 
3518.321 11080012 11094968 11104248 11105641 11098333 11081881 11057307 
3521.697 11026651 10991884 10954945 10916243 10874895 10828659 10774071 
3525.072 10708556 10629263 10536101 10429891 10313597 10191091 10066586 
3528.447 9944117 9826461 9714936 9608859 9506737 9406298 9305205 9201733 
3532.304 9094563 8982854 8866337 8744240 8616194 8482071 8342652 8200071 
3536.162 8057029 7917206 7783704 7658437 7542140 7433862 7331745 7233391 
3540.019 7137013 7040960 6943985 6845348 6743908 6638420 6527676 6410774 
3543.877 6287449 6158983 6027598 5896522 5770052 5652279 5546720 5455279 
3547.734 5377611 5311528 5252499 5195154 5134598 5066911 4990518 4905930 
3551.592 4816600 4726954 4641412 4562851 4493110 4431246 4375850 4324577 
3555.449 4275085 4225497 4174008 4118846 4059276 3994798 3926485 3856044 
3559.306 3786850 3721310 3661628 3608468 3561061 3517134 3474413 3430427 
3563.164 3382973 3330782 3271721 3203388 3123552 3031051 2927095 2816394 
3567.021 2706987 2609075 2530681 2476061 2444538 2430943 2427478 2425845 
3570.879 2419881 2405587 2381232 2347818 2307910 2263842 2218280 2173389 
3574.736 2130467 2090046 2051860 2014309 1975830 1934292 1888266 1837552 
3578.594 1783485 1728193 1674471 1625080 1581414 1544137 1512549 1485817 
3582.451 1462411 1440702 1418496 1392368 1358298 1311468 1247796 1166026 
3586.308 1068461 962815 860315 773374 712037 680476 676328 691925 717414 
3590.648 742538 758503 760727 746554 716750 673905 622404 566597 511393 
3594.988 460409 417258 383198 358990 343404 333821 326758 318236 304774 
3599.327 284018 255306 220231 182010 144355 110946 84234 65046 52620 45230 
3604.149 40789 35951 27966 12988 -12524 -51619 -104989 -171169 -244924 
3608.489 -319427 -386767 -441485 -482726 -514366 -541933 -572443 -609999 
3612.346 -654665 -701940 -743983 -773619 -786386 -782649 -767501 -749672 
3616.203 -739154 -743586 -769055 -816251 -881728 -957048 -1031528 -1094065 
3620.061 -1135905 -1153122 -1146744 -1122355 -1087719 -1050436 -1016686 
3623.436 -989579 -969281 -954106 -943460 -939228 -947262 -977083 -1039230 
3627.293 -1140994 -1280563 -1441850 -1596244 -1712894 -1769888 -1764476 
3630.669 -1711574 -1634999 -1556891 -1493794 -1453739 -1436269 -1434882 
3634.044 -1440232 -1444162 -1442246 -1435014 -1425470 -1418105 -1416222 
3637.419 -1420483 -1430027 -1442444 -1456215 -1470679 -1486100 -1502940 
3640.794 -1520573 -1537643 -1551377 -1558806 -1558476 -1551113 -1539591 
3644.170 -1529091 -1525558 -1534440 -1560127 -1603969 -1665036 -1740649 
3647.545 -1826610 -1917435 -2008506 -2093919 -2166820 -2219105 -2242906 
3650.920 -2232522 -2187886 -2114527 -2023182 -1927167 -1841094 -1777048 
3654.295 -1743058 -1740946 -1764773 -1801698 -1834594 -1847726 -1833341 
3657.671 -1791766 -1730947 -1663254 -1601757 -1555868 -1532327 -1532756 
3661.046 -1554679 -1592546 -1638795 -1685929 -1727416 -1757975 -1775201 
3664.421 -1777840 -1766885 -1744148 -1713224 -1677909 -1643185 -1614004 
3667.796 -1593735 -1580728 -1565244 -1529190 -1446011 -1288458 -1039792 
3671.172 -699293 -282210 186617 678352 1163900 1616001 2002193 2287124 
3675.029 2437840 2432009 2268971 1969872 1568478 1098190 587698 64317 
3678.886 -446152 -915654 -1317265 -1634405 -1863002 -2013717 -2105723 
3682.262 -2160556 -2195370 -2218347 -2231797 -2235027 -2228962 -2219007 
3685.637 -2215578 -2229358 -2270363 -2341949 -2439620 -2550444 -2658013 
3689.012 -2747315 -2809341 -2842853 -2850984 -2838508 -2809506 -2767168 
3692.387 -2715113 -2657585 -2600740 -2550180 -2510749 -2483933 -2467888 
3695.763 -2458597 -2450492 -2438697 -2421893 -2401793 -2382780 -2371081 
3699.138 -2372070 -2389205 -2422717 -2468613 -2519973 -2567902 -2603902 
3702.513 -2622280 -2621325 -2602947 -2572118 -2534599 -2496254 -2460838 
3705.888 -2430822 -2407329 -2390458 -2380143 -2377540 -2383307 -2399519 
3709.264 -2426704 -2464890 -2511375 -2562236 -2611445 -2652184 -2677705 
3712.639 -2683172 -2666476 -2628933 -2574391 -2509794 -2442453 -2380374 
3716.014 -2330085 -2295974 -2279131 -2277417 -2287239 -2303587 -2322900 
3719.389 -2343960 -2366830 -2392698 -2421893 -2452601 -2481165 -2503798 
3722.765 -2517602 -2522609 -2521620 -2519809 -2521884 -2530416 -2543757 
3726.140 -2556768 -2561973 -2552453 -2525079 -2481890 -2430592 -2381659 
3729.515 -2346530 -2334732 -2351638 -2396323 -2461497 -2536444 -2608744 
3732.890 -2670362 -2719591 -2761011 -2801243 -2844433 -2888573 -2925535 
3736.266 -2944722 -2937152 -2901377 -2843050 -2772666 -2700295 -2632984 
3739.641 -2573337 -2520632 -2473390 -2433392 -2407790 -2409405 -2453095 
3743.016 -2550180 -2697002 -2869186 -3024916 -3120492 -3133355 -3071243 
3746.391 -2963250 -2844170 -2743759 -2683205 -2670494 -2702238 -2764304 
3749.767 -2838014 -2905787 -2956602 -2986055 -2994380 -2980757 -2944458 
3753.142 -2884755 -2804535 -2710338 -2612762 -2523202 -2450591 -2400706 
3756.517 -2375102 -2370983 -2383538 -2407032 -2436885 -2469074 -2498989 
3759.892 -2520896 -2528373 -2516514 -2484823 -2438532 -2387558 -2344157 
3763.268 -2319176 -2317957 -2338588 -2371872 -2405220 -2426176 -2428746 
3766.643 -2415006 -2393423 -2375530 -2370060 -2381495 -2407329 -2439620 
3770.018 -2467625 -2482286 -2479354 -2459388 -2427099 -2388843 -2350946 
3773.393 -2317232 -2289876 -2269440 -2254278 -2243433 -2236511 -2234368 
3776.769 -2239708 -2255531 -2283746 -2323362 -2369335 -2412996 -2444100 
3780.144 -2454907 -2442750 -2411810 -2370620 -2330085 -2299467 -2283943 
3783.519 -2283383 -2292678 -2305136 -2313969 -2315386 -2309750 -2300225 
3786.894 -2290898 -2284668 -2283251 -2285756 -2291161 -2297457 -2303521 
3790.270 -2308201 -2310278 -2308168 -2301016 -2288558 -2273033 -2258563 
3793.645 -2251311 -2256355 -2276659 -2310475 -2351210 -2388711 -2412272 
3797.020 -2415995 -2400442 -2373718 -2348442 -2338851 -2357603 -2409767 
3800.395 -2492235 -2588883 -2676520 -2729732 -2732334 -2683370 -2596294 
3803.771 -2492795 -2395400 -2325043 -2295150 -2309256 -2359449 -2427428 
3807.146 -2488973 -2522708 -2519315 -2481561 -2421497 -2352858 -2287404 
3810.521 -2231006 -2184590 -2145488 -2110768 -2080630 -2058964 -2053226 
3813.896 -2071627 -2118979 -2192831 -2281372 -2363996 -2419784 -2436424 
3817.271 -2413787 -2364556 -2307905 -2265584 -2254146 -2283811 -2353022 
3820.647 -2447955 -2543757 -2612663 -2636639 -2611477 -2547908 -2463605 
3824.022 -2378463 -2308893 -2264331 -2247191 -2252234 -2269539 -2286646 
3827.397 -2293601 -2286448 -2266606 -2239774 -2212776 -2192238 -2181458 
3830.772 -2180732 -2187293 -2196656 -2204271 -2206348 -2201502 -2190590 
3834.148 -2176941 -2165798 -2163787 -2177073 -2210370 -2264068 -2333513 
3837.523 -2409141 -2477871 -2527649 -2551366 -2548863 -2525112 -2488973 
3840.898 -2450031 -2415204 -2388744 -2371246 -2360371 -2352561 -2343136 
3844.273 -2328503 -2306422 -2276428 -2239774 -2199590 -2159039 -2120562 
3847.649 -2085642 -2054512 -2025722 -1998743 -1974963 -1958668 -1959130 
3851.024 -1989211 -2061536 -2184095 -2352693 -2545766 -2724925 -2852103 
3854.399 -2903582 -2879423 -2798082 -2683765 -2558514 -2436720 -2326855 
3857.774 -2232819 -2155874 -2096656 -2055699 -2033241 -2028195 -2038320 
3861.150 -2060250 -2089599 -2123463 -2160819 -2201700 -2245708 -2290074 
3864.525 -2327877 -2349661 -2347815 -2320198 -2272407 -2218018 -2174501 
3867.900 -2157720 -2178161 -2234929 -2314859 -2394412 -2449207 -2465417 
3871.275 -2443771 -2397971 -2345805 -2303719 -2281142 -2277252 -2283647 
3874.651 -2288030 -2279263 -2252696 -2210633 -2161413 -2116440 -2085939 
3878.026 -2077200 -2092897 -2130453 -2182183 -2235753 -2278966 -2301280 
3881.401 -2297918 -2271089 -2229555 -2186007 -2153335 -2142982 -2159665 
3884.776 -2200216 -2251938 -2296073 -2315617 -2300555 -2252168 -2181820 
3888.152 -2106548 -2042607 -2003031 -1994324 -2015366 -2057711 -2107438 
3891.527 -2150401 -2176480 -2181293 -2166721 -2137872 -2101338 -2061734 
3894.902 -2023248 -1988189 -1958372 -1935974 -1923571 -1923208 -1936337 
3898.277 -1962132 -1997820 -2038551 -2078948 -2114165 -2142257 -2163391 
3901.653 -2179875 -2194843 -2210304 -2226061 -2239214 -2245444 -2240335 
3905.028 -2220853 -2187227 -2141795 -2089137 -2033736 -1980141 -1931653 
3908.403 -1889791 -1855578 -1828820 -1809056 -1795560 -1786453 -1780249 
3911.778 -1774838 -1768304 -1760186 -1751441 -1744114 -1741936 -1748273 
3915.154 -1765136 -1792162 -1825983 -1861352 -1892595 -1914895 -1926408 
3918.529 -1927892 -1921823 -1911300 -1898764 -1885997 -1873361 -1861748 
3921.904 -1851916 -1845680 -1844757 -1850267 -1861385 -1875374 -1888240 
3925.279 -1895531 -1894376 -1884281 -1866862 -1845977 -1825092 -1807901 
3928.655 -1796286 -1791766 -1794471 -1804173 -1820605 -1842546 -1867984 
3932.030 -1893683 -1914961 -1927695 -1928684 -1917271 -1895168 -1866598 
3935.405 -1836508 -1809023 -1787047 -1771076 -1759922 -1751573 -1744246 
3938.780 -1737448 -1731937 -1730353 -1734874 -1747976 -1769789 -1798497 
3942.156 -1830470 -1861187 -1885733 -1901106 -1906186 -1902426 -1893254 
3945.531 -1882533 -1873757 -1869501 -1869798 -1873097 -1876231 -1876462 
3948.906 -1871184 -1859966 -1843965 -1825257 -1806548 -1789852 -1776124 
3952.281 -1766060 -1759163 -1755104 -1753751 -1754939 -1758437 -1763189 
3955.656 -1768172 -1771901 -1773023 -1770878 -1766060 -1759823 -1753751 
3959.032 -1749329 -1747316 -1747514 -1748999 -1750550 -1750979 -1749197 
3962.407 -1744874 -1738240 -1729528 -1719462 -1708637 -1697481 -1686655 
3965.782 -1676655 -1667512 -1659161 -1651140 -1643185 -1634867 -1626515 
3969.157 -1618989 -1612948 -1609548 -1608920 -1611099 -1615325 -1620639 
3972.533 -1625954 -1630839 -1634834 -1638036 -1640412 -1641997 -1642459 
3975.908 -1641270 -1637804 -1631830 -1623082 -1611759 -1598423 -1583666 
3979.283 -1567918 -1552137 -1536553 -1522124 -1508818 -1497129 -1487190 
3982.658 -1479595 -1474345 -1472165 -1473354 -1477746 -1484779 -1493530 
3986.034 -1502511 -1510700 -1517370 -1522488 -1526846 -1531567 -1537081 
3989.409 -1543883 -1550948 -1557155 -1560952 -1562008 -1560358 -1557254 
3992.784 -1554217 -1552401 -1552335 -1554118 -1557155 -1560853 -1565145 
3996.159 -1570262 -1576073 -1582840 -1589740 -1595584 -1599446 -1600337 
3999.535 -1598191 -1594197 -1589476 
##END=
