##TITLE=1111a_1_a
##JCAMP-DX=5.01  $$ Nicolet v. 1
##DATATYPE=INFRARED SPECTRUM
##ORIGIN=UniL
##OWNER=Nicolet
##LONGDATE=2011/09/28
##TIME=14:44:58
##SPECTROMETER/DATA SYSTEM=Nicolet iS5
##DATA PROCESSING=
Ratio against background
%Transmittance->Absorbance
Truncated
ElementMultiply or ElementDivide
##COMMENTS=
Number of sample scans: 32
Collection length: 51.18 sec
Sample gain: 2.0
Background collected on: Mer Sep 28 14:40:34 2011 (GMT+02:00);
Number of background scans: 32
Background gain: 2.0
Sample spacing:  1.000
Number of scan points: 12415
Resolution points: 8192
Number of FFT points: 65536
Apodization: N-B fort;
Phase correction: Mertz;
Laser frequency: 15798.0 cm-1
Number of rejected sample scans: 0
Number of rejected background scans: 0
Bench serial number: ASB1000141;
##RESOLUTION=4.000
##XUNITS=1/CM
##YUNITS=ABSORBANCE
##FIRSTX=649.893372
##LASTX=4000.122314
##FIRSTY=0.068613
##MAXX=4000.122314
##MINX=649.893372
##MAXY=0.247847
##MINY=-0.002562
##XFACTOR=1.000000
##YFACTOR=1.000000E-009
##NPOINTS=6950
##DELTAX=0.482117
##ZPD=6100
##XYDATA=(X++(Y..Y))
649.893 68613208 68682320 68789416 68948336 69154912 69389608 69629728 
653.268 69863712 70100232 70363104 70681464 71073960 71541776 72068136 
656.643 72628904 73204976 73791320 74396784 75034272 75710976 76424312 
660.018 77162664 77917368 78691296 79502776 80378568 81341392 82395872 
663.393 83522800 84682528 85830096 86926880 87938024 88831736 89566656 
666.767 90084808 90329824 90279160 89979744 89529072 89027824 88529464 
670.142 88030416 87493192 86872848 86141904 85303936 84395680 83472688 
673.517 82594920 81800368 81098032 80471920 79893928 79341064 78801360 
676.892 78275864 77770632 77289488 76829672 76384136 75946480 75516512 
680.267 75100448 74706616 74337832 73986456 73635560 73264904 72860664 
683.642 72422744 71965360 71512792 71088600 70704464 70359952 70042920 
687.016 69738384 69434976 69131680 68833864 68550192 68284264 68032720 
690.391 67785472 67531816 67264928 66984900 66698140 66413188 66136336 
693.766 65869800 65612176 65363100 65126560 64912200 64733168 64601392 
697.141 64523348 64498208 64519124 64576864 64664564 64779944 64923436 
700.516 65096116 65294744 65510176 65729776 65940252 66132248 66303828 
703.890 66459604 66606552 66750148 66891508 67026152 67148584 67254592 
707.265 67345744 67427592 67508280 67594648 67688648 67788960 67894160 
710.640 68008736 68148072 68337824 68610064 68995216 69508424 70138704 
714.015 70841240 71543224 72148920 72556760 72687728 72496936 71990032 
717.390 71222944 70300144 69356568 68525984 67936200 67679672 67802984 
720.765 68305552 69135640 70197784 71350392 72429360 73267568 73709368 
724.139 73653776 73072200 72022608 70634832 69088360 67574712 66240220 
727.514 65175220 64401388 63886152 63566180 63374548 63262844 63202172 
730.889 63181596 63196732 63241036 63303360 63371672 63438124 63504660 
734.264 63578984 63671828 63787436 63921236 64060764 64193532 64313436 
737.639 64424872 64540720 64675524 64837752 65025336 65225928 65424040 
741.013 65609976 65783240 65953680 66134908 66338292 66567308 66817344 
744.388 67080364 67350048 67626312 67913808 68218040 68539792 68872776 
747.763 69206392 69530712 69841840 70144584 70449416 70766392 71098272 
751.138 71438840 71774840 72095280 72396200 72685184 72976168 73283616 
754.513 73613384 73959904 74308112 74642280 74953784 75244832 75525976 
757.888 75809312 76101096 76398752 76693856 76978352 77252232 77524816 
761.262 77810888 78121584 78458904 78812880 79169064 79517696 79862120 
764.637 80221264 80624128 81099072 81663024 82319616 83061320 83878928 
768.012 84767984 85733136 86787296 87955512 89279208 90830504 92732096 
771.387 95143712 98242808 102164760 106916744 112299288 117839936 122871376 
774.762 126573056 128178936 127230448 123680584 117957216 110793048 
777.654 103097640 95699208 89172064 83844280 79766704 76803496 74714768 
781.029 73253136 72218560 71464080 70906184 70497936 70211888 70034352 
784.404 69962960 70008968 70193272 70540616 71071424 71794768 72711896 
787.779 73823880 75140352 76685984 78498640 80618536 83082784 85916832 
791.154 89136344 92755672 96794552 101278600 106230896 111652240 117497504 
794.528 123648560 129916680 136036864 141668688 146453824 150015392 
797.421 151998688 152141456 150292096 146460480 140820304 133701576 
800.314 125540960 116792936 107923584 99336976 91337608 84158320 77932672 
803.689 72710840 68483272 65192164 62752664 61062392 60021224 59535632 
807.063 59519936 59903268 60618600 61593380 62748076 63984044 65185928 
810.438 66241800 67042968 67504680 67578736 67249608 66536368 65483212 
813.813 64157308 62637940 61006828 59349036 57738272 56232104 54872484 
817.188 53680808 52663080 51814988 51128012 50594392 50209220 49970084 
820.563 49876304 49926592 50120332 50459092 50950288 51606648 52448164 
823.938 53496492 54767752 56267820 57984260 59882996 61900288 63944080 
827.312 65897876 67614112 68940608 69737752 69896640 69373984 68199936 
830.687 66480912 64371148 62052960 59708192 57478728 55468836 53736640 
834.062 52298940 51145644 50249504 49576920 49089424 48748244 48518656 
837.437 48367964 48271900 48215948 48193440 48203252 48245608 48317964 
840.812 48414336 48526624 48646872 48771004 48899072 49033260 49176096 
844.186 49327664 49485488 49646824 49810784 49980456 50162172 50363680 
847.561 50590524 50844044 51121936 51419776 51735216 52069448 52427788 
850.936 52816844 53242320 53706156 54206972 54742608 55312960 55922164 
854.311 56578876 57292832 58072876 58924716 59851352 60855860 61944920 
857.686 63129940 64427832 65857576 67436184 69177920 71093048 73189016 
861.060 75471136 77938816 80579680 83355848 86197184 88998088 91610472 
864.435 93871176 95614624 96689688 96992152 96470792 95137608 93065512 
867.810 90385768 87275280 83920768 80518296 77243800 74229248 71572328 
871.185 69326368 67505384 66094860 65058320 64346440 63896820 63641592 
874.560 63510336 63428500 63331692 63169636 62911116 62549576 62099484 
877.935 61592120 61064984 60559092 60114484 59765948 59547256 59490256 
881.309 59621064 59959640 60513312 61273832 62214064 63290900 64451472 
884.684 65634912 66784808 67855816 68816672 69658632 70396144 71067992 
888.059 71727976 72437504 73254784 74218904 75345432 76622536 78017168 
891.434 79481248 80961432 82411176 83788736 85059312 86194672 87167008 
894.809 87949424 88518200 88849544 88922944 88720936 88227432 87432560 
898.183 86336048 84954064 83322088 81495744 79550728 77567040 75625344 
901.558 73799056 72142664 70695928 69483232 68515200 67793296 67310776 
904.933 67054956 67006820 67143624 67443416 67886456 68460264 69160048 
908.308 69985928 70940160 72023040 73231528 74559536 76000872 77550568 
911.683 79205136 80959800 82803360 84716800 86672440 88638800 90591072 
915.058 92517232 94424672 96338992 98302216 100365776 102580192 104996768 
918.432 107659088 110596720 113821024 117311976 121011824 124812928 
921.325 128571912 132127640 135319088 138032992 140224000 141933888 
924.218 143285440 144472864 145742528 147337648 149489872 152380128 
927.110 156101408 160639936 165841760 171420384 176917552 181746432 
930.003 185284176 186888688 186057600 182529376 176326272 167783936 
932.896 157478608 146170096 134621840 123512736 113397064 104614944 97337568 
936.271 91597208 87325472 84404768 82700776 82091840 82458288 83669368 
939.646 85573680 87957624 90545400 93032552 95081392 96394840 96770416 
943.020 96118328 94489128 92049336 89060360 85808296 82557816 79530752 
946.395 76864440 74623544 72812352 71395648 70318344 69520952 68953272 
949.770 68572384 68342976 68237312 68230368 68301096 68434272 68619648 
953.145 68851840 69129120 69449680 69810472 70206472 70630624 71076808 
956.520 71541112 72022848 72523240 73044056 73585552 74145408 74720152 
959.894 75306496 75903144 76511920 77137176 77782992 78451880 79143416 
963.269 79854632 80581720 81322536 82077312 82848752 83639680 84451248 
966.644 85281720 86126952 86982944 87847840 88723816 89616176 90531600 
970.019 91474856 92446968 93445864 94467872 95510744 96575448 97666168 
973.394 98788712 99947784 101145040 102378952 103646744 104946560 106279520 
976.768 107649408 109060592 110515904 112014624 113553688 115129400 
979.661 116740952 118391608 120088288 121838320 123645520 125508624 
982.554 127420488 129370704 131347968 133342264 135342080 137330544 
985.447 139283424 141163792 142926304 144526384 145923872 147093680 
988.339 148028928 148739920 149250432 149592816 149807952 149940704 
991.232 150037920 150148768 150315696 150570624 150931952 151402656 
994.125 151974848 152635120 153372832 154182224 155062976 156016544 
997.017 157042480 158134640 159283584 160479056 161713584 162985264 
999.910 164294432 165639040 167009984 168386928 169741344 171043760 
1002.803 172268112 173400112 174438240 175392144 176277744 177115040 
1005.695 177928368 178744192 179594688 180515264 181537680 182686288 
1008.588 183972288 185392624 186932624 188573856 190302176 192109328 
1011.481 193994144 195956832 197994064 200097280 202253664 204450704 
1014.374 206681344 208943744 211236848 213551968 215864560 218129184 
1017.266 220287776 222275920 224034912 225525952 226730944 227654048 
1020.159 228316880 228758496 229035792 229217216 229389488 229645216 
1023.052 230065984 230717952 231634496 232814944 234228160 235823856 
1025.945 237544272 239326080 241107008 242822224 244395936 245751520 
1028.838 246814784 247524240 247846592 247777856 247342224 246579888 
1031.731 245542048 244282864 242853648 241308320 239698112 238061680 
1034.624 236417536 234748928 233001456 231079696 228865600 226241696 
1037.517 223098880 219362864 214998192 210005536 204421952 198317152 
1040.410 191794464 184977408 178008192 171037472 164196352 157597856 
1043.303 151327072 145434208 139948768 134882672 130236312 126003816 
1046.196 122172608 118723608 115630464 112861104 110382632 108162264 
1049.089 106172808 104393200 102805296 101393040 100139432 99024968 98030144 
1052.464 97136960 96330096 95598440 94932120 94319016 93743696 93184456 
1055.840 92614992 92010352 91347504 90609696 89788336 88881296 87892752 
1059.215 86832904 85719656 84578368 83441160 82348096 81340000 80454368 
1062.590 79724552 79173280 78814392 78654360 78693000 78925088 79340064 
1065.965 79922248 80648936 81491392 82418912 83399720 84405776 85415576 
1069.341 86412008 87381024 88309928 89184512 89990792 90717720 91358672 
1072.716 91914568 92393016 92807864 93175880 93515560 93847248 94189968 
1076.091 94560224 94969344 95417608 95892128 96364560 96797872 97149432 
1079.466 97381968 97471872 97410544 97204344 96868392 96423384 95890808 
1082.842 95293352 94660704 94031360 93454000 92991952 92714008 92689432 
1086.217 92987360 93662952 94756552 96285760 98238312 100563448 103161000 
1089.592 105891696 108568072 110972688 112901408 114170264 114656152 
1092.485 114317848 113196896 111413816 109139272 106588112 103977120 
1095.378 101496544 99308992 97518776 96172416 95261376 94727504 94473848 
1098.753 94372008 94288752 94091272 93659128 92905976 91777968 90263216 
1102.129 88390056 86223968 83857104 81386792 78912536 76518400 74263960 
1105.504 72190232 70318344 68654960 67199168 65945656 64887500 64015948 
1108.879 63321688 62793328 62417880 62181640 62070012 62065768 62150404 
1112.254 62300492 62487624 62681468 62849732 62962064 62996112 62936320 
1115.630 62776020 62516668 62165696 61735560 61241476 60702536 60139256 
1119.005 59571808 59020432 58502512 58031672 57619568 57273892 56998912 
1122.380 56793920 56650636 56551660 56468184 56366240 56208192 55962152 
1125.755 55611696 55158840 54626636 54052040 53482476 52964188 52533264 
1129.131 52214968 52019396 51944772 51979132 52104300 52297708 52532740 
1132.506 52782684 53022920 53233256 53403220 53533260 53634920 53727004 
1135.881 53833024 53976096 54173640 54436924 54768916 55164860 55611884 
1139.256 56090056 56575028 57038392 57452216 57793300 58044320 58196064 
1142.632 58247212 58201936 58067728 57853792 57571140 57231744 56848720 
1146.007 56436336 56006292 55567448 55122420 54668572 54198304 53702368 
1149.382 53173108 52606044 52001544 51363720 50699352 50016704 49323804 
1152.757 48629488 47942276 47270520 46622084 46003084 45416932 44864452 
1156.133 44344232 43854032 43391988 42957872 42552804 42178924 41838388 
1159.508 41532460 41261836 41026484 40826744 40662612 40533900 40438136 
1162.883 40369440 40318720 40272696 40216604 40136244 40018404 39853448 
1166.258 39634792 39357912 39020920 38624208 38170984 37667428 37122548 
1169.634 36547752 35954056 35352080 34751332 34158908 33582036 33028382 
1173.009 32506176 32025118 31594690 31222616 30914928 30674804 30504296 
1176.384 30404532 30377420 30425678 30552390 30760546 31051928 31427778 
1179.759 31889454 32439656 33083372 33826640 34676036 35637212 36713144 
1183.135 37905452 39215980 40648860 42212336 43918768 45782048 47815344 
1186.510 50026112 52412388 54958288 57631032 60380672 63132928 65796272 
1189.885 68268720 70439792 72215240 73527544 74344992 74678640 74576064 
1193.260 74114048 73376112 72445680 71393072 70263648 69082608 67855000 
1196.635 66573292 65224812 63800024 62298156 60730200 59118144 57489888 
1200.011 55877732 54310440 52809776 51391728 50064704 48832736 47697804 
1203.386 46661776 45726380 44892780 44160244 43524264 42975976 42503688 
1206.761 42093344 41730516 41403776 41103108 40821288 40553468 40295920 
1210.136 40047176 39808088 39582596 39377936 39203252 39069856 38988872 
1213.512 38970316 39024216 39159628 39385628 39711756 40146092 40695180 
1216.887 41362664 42148696 43051560 44068512 45198144 46440036 47795108 
1220.262 49263824 50845348 52537080 54336464 56242780 58259068 60393048 
1223.637 62655472 65057508 67606880 70305528 73147288 76117000 79187240 
1227.013 82319376 85459064 88531776 91452480 94121936 96435208 98299600 
1230.388 99633792 100379672 100510616 100033128 98994168 97476064 95605176 
1233.763 93537840 91439680 89490112 87852304 86662488 86037752 86062120 
1237.138 86793328 88270216 90510632 93513096 97250688 101669608 106678456 
1240.514 112140032 117888408 123715432 129381240 134645744 139255472 
1243.407 142973728 145613888 147042672 147208992 146146384 143970480 
1246.300 140858896 137021920 132704440 128148752 123579856 119207080 
1249.193 115184216 111600608 108468960 105720024 103212472 100749528 
1252.086 98133464 95187568 91796104 87930800 83646952 79073656 74373304 
1255.461 69728496 65303640 61216756 57544016 54309204 51494680 49051768 
1258.836 46915668 45018312 43291932 41681060 40144676 38653800 37194120 
1262.212 35761100 34356748 32985766 31654064 30366972 29129212 27946064 
1265.587 26822870 25765294 24777776 23862466 23018848 22243332 21531240 
1268.962 20878230 20281536 19740028 19253640 18821354 18440456 18106556 
1272.337 17814372 17559368 17338926 17151790 16997364 16873992 16777928 
1275.713 16704168 16647700 16605252 16576817 16565870 16577162 16615201 
1279.088 16682923 16780892 16908094 17062422 17240660 17437078 17641420 
1282.463 17837846 18006008 18122756 18168844 18133120 18015920 17829146 
1285.838 17593558 17335514 17079274 16846330 16653243 16510902 16426828 
1289.214 16405664 16448645 16554065 16716460 16928076 17179160 17460394 
1292.589 17763316 18079472 18399248 18711510 19002566 19258834 19470482 
1295.964 19633070 19749946 19830608 19889260 19939696 19993366 20058772 
1299.339 20140846 20243696 20370354 20523032 20701514 20901036 21112404 
1302.715 21321720 21513518 21674226 21792558 21861614 21877330 21837746 
1306.090 21742672 21594230 21398638 21167020 20914664 20660058 20419876 
1309.465 20206448 20026606 19881214 19769016 19688678 19641250 19630088 
1312.840 19658966 19729556 19840112 19985804 20161218 20362228 20587858 
1316.216 20839954 21121170 21432818 21773886 22141334 22531672 22943354 
1319.591 23377036 23834638 24316936 24821172 25340814 25866108 26386616 
1322.966 26895024 27388534 27869392 28344344 28824280 29324136 29861266 
1326.341 30456704 31131442 31899900 32764648 33709352 34697636 35672316 
1329.717 36568544 37325604 37895868 38257500 38415764 38401612 38261768 
1333.092 38052376 37832492 37652864 37557696 37581540 37746068 38062176 
1336.467 38529444 39139284 39877856 40731352 41689412 42745180 43893108 
1339.842 45126008 46431480 47791336 49182552 50576488 51940928 53238088 
1343.218 54419644 55432396 56218340 56721120 56899444 56729464 56208876 
1346.593 55353796 54194812 52772244 51128944 49314040 47380996 45384892 
1349.968 43388364 41455392 39644304 38008940 36587900 35402368 34457532 
1353.343 33744800 33247170 32942158 32805488 32809920 32922924 33109832 
1356.719 33333990 33560128 33762312 33923504 34036404 34102168 34126824 
1360.094 34120340 34095572 34073028 34081592 34156792 34340068 34668104 
1363.469 35164780 35840476 36691876 37709164 38880220 40192576 41628832 
1366.844 43155776 44721300 46247524 47632980 48774456 49574728 49959600 
1370.219 49891804 49368868 48425116 47121364 45548724 43819136 42050488 
1373.595 40368532 38882216 37665004 36751944 36137124 35789452 35669224 
1376.970 35747464 36013700 36478264 37167376 38117988 39373656 40975032 
1380.345 42956736 45333252 48081980 51119180 54280816 57344556 60027696 
1383.720 62039392 63140048 63149484 61991884 59708076 56480148 52615652 
1387.096 48490608 44503080 40957040 38018056 35720876 33999636 32741244 
1390.471 31820994 31135288 30603300 30166608 29788972 29447620 29131906 
1393.846 28841630 28584034 28369704 28207314 28099838 28043674 28030668 
1397.221 28050424 28092380 28147918 28209010 28269192 28323512 28368468 
1400.597 28401646 28421526 28427220 28418872 28398958 28374020 28355098 
1403.972 28358068 28400692 28496882 28654108 28870312 29136300 29439358 
1407.347 29768108 30116530 30482898 30868644 31275026 31699720 32137278 
1410.722 32580100 33021804 33459802 33895416 34331392 34769672 35208472 
1414.098 35642644 36066696 36476604 36872116 37255780 37630568 37997732 
1417.473 38356552 38708312 39061880 39436056 39858896 40355768 40936544 
1420.848 41594520 42308784 43055256 43814956 44583960 45376100 46221432 
1424.223 47154680 48204252 49385392 50697604 52133368 53685196 55350408 
1427.599 57126024 58997392 60931756 62868684 64727136 66426276 67899240 
1430.974 69112872 70073752 70824464 71430488 71962192 72491296 73082280 
1434.349 73798472 74715160 75918976 77499744 79530040 82024512 84929920 
1437.724 88142992 91542352 95006952 98409512 101618112 104465008 106756784 
1441.100 108317640 108998664 108720752 107483312 105352672 102441824 
1443.993 98879032 94805432 90350104 85621176 80722952 75757480 70844664 
1447.368 66145092 61836864 58087308 55013684 52650100 50959196 49859020 
1450.743 49265348 49109384 49344332 49939232 50860208 52063468 53506912 
1454.118 55151200 56977376 58993408 61218396 63659696 66277772 68973584 
1457.494 71609528 74060488 76254024 78167320 79807640 81193256 82348448 
1460.869 83300048 84075272 84698312 85183184 85529984 85728568 85768936 
1464.244 85657784 85425776 85125864 84811368 84512592 84229832 83935808 
1467.619 83592320 83159096 82602776 81892696 80989136 79835672 78359560 
1470.995 76489512 74197408 71539936 68678368 65828620 63187264 60864360 
1474.370 58870564 57156072 55662124 54360420 53266892 52431936 51910344 
1477.745 51744620 51950636 52524216 53458156 54755612 56435468 58526700 
1481.120 61052744 64017488 67397288 71147880 75218072 79559568 84143352 
1484.496 88950544 93957104 99122080 104355232 109497816 114335008 118584960 
1487.871 121929664 124069376 124749648 123832944 121348680 117515312 
1490.764 112701000 107318688 101751776 96260288 90967432 85905848 81043560 
1494.139 76335232 71767016 67370624 63230076 59463240 56177916 53435784 
1497.514 51235596 49532872 48261196 47359008 46784276 46509620 46517144 
1500.890 46790364 47307908 48041152 48957480 50012056 51150116 52304172 
1504.265 53370588 54209040 54639148 54456492 53511932 51792292 49449656 
1507.640 46723168 43826136 40882660 37936436 34996344 32074240 29196682 
1511.015 26417566 23803592 21408732 19270092 17395380 15767731 14357760 
1514.391 13132324 12060819 11115329 10273289 9519878 8847874 8260009 7762756 
1518.248 7359075 7041498 6789240 6569891 6349678 6105853 5840569 5581926 
1522.105 5369761 5231036 5165412 5148479 5145260 5126551 5076599 4999769 
1525.963 4915011 4846587 4809631 4803869 4816634 4832682 4843002 4848798 
1529.820 4858515 4880429 4915514 4954187 4978218 4968532 4917223 4834492 
1533.678 4748325 4688702 4674267 4702267 4755829 4811206 4848966 4857878 
1537.535 4835429 4784974 4711746 4618271 4504359 4372135 4232757 4107039 
1541.393 4017304 3976307 3981088 4015131 4056366 4088307 4106035 4118679 
1545.250 4142429 4192007 4271170 4371030 4474596 4564090 4629556 4671487 
1549.107 4700325 4730036 4770602 4821324 4871482 4905125 4909650 4880328 
1552.965 4822765 4749665 4675975 4612444 4561211 4516746 4469207 4408585 
1556.822 4326050 4213653 4066199 3886031 3690198 3510085 3380168 3320432 
1560.680 3329113 3390453 3481394 3579636 3664635 3723917 3754129 3762451 
1564.537 3763621 3773347 3801557 3847620 3902246 3952432 3988713 4008609 
1568.395 4018475 4029912 4055597 4103092 4173406 4262470 4366345 4482866 
1572.252 4611573 4750737 4895609 5036942 5164037 5269570 5355806 5438536 
1576.109 5543163 5695987 5910024 6182845 6504233 6865007 7263410 7706158 
1579.967 8205709 8775041 9422787 10150151 10950223 11810634 12715537 
1583.342 13643494 14565453 15445871 16239084 16900068 17393758 17701294 
1586.717 17828320 17803946 17680830 17524420 17406520 17400726 17567890 
1590.093 17955034 18589550 19473218 20577088 21835168 23153064 24404374 
1593.468 25448976 26161756 26438520 26222852 25514330 24370940 22896548 
1596.843 21214962 19459114 17740294 16139759 14713123 13487506 12469783 
1600.218 11651696 11016557 10543603 10212903 10011010 9931574 9973951 
1603.594 10140552 10432471 10846630 11374773 12001138 12701856 13445126 
1606.969 14184569 14862282 15416620 15783880 15914641 15781887 15384590 
1610.344 14750519 13930831 12997448 12023824 11075254 10200861 9423363 
1613.719 8746167 8157798 7641271 7179321 6761542 6388312 6068958 5816961 
1617.577 5641873 5544404 5515276 5538599 5594546 5662987 5726740 5772570 
1621.434 5795134 5797787 5791810 5791710 5808969 5848193 5905087 5970923 
1625.292 6036401 6095537 6146010 6188121 6223715 6254673 6283011 6311217 
1629.149 6343593 6384513 6437441 6503493 6579614 6658977 6731860 6787557 
1633.006 6816705 6811790 6769417 6691749 6588898 6477697 6379200 6311956 
1636.864 6285230 6298274 6342483 6405461 6473930 6535884 6584155 6616652 
1640.721 6637713 6655310 6677718 6709180 6748148 6786548 6813036 6816267 
1644.579 6787524 6724087 6631556 6522732 6415482 6327791 6274271 6262707 
1648.436 6293433 6361177 6456543 6565115 6666648 6736807 6745725 6667826 
1652.293 6498313 6273431 6065934 5941363 5923762 5991348 6104442 6226438 
1656.151 6333675 6415314 6468313 6495556 6502013 6492293 6468851 6432027 
1660.008 6381217 6315251 6233967 6138516 6031428 5917984 5805376 5701862 
1663.866 5615456 5550613 5507624 5481182 5461419 5436456 5393076 5321054 
1667.723 5215777 5080487 4926003 4768425 4624433 4505765 4417522 4358178 
1671.581 4322235 4301018 4283685 4258488 4212750 4136474 4027672 3895827 
1675.438 3761850 3647995 3569614 3527255 3509952 3500399 3483164 3450365 
1679.295 3403176 3351350 3306743 3277363 3261539 3246316 3210131 3130627 
1683.153 2994317 2808523 2603908 2423379 2298050 2232534 2211220 2211153 
1687.010 2214184 2209088 2191505 2162100 2123175 2077861 2029289 1981788 
1690.868 1940649 1911262 1897118 1896785 1903042 1902043 1877816 1816290 
1694.725 1713589 1581514 1447384 1342643 1284283 1269329 1277205 1281492 
1698.583 1255838 1183602 1065505 925126 800958 724051 705034 731585 782535 
1702.922 836711 879173 901783 902381 885282 859385 835847 823797 828079 
1707.262 848695 881497 921241 962483 1002201 1039863 1077462 1117789 1163468 
1711.601 1215133 1271689 1330778 1390307 1449013 1506929 1563856 1618162 
1715.459 1664526 1695826 1704874 1689572 1656543 1620690 1600071 1607054 
1719.316 1644004 1704009 1775799 1847435 1910596 1961884 2002559 2036546 
1723.174 2068273 2100268 2132698 2163965 2192504 2217947 2241294 2263775 
1727.031 2285625 2305245 2319768 2326764 2326064 2320435 2313806 2309342 
1730.888 2305245 2294153 2262610 2195101 2081224 1923809 1744993 1580250 
1734.746 1463974 1411481 1415471 1454997 1506364 1551087 1576160 1576027 
1738.603 1551818 1510022 1460383 1412545 1373621 1346798 1332406 1329182 
1742.461 1335530 1349722 1369765 1394063 1420889 1449246 1478203 1507029 
1746.318 1534793 1560265 1582179 1599538 1612076 1620124 1624182 1624116 
1750.176 1619426 1609848 1596313 1581381 1568511 1560564 1558070 1558136 
1754.033 1553980 1537088 1499415 1436580 1350653 1249823 1146990 1054012 
1757.890 976496 912807 855634 795149 723321 636474 536904 432216 332826 
1762.230 247747 183071 140212 117012 108825 110748 116647 120193 115752 
1766.570 100242 74094 42546 13916 -4075 -7653 298 11862 16964 7388 -18389 
1771.874 -53110 -83092 -93957 -78321 -37274 21371 87880 154995 219667 282294 
1776.695 345062 408569 470658 527184 573265 606245 627382 641351 654824 
1781.035 673407 698530 727603 755582 777556 790601 795414 795149 793987 
1785.375 795281 800759 810120 822834 838470 857294 878608 900588 918485 
1789.714 926321 917157 886344 833922 765507 691693 623035 567492 527217 
1794.054 499219 478122 458684 437523 412947 384226 351031 312201 266976 
1798.393 215026 158011 99115 42844 -5798 -43635 -69277 -83754 -88723 -86901 
1803.215 -80077 -70304 -59339 -49135 -41249 -36445 -33662 -31211 -26208 
1807.555 -16500 -1722 16733 36515 55204 72337 89172 108858 134611 167756 
1812.376 207534 250532 293501 333788 370364 404622 438717 474639 513815 
1816.716 555947 599841 643807 686848 727536 764909 797439 823398 841425 
1821.056 850422 850355 841889 825523 802252 772112 737195 700388 666903 
1825.395 642977 632790 637668 653961 674171 688839 689801 673573 643077 
1829.735 607971 580067 569782 581692 613147 657545 707291 757342 806070 
1834.074 854638 906233 963147 1026279 1094469 1166392 1241183 1319478 
1837.932 1403271 1494461 1594317 1702279 1816157 1933227 2050295 2165264 
1841.789 2276299 2382299 2484058 2583842 2687216 2801020 2932532 3085975 
1845.647 3260203 3448662 3641345 3826761 3994899 4139719 4259258 4355133 
1849.504 4430342 4487218 4525820 4544201 4539714 4511188 4459699 4389305 
1853.362 4304967 4210140 4106604 3993294 3868513 3731670 3584246 3430427 
1857.219 3275660 3123919 2976835 2833636 2692751 2553411 2417515 2289256 
1861.076 2173123 2072135 1986382 1912593 1846337 1784316 1725665 1672176 
1864.934 1626643 1590360 1562326 1538517 1514444 1487413 1459086 1435117 
1868.791 1422917 1427770 1449878 1484354 1523089 1558070 1584873 1602199 
1872.649 1611910 1616333 1617298 1614970 1608385 1596146 1578687 1557438 
1876.506 1534461 1510986 1486149 1457358 1421554 1376346 1321671 1259659 
1880.364 1193204 1124699 1054710 981843 904473 821938 736630 653530 578275 
1884.703 515639 467341 430889 401405 373117 342144 307294 269894 233359 
1889.043 201733 178397 165569 165536 179325 207236 247681 297314 350865 
1893.382 402931 449297 489002 524629 560824 602330 651837 708585 769058 
1897.722 829075 885547 938009 987954 1037339 1087760 1138618 1188486 1235534 
1902.062 1280129 1323665 1369233 1418396 1470423 1521925 1567547 1602631 
1905.919 1624648 1634692 1636055 1632729 1627807 1622087 1614903 1605957 
1909.776 1595980 1587699 1583908 1586635 1595315 1606256 1614571 1615568 
1913.634 1607686 1590892 1566915 1536256 1496988 1445223 1377244 1291960 
1917.491 1193569 1091413 996854 918452 858688 813240 774170 732747 684989 
1921.831 631928 579801 536274 506716 491622 487045 487144 487609 487045 
1926.170 487111 489732 495702 503000 507644 506251 497792 485021 472018 
1930.510 462963 458983 456727 450724 435798 410559 377991 344233 315948 
1934.850 296253 283421 272712 258588 238166 213336 188938 170143 159768 
1939.189 155989 154067 148830 138588 126093 117741 121055 139384 171336 
1943.529 210021 247979 279708 304475 324768 345360 367877 391622 412482 
1947.868 427142 434206 436893 440707 451122 470857 498157 527449 553060 
1952.208 570777 580697 585342 587831 589125 587300 578408 558966 528046 
1956.548 488736 446047 405385 368839 335512 302884 269595 238100 214098 
1960.887 204021 212507 237636 273740 311273 343006 366782 385553 405086 
1965.227 430127 460641 492186 517563 532293 537136 537667 542477 556843 
1969.566 579602 604022 620878 623831 613346 597519 587831 595163 623765 
1973.906 671649 732183 800593 877048 966567 1076399 1208521 1356303 1503704 
1978.246 1629437 1717082 1757734 1753709 1715020 1655047 1584839 1511817 
1982.103 1440104 1373056 1315157 1271722 1246733 1240918 1248859 1261287 
1985.960 1268100 1262982 1246135 1223705 1206228 1201178 1212142 1236066 
1989.818 1266571 1298008 1328551 1359727 1397021 1443894 1498617 1555609 
1993.675 1607187 1647729 1675735 1695394 1713157 1735644 1766018 1802383 
1997.533 1840115 1874722 1902975 1923842 1937987 1944343 1940050 1920813 
2001.390 1883074 1826306 1755871 1679926 1608484 1548493 1502308 1467265 
2005.248 1439672 1416368 1398218 1387349 1386983 1395094 1405864 1408855 
2009.105 1395359 1362652 1315755 1265773 1226563 1208288 1214069 1239190 
2012.962 1274546 1311568 1345368 1375316 1403570 1431128 1456826 1477139 
2016.820 1489740 1495425 1500645 1514444 1545500 1597210 1666588 1744793 
2020.677 1822346 1892359 1952964 2007252 2057852 2104629 2141888 2159770 
2024.535 2152011 2115617 2057586 1990243 1928967 1884772 1861611 1856020 
2028.392 1860379 1868033 1875753 1883973 1895920 1913259 1935257 1959155 
2032.250 1983985 2011680 2048797 2103830 2181648 2280463 2390428 2497055 
2036.107 2585942 2649511 2686983 2706454 2718190 2730027 2746398 2767039 
2039.964 2789881 2814393 2841440 2874326 2914853 2961555 3008463 3047501 
2043.822 3071960 3078868 3071259 3055910 3040027 3029116 3024211 3023044 
2047.679 3022076 3018339 3009364 2993116 2966059 2922625 2857282 2768073 
2051.537 2658612 2540613 2429177 2341521 2288590 2272335 2284293 2309176 
2055.394 2331461 2339989 2332527 2314039 2292487 2274634 2262210 2253217 
2059.251 2243059 2229371 2213618 2200296 2195201 2201562 2218213 2240494 
2063.109 2261910 2278564 2288557 2294785 2300248 2307277 2315072 2321201 
2066.966 2322133 2317070 2308309 2300315 2297084 2300248 2306577 2311374 
2070.824 2308309 2294019 2269038 2237097 2202961 2169726 2138225 2106228 
2074.681 2071735 2034150 1995269 1959255 1930565 1910530 1897850 1888133 
2078.539 1876585 1859880 1837952 1813130 1788475 1765785 1744760 1723602 
2082.396 1700683 1675935 1652087 1633494 1622985 1620889 1623949 1626277 
2086.253 1621555 1605558 1578055 1541976 1501975 1461979 1424213 1388878 
2090.111 1355273 1323300 1294885 1272619 1259559 1256569 1262849 1274912 
2093.968 1290165 1305984 1322269 1339618 1358132 1376147 1390473 1397021 
2097.826 1393431 1380302 1361921 1344105 1332772 1330877 1338621 1353212 
2101.683 1371227 1390938 1412878 1438674 1470324 1507661 1548526 1589462 
2105.541 1627641 1662031 1694263 1726796 1761926 1799555 1837619 1872858 
2109.398 1903308 1929367 1954062 1981489 2014776 2053857 2095174 2132865 
2113.255 2161901 2180449 2190639 2197532 2207124 2223675 2248155 2278864 
2117.113 2312074 2345186 2377101 2408086 2439540 2471762 2503687 2533614 
2120.970 2559478 2580243 2596942 2610875 2623909 2635943 2645677 2650678 
2124.828 2648744 2639377 2623342 2602442 2577543 2547945 2510952 2463465 
2128.685 2403022 2330162 2247788 2160469 2073233 1990110 1913059 1843608 
2132.542 1783119 1734014 1699651 1682388 1681656 1693298 1710130 1725032 
2136.400 1732650 1732817 1728692 1726031 1728426 1736277 1746390 1754441 
2140.257 1757235 1756503 1756171 1762259 1777929 1802416 1829467 1850929 
2144.115 1860180 1855754 1841412 1824542 1812131 1807041 1807174 1806675 
2147.972 1799455 1783252 1759098 1731852 1705805 1683286 1662331 1639647 
2151.830 1611843 1578720 1542341 1505998 1471022 1436148 1397487 1354342 
2155.687 1311734 1285380 1297011 1371792 1525084 1756037 2043005 2350616 
2159.544 2642043 2887968 3075798 3208362 3297394 3356693 3396831 3424616 
2163.402 3443919 3458080 3470839 3486804 3508649 3535807 3563667 3585382 
2167.259 3593601 3584180 3556886 3514294 3459717 3396731 3327677 3254528 
2171.117 3181258 3113707 3059647 3027114 3021008 3041328 3083406 3138303 
2174.974 3197814 3253794 3301434 3338195 3362537 3373756 3371519 3357762 
2178.832 3336559 3315390 3303003 3305374 3325206 3359097 3399870 3437474 
2182.689 3465495 3480124 3482763 3476717 3465962 3452603 3439244 3427688 
2186.546 3422545 3428958 3453104 3497426 3560126 3633326 3705737 3765626 
2190.404 3806136 3825858 3829802 3825624 3821111 3820610 3824421 3830738 
2194.261 3837023 3841669 3844945 3847051 3848121 3845580 3837190 3820109 
2198.119 3794504 3763186 3731069 3702095 3679237 3660859 3644319 3625942 
2201.976 3604392 3581307 3561128 3548167 3544826 3549904 3559224 3567977 
2205.833 3573389 3575093 3575828 3578667 3586284 3597510 3609638 3619360 
2209.691 3625040 3627112 3628281 3631255 3637603 3645622 3652272 3653408 
2213.548 3648128 3637937 3627279 3620897 3622868 3634062 3652673 3676364 
2217.406 3703665 3734611 3770773 3812655 3857815 3900875 3933206 3947584 
2221.263 3938924 3907763 3859621 3803262 3748013 3700858 3665136 3640477 
2225.121 3624573 3614349 3606898 3600417 3593300 3584614 3573455 3560560 
2228.978 3547098 3535239 3527055 3522612 3520140 3516065 3505844 3487038 
2232.835 3459216 3425284 3390186 3358663 3333821 3316492 3304740 3296627 
2236.693 3290216 3285609 3283439 3285042 3290484 3298730 3308145 3317827 
2240.550 3327443 3338161 3350916 3365575 3379967 3390453 3393291 3386679 
2244.408 3372053 3353955 3338095 3329814 3331550 3342135 3357394 3372955 
2248.265 3385377 3394026 3399503 3403810 3407584 3410289 3410256 3406081 
2252.123 3397466 3386178 3374959 3366477 3361902 3360333 3359665 3357528 
2255.980 3352586 3344772 3335724 3326575 3317994 3309247 3298997 3286844 
2259.837 3273858 3262373 3255129 3254128 3259169 3268216 3278164 3287178 
2263.695 3295358 3305407 3321166 3345440 3378865 3418638 3459884 3497159 
2267.552 3526554 3547331 3560894 3570482 3578934 3587821 3597042 3605862 
2271.410 3613380 3619628 3625508 3631823 3638873 3645789 3651503 3654477 
2275.267 3654377 3652038 3649164 3647293 3647894 3650501 3654644 3659489 
2279.125 3664769 3670951 3678836 3689262 3702262 3717066 3732639 3748481 
2282.982 3764858 3782639 3803061 3826560 3852166 3878074 3902146 3922306 
2286.839 3937954 3949389 3957982 3964536 3969853 3973866 3977276 3980721 
2290.697 3986171 3996036 4012823 4037337 4069343 4106302 4145139 4183208 
2294.554 4218772 4251796 4282781 4312597 4341244 4367884 4391213 4410024 
2298.412 4424384 4435028 4443229 4450058 4455850 4460068 4461674 4459967 
2302.269 4454778 4446978 4437706 4428066 4418158 4407513 4395564 4382276 
2306.126 4368888 4357375 4350380 4349845 4356170 4367918 4382443 4396903 
2309.984 4409087 4417990 4423915 4427798 4430610 4433187 4435464 4437304 
2313.841 4438777 4440183 4441957 4444602 4448452 4453439 4459766 4467767 
2317.699 4478045 4491871 4510218 4533487 4561211 4592687 4626475 4661339 
2321.556 4695837 4728126 4755059 4772780 4776766 4763299 4730538 4679827 
2325.414 4615692 4544971 4475434 4414074 4364839 4329263 4305971 4292351 
2329.271 4285592 4283885 4286395 4293121 4304365 4320093 4340005 4363734 
2333.128 4391046 4421739 4455783 4492373 4529837 4566970 4601829 4633676 
2336.986 4662947 4690611 4718144 4746081 4773818 4799815 4822430 4840858 
2340.843 4855566 4868467 4881334 4895341 4909650 4921680 4928349 4927947 
2344.701 4921177 4912297 4907940 4916519 4944402 4995848 5071369 5168362 
2348.558 5282181 5406563 5535176 5661510 5779655 5885740 5977911 6057232 
2352.416 6126822 6191482 6255178 6320596 6387640 6454491 6519402 6581093 
2356.273 6640808 6701608 6767634 6841982 6926545 7020687 7121856 7227023 
2360.130 7332520 7436559 7537184 7633145 7723292 7806710 7883093 7952537 
2363.988 8016289 8075460 8130857 8181601 8226510 8263216 8290200 8306512 
2367.845 8312761 8310059 8299656 8281858 8256361 8222356 8180520 8132882 
2371.703 8083560 8038465 8004476 7986421 7988479 8012442 8058379 8125420 
2375.560 8212192 8317557 8440379 8579593 8734266 8903639 9087425 9285639 
2379.417 9498372 9724999 9964356 10213310 10467838 10722887 10973806 
2382.793 11216334 11447806 11665991 11869234 12055096 12220657 12362588 
2386.168 12477456 12562884 12618311 12644679 12644679 12621312 12578403 
2389.543 12518923 12445403 12359486 12262885 12156286 12040652 11916467 
2392.918 11784657 11646149 11502785 11357223 11213308 11074675 10945771 
2396.294 10830119 10730393 10648414 10584920 10540141 10513696 10505311 
2399.669 10514171 10540141 10582883 10642438 10719321 10814086 10926879 
2403.044 11057680 11205488 11369025 11546711 11737404 11940817 12157002 
2406.419 12386896 12630317 12886607 13154045 13430259 13713284 14002071 
2409.795 14296768 14598314 14907372 15223549 15544076 15864704 16179342 
2413.170 16481338 16764395 17023068 17253002 17450634 17613744 17741090 
2416.545 17833048 17891464 17919432 17920746 17899302 17857594 17797422 
2419.920 17719448 17624062 17512276 17386172 17248796 17103710 16954914 
2423.296 16805516 16658340 16515754 16380373 16255459 16144540 16051287 
2426.671 15979333 15931381 15909314 15914401 15947089 16008036 16097428 
2430.046 16215181 16360315 16531106 16726067 16943406 17182158 17442218 
2433.421 17723832 18027352 18352688 18698986 19064672 19448372 19849164 
2436.797 20266780 20701724 21154950 21627452 22120066 22633378 23168476 
2440.172 23726946 24311048 24922994 25564548 26236578 26938736 27669964 
2443.547 28429132 29214826 30026338 30862026 31719964 32596386 33486824 
2446.922 34386224 35289432 36192220 37091652 37984820 38868952 39740876 
2450.298 40597304 41434540 42250132 43041684 43807736 44545596 45251020 
2453.673 45917852 46537948 47101348 47598744 48020948 48359444 48607108 
2457.048 48756920 48802888 48740236 48565568 48277820 47878084 47369320 
2460.423 46755936 46042352 45234140 44336820 43356512 42300496 41176616 
2463.799 39993912 38762684 37492996 36196292 34884628 33570544 32266918 
2467.174 30987052 29742842 28545320 27403674 26324406 25312188 24369820 
2470.549 23498282 22697260 21965708 21301396 20700750 20158928 19669678 
2473.924 19225828 18819832 18445190 18095778 17767390 17456636 17161236 
2477.300 16879778 16610691 16353332 16107194 15872231 15648590 15436258 
2480.675 15235216 15045039 14865506 14695985 14536809 14388173 14250782 
2484.050 14125245 14011824 13910235 13820333 13741531 13673618 13616347 
2487.425 13569270 13531634 13502237 13479235 13460984 13446219 13434634 
2490.801 13426979 13424450 13428585 13440888 13462043 13492599 13532591 
2494.176 13581817 13639699 13704872 13775185 13847972 13920019 13988726 
2497.551 14052514 14111964 14168308 14224214 14281462 14341355 14403346 
2500.926 14465996 14527421 14585669 14639881 14689610 14734888 14776572 
2504.302 14815619 14853231 14891119 14931034 14974623 15022400 15073854 
2507.677 15126514 15176984 15221078 15255499 15278115 15287931 15284979 
2511.052 15269569 15241325 15199872 15144080 15073579 14988993 14891976 
2514.427 14785074 14671308 14553427 14433899 14314610 14196996 14082837 
2517.802 13973636 13870448 13774056 13683670 13598534 13517311 13439794 
2521.178 13366734 13300073 13241861 13194108 13157357 13130480 13111288 
2524.553 13097048 13085710 13076081 13068534 13064266 13064744 13071403 
2527.928 13084993 13106404 13135637 13173034 13218223 13270967 13329525 
2531.303 13392806 13458933 13527019 13596449 13667804 13741805 13819068 
2534.679 13899868 13983798 14070242 14158825 14249516 14343273 14440921 
2538.054 14542942 14649409 14759397 14871437 14983849 15095775 15206529 
2541.429 15316247 15425066 15532881 15639866 15745845 15851300 15957091 
2544.804 16064283 16173152 16283941 16395342 16505361 16612034 16713602 
2548.180 16809546 16900138 16986096 17068280 17146862 17221698 17292100 
2551.555 17357996 17419660 17478230 17535252 17592040 17648874 17705574 
2554.930 17760762 17813060 17861150 17903860 17940462 17970438 17992850 
2558.305 18006490 18010394 18003348 17984838 17954482 17912458 17859184 
2561.681 17795350 17722244 17641590 17556090 17468156 17380654 17295824 
2565.056 17214356 17136418 17061250 16988300 16917912 16851292 16790604 
2568.431 16737947 16695146 16662540 16639747 16625529 16618436 16618058 
2571.806 16623704 16635995 16654724 16680270 16712086 16749898 16793428 
2575.182 16842990 16898966 16961770 17030580 17104364 17180986 17258518 
2578.557 17335444 17411590 17487336 17563750 17642076 17722796 17805880 
2581.932 17891120 17978206 18067280 18159136 18254432 18353794 18456980 
2585.307 18563236 18671176 18779350 18886410 18991420 19093684 19192406 
2588.683 19286788 19376200 19460502 19540348 19616984 19692284 19767942 
2592.058 19845036 19923810 20003638 20083134 20161496 20238314 20313548 
2595.433 20388480 20463878 20541132 20620968 20704818 20793722 20889076 
2598.808 20992346 21104682 21226374 21356870 21494716 21638806 21787890 
2602.184 21941104 22098588 22260526 22427232 22598506 22774038 22953030 
2605.559 23135310 23320674 23509088 23700772 23895478 24092338 24289990 
2608.934 24486504 24679846 24868078 25048920 25220492 25380400 25526278 
2612.309 25655858 25766878 25857808 25927550 25975808 26002790 26009334 
2615.685 25996916 25967226 25922978 25866916 25801932 25730946 25655822 
2619.060 25578146 25498448 25417252 25334702 25251746 25169366 25088900 
2622.435 25011748 24938890 24871060 24808892 24753046 24704394 24663992 
2625.810 24632886 24611988 24601852 24602694 24614618 24637340 24671252 
2629.186 24716600 24773566 24841800 24920502 25008518 25103960 25205604 
2632.561 25312118 25423118 25538506 25658072 25781820 25909226 26039870 
2635.936 26173474 26309586 26448414 26590212 26735014 26882650 27032242 
2639.311 27182906 27333976 27484536 27634264 27782982 27930198 28075662 
2642.687 28218698 28358812 28495820 28629652 28761222 28890888 29019704 
2646.062 29147814 29275786 29404044 29533546 29665356 29800898 29941770 
2649.437 30088830 30242478 30402614 30568816 30740592 30917846 31100724 
2652.812 31289696 31484988 31686854 31895156 32109592 32330130 32556958 
2656.188 32790694 33031672 33280436 33536718 33799992 34069304 34343516 
2659.563 34621772 34903660 35188636 35476428 35766460 36058052 36350276 
2662.938 36641904 36932320 37220868 37507196 37791428 38073680 38354596 
2666.313 38634748 38915304 39197700 39483340 39773224 40068508 40369256 
2669.688 40675932 40988172 41306032 41629200 41957236 42289648 42625168 
2673.064 42961712 43297128 43628844 43954476 44272020 44580144 44877644 
2676.439 45164208 45439888 45705176 45961828 46211848 46457920 46703576 
2679.814 46952324 47207608 47473096 47752428 48048852 48365632 48705396 
2683.189 49070244 49460868 49877160 50318140 50782284 51268072 51774148 
2686.565 52299016 52841692 53400336 53973620 54559268 55155828 55762360 
2689.940 56378724 57005336 57643252 58292908 58954392 59627452 60311644 
2693.315 61006828 61713100 62431268 63162088 63905732 64661608 65428464 
2696.690 66204324 66987140 67774976 68566720 69361424 70158488 70957128 
2700.066 71756784 72556800 73356504 74155040 74951584 75744264 76530408 
2703.441 77306072 78066776 78807120 79521800 80205520 80853168 81459288 
2706.816 82018472 82524920 82973632 83360136 83681584 83936568 84125176 
2710.191 84248376 84307800 84304896 84241624 84119304 83939584 83703760 
2713.567 83412928 83067416 82666704 82210376 81697536 81128464 80503784 
2716.942 79825880 79097784 78323688 77508624 76658112 75778464 74876144 
2720.317 73957896 73030256 72099432 71171144 70250992 69344480 68457008 
2723.692 67594568 66762896 65967328 65212184 64500436 63833296 63211560 
2727.068 62635608 62105980 61623736 61190320 60806804 60474120 60191588 
2730.443 59958420 59772448 59631900 59534872 59479652 59465256 59490372 
2733.818 59553568 59653260 59787808 59954996 60152500 60377856 60627440 
2737.193 60897064 61181812 61475752 61773640 62070472 62361804 62644640 
2740.569 62915796 63172624 63412472 63633040 63832880 64011952 64171680 
2743.944 64315392 64446664 64569788 64687788 64803176 64917744 65032684 
2747.319 65149620 65270400 65396300 65528400 65667020 65811464 65960736 
2750.694 66113956 66271672 66435388 66608480 66794896 66999280 67226280 
2754.070 67479680 67763664 68081208 68435320 68827696 69258864 69727840 
2757.445 70231592 70765968 71325160 71902400 72491176 73083496 73671168 
2760.820 74246032 74799032 75321080 75804224 76241184 76625664 76953192 
2764.195 77219888 77422952 77560944 77634072 77643744 77593304 77487544 
2767.571 77331800 77132104 76895008 76626416 76332856 76021552 75699256 
2770.946 75373104 75049560 74733576 74428992 74138064 73862088 73601760 
2774.321 73357752 73130312 72919176 72722792 72539216 72364576 72193792 
2777.696 72021400 71840592 71644768 71426816 71179384 70896120 70572224 
2781.072 70204672 69793936 69343080 68858328 68346896 67817080 67276808 
2784.447 66732644 66190592 65655536 65131456 64621844 64129196 63655100 
2787.822 63199988 62763580 62344668 61942320 61555656 61184328 60828452 
2791.197 60488364 60163728 59854316 59559456 59278240 59009464 58751928 
2794.573 58503916 58262596 58025120 57787588 57545832 57296084 57034880 
2797.948 56759748 56469280 56161848 55837040 55493908 55131636 54749712 
2801.323 54347728 53925712 53483788 53022436 52542612 52044944 51530720 
2804.698 51001708 50460508 49910236 49355060 48799476 48248608 47707420 
2808.073 47180752 46673176 46188740 45730616 45302064 44904796 44540492 
2811.449 44209800 43912720 43648996 43417660 43217552 43047208 42904908 
2814.824 42789204 42698640 42632256 42589568 42570780 42576152 42606672 
2818.199 42662744 42744852 42853012 42987284 43147212 43332860 43543676 
2821.574 43779592 44039836 44323096 44627728 44951572 45291616 45645032 
2824.950 46008352 46378128 46750400 47120588 47483556 47833836 48165488 
2828.325 48471940 48747172 48984852 49179396 49326368 49422516 49466700 
2831.700 49459720 49404324 49304984 49166816 48995724 48797104 48576424 
2835.075 48338516 48087568 47827660 47561700 47291652 47018524 46742616 
2838.451 46463860 46181852 45896932 45609588 45320896 45031652 44742564 
2841.826 44453784 44165560 43877784 43591444 43307888 43029208 42757940 
2845.201 42496600 42246808 42009608 41784904 41571876 41369080 41174652 
2848.576 40986500 40802216 40619464 40436312 40251496 40064800 39877128 
2851.952 39691136 39509684 39336544 39175296 39028568 38898448 38786308 
2855.327 38692628 38617620 38560728 38521296 38497652 38487516 38487700 
2858.702 38494360 38503120 38509420 38508516 38496096 38468764 38424088 
2862.077 38361324 38281312 38186472 38080480 37967968 37853860 37742456 
2865.453 37637652 37542812 37460056 37391256 37337772 37300584 37280652 
2868.828 37278956 37296104 37332684 37388796 37463488 37555164 37661176 
2872.203 37778452 37903568 38034256 38169756 38311236 38461304 38623956 
2875.578 38802972 39001308 39220588 39460552 39720068 39997184 40290324 
2878.954 40597852 40918812 41251924 41596052 41948952 42308312 42671588 
2882.329 43035828 43398360 43756980 44108928 44451804 44783300 45100792 
2885.704 45402216 45686224 45951480 46197328 46423776 46631304 46820956 
2889.079 46994416 47154864 47305728 47451140 47595972 47743996 47899764 
2892.455 48067356 48251124 48455896 48687084 48949616 49248164 49585500 
2895.830 49961980 50374136 50814804 51272360 51729912 52168560 52566136 
2899.205 52900184 53152248 53308360 53362344 53316900 53182696 52976504 
2902.580 52717548 52425768 52118760 51809612 51508892 51223516 50958636 
2905.956 50718196 50505316 50322044 50169496 50047748 49955992 49892956 
2909.331 49857384 49848728 49866528 49910496 49979640 50071768 50184076 
2912.706 50311852 50449900 50592908 50735100 50871124 50996272 51106580 
2916.081 51198836 51271168 51322812 51353876 51365288 51358796 51336424 
2919.457 51300548 51254500 51201856 51146796 51093760 51046500 51007748 
2922.832 50978272 50956924 50940416 50923428 50900068 50863708 50807948 
2926.207 50728324 50621684 50487712 50328408 50148744 49955364 49756124 
2929.582 49559424 49372692 49202552 49054588 48932820 48840856 48781536 
2932.958 48757108 48769080 48818276 48904636 49027024 49183924 49373324 
2936.333 49593076 49840664 50113492 50408184 50720728 51047060 51382480 
2939.708 51723196 52065676 52407340 52745792 53078892 53403148 53713692 
2943.083 54003260 54262156 54478652 54640012 54732984 54747344 54675900 
2946.458 54517680 54277176 53965664 53599568 53197112 52778192 52360464 
2949.834 51956688 51576196 51222772 50895932 50592124 50305936 50031500 
2953.209 49762888 49495440 49225784 48951360 48671256 48384928 48092600 
2956.584 47795148 47493092 47187700 46880124 46571732 46263924 45957664 
2959.959 45653792 45352560 45053964 44757920 44464944 44175760 43892812 
2963.335 43618628 43356656 43110324 42882964 42677364 42496088 42340932 
2966.710 42213140 42113208 42040452 41992748 41966032 41954720 41952124 
2970.085 41950776 41944352 41927384 41896184 41849624 41788080 41713700 
2973.460 41630184 41541940 41453824 41370208 41293864 41225108 41160224 
2976.836 41090872 41004636 40885752 40715920 40478904 40161756 39757284 
2980.211 39265268 38693460 38056424 37372332 36662920 35950168 35253068 
2983.586 34588584 33970004 33406124 32903194 32465614 32095748 31796430 
2986.961 31569928 31417732 31338912 31327978 31372498 31450398 31532124 
2990.337 31581614 31559094 31431160 31173306 30776194 30247630 29612038 
2993.712 28906186 28169906 27443308 26759012 26137404 25588514 25112106 
2997.087 24701764 24347214 24037564 23763656 23517448 23292846 23085234 
3000.462 22890610 22706024 22529124 22358296 22192522 22031342 21874404 
3003.838 21721910 21574066 21431810 21296070 21167960 21048338 20937508 
3007.213 20834914 20739534 20649948 20564998 20483920 20406434 20332784 
3010.588 20263066 20197492 20135848 20078066 20023900 19973660 19928006 
3013.963 19887836 19853984 19827000 19807200 19794540 19789478 19792078 
3017.339 19802760 19821592 19848054 19880622 19916698 19953018 19986082 
3020.714 20012658 20029938 20035732 20028306 20006378 19969046 19916212 
3024.089 19848678 19768740 19679974 19587138 19494808 19407000 19326866 
3027.464 19255856 19194034 19140672 19094274 19053178 19014958 18977576 
3030.840 18938462 18895340 18846442 18790870 18728874 18661662 18591384 
3034.215 18520356 18450584 18384176 18322548 18267012 18218840 18178898 
3037.590 18148080 18127284 18116332 18115262 18123448 18140204 18164524 
3040.965 18195656 18232214 18272886 18316258 18360982 18406264 18451414 
3044.341 18496220 18540482 18583604 18624828 18662666 18696114 18724274 
3047.716 18747660 18767622 18786028 18804712 18824608 18845368 18865094 
3051.091 18881392 18891600 18893642 18886618 18870112 18844952 18811806 
3054.466 18772120 18726800 18677746 18626696 18575856 18527272 18482806 
3057.842 18443360 18409030 18379234 18353032 18329564 18307584 18286364 
3061.217 18264938 18242198 18217492 18190126 18160276 18128908 18097642 
3064.592 18068626 18043896 18024692 18011534 18003832 18000688 18000760 
3067.967 18003106 18007390 18013674 18022172 18033328 18047316 18064344 
3071.343 18084274 18106762 18131600 18158550 18187812 18219498 18254260 
3074.718 18292204 18333678 18378232 18425036 18472642 18519490 18564480 
3078.093 18607120 18647586 18687190 18726938 18767968 18810144 18852670 
3081.468 18893816 18932060 18965772 18994534 19018144 19037288 19052866 
3084.844 19065746 19076928 19087522 19098982 19112902 19130560 19152826 
3088.219 19179766 19210486 19243492 19277192 19310306 19342662 19374432 
3091.594 19406758 19440054 19475054 19511512 19549150 19587798 19627732 
3094.969 19669368 19713710 19761250 19811846 19865222 19919784 19974146 
3098.344 20027022 20077512 20125262 20170244 20213076 20254248 20294312 
3101.720 20334206 20374832 20416784 20460788 20506638 20553846 20601268 
3105.095 20647862 20692550 20734878 20775264 20814438 20853686 20894396 
3108.470 20937230 20982504 21030182 21079848 21130668 21182050 21233610 
3111.845 21285320 21337520 21390876 21445804 21502620 21561078 21620140 
3115.221 21678232 21733720 21785766 21833948 21879562 21924618 21971390 
3118.596 22022034 22077742 22137952 22201134 22265268 22328156 22388054 
3121.971 22444644 22497926 22548842 22598368 22647026 22695550 22743800 
3125.346 22791918 22840284 22889110 22939058 22990480 23043968 23099526 
3128.722 23156942 23215522 23274072 23331408 23386512 23438300 23486810 
3132.097 23532454 23576460 23620226 23665394 23713580 23765652 23822178 
3135.472 23883260 23948658 24017990 24090202 24164354 24238238 24309892 
3138.847 24377108 24438550 24493760 24543614 24589896 24635412 24682614 
3142.223 24733508 24789388 24850466 24916220 24985952 25058432 25132782 
3145.598 25207712 25282160 25355004 25425754 25494092 25560506 25626052 
3148.973 25692310 25760232 25830696 25903740 25978800 26055070 26131598 
3152.348 26207436 26282126 26355704 26428378 26500746 26573690 26648056 
3155.724 26724830 26804756 26888184 26974802 27063872 27154478 27245594 
3159.099 27336378 27426826 27517330 27608628 27701112 27795452 27891226 
3162.474 27988328 28086230 28184578 28283126 28381908 28480784 28579538 
3165.849 28677930 28775420 28871658 28966006 29058354 29148454 29235770 
3169.225 29320024 29400782 29477158 29548548 29614380 29674048 29727052 
3172.600 29773110 29811542 29842454 29866022 29883200 29894806 29902190 
3175.975 29906272 29908118 29908046 29906662 29904498 29902084 29900132 
3179.350 29899492 29901054 29905136 29911526 29920116 29930232 29941236 
3182.726 29952526 29963816 29974750 29985506 29996156 30007696 30021080 
3186.101 30037378 30057548 30082262 30111132 30143130 30177014 30211432 
3189.476 30245462 30279000 30312254 30346114 30380688 30416188 30451834 
3192.851 30486986 30520540 30551858 30580832 30607246 30631494 30653966 
3196.227 30674946 30695250 30716054 30738958 30765098 30795508 30830082 
3199.602 30867754 30906568 30944602 30980220 31012710 31042248 31069830 
3202.977 31096312 31122436 31148422 31174232 31199830 31225498 31251990 
3206.352 31279798 31309356 31340230 31371284 31401846 31430912 31458448 
3209.728 31484776 31510852 31537074 31563404 31588882 31612508 31633642 
3213.103 31652246 31669314 31686604 31705956 31728022 31752828 31778962 
3216.478 31804878 31829160 31851548 31872158 31892232 31912736 31934672 
3219.853 31958244 31983316 32009710 32037388 32066606 32097712 32130714 
3223.229 32165538 32201398 32237512 32272558 32305968 32337304 32366362 
3226.604 32393530 32419376 32444298 32469184 32494788 32521568 32549710 
3229.979 32578706 32607104 32633498 32656648 32675970 32692190 32707158 
3233.354 32722738 32741316 32763966 32791014 32821852 32855340 32890220 
3236.729 32925748 32961388 32996994 33031776 33065386 33097104 33126496 
3240.105 33154034 33180892 33208396 33237868 33269492 33302796 33336494 
3243.480 33369054 33399292 33427202 33453576 33479630 33506438 33534642 
3246.855 33564064 33594096 33624204 33654388 33684932 33716976 33750784 
3250.230 33786560 33823128 33859520 33894412 33927192 33957860 33987416 
3253.606 34016444 34045972 34075788 34104960 34132740 34157940 34180164 
3256.981 34199700 34217480 34234332 34250968 34267352 34283308 34298152 
3260.356 34311564 34323288 34333688 34343260 34352800 34362772 34373280 
3263.731 34383784 34393400 34400680 34405052 34405916 34403476 34398456 
3267.107 34391960 34385328 34379736 34375644 34373136 34371592 34370304 
3270.482 34367864 34363524 34356100 34345592 34331680 34315112 34296324 
3273.857 34276924 34258248 34241500 34227304 34215400 34204684 34193892 
3277.232 34181416 34166612 34149696 34132200 34116076 34103528 34095932 
3280.608 34093528 34094996 34098764 34102168 34103744 34102168 34097436 
3283.983 34089768 34079948 34068444 34055612 34041564 34026368 34010032 
3287.358 33993008 33975632 33958792 33943276 33930200 33919812 33913076 
3290.733 33910032 33910244 33912936 33916980 33921172 33924720 33927516 
3294.109 33929700 33932208 33936044 33941484 33949260 33958576 33969360 
3297.484 33981008 33993048 34005264 34017088 34028092 34037444 34044576 
3300.859 34048980 34050736 34050736 34050488 34051384 34054608 34060880 
3304.234 34070056 34081236 34093956 34107004 34119944 34133100 34146468 
3307.610 34160376 34175180 34191168 34208304 34226876 34246628 34267100 
3310.985 34288040 34308440 34327592 34344948 34360012 34372848 34383824 
3314.360 34393504 34402076 34410360 34418720 34427184 34436688 34447196 
3317.735 34459036 34472024 34485328 34498244 34509868 34519624 34527804 
3321.111 34534800 34541688 34548540 34555752 34562784 34569172 34574160 
3324.486 34577964 34580832 34583236 34585964 34588868 34591488 34593032 
3327.861 34592208 34588584 34581836 34572400 34560812 34547680 34533220 
3331.236 34517328 34500036 34481096 34460256 34437624 34412660 34384968 
3334.612 34354200 34320168 34283272 34244728 34206508 34170052 34136644 
3337.987 34106536 34078652 34050988 34021208 33987992 33950552 33909280 
3341.362 33864824 33818116 33769692 33719412 33666848 33611104 33551752 
3344.737 33488862 33422764 33354566 33285550 33217088 33150672 33087876 
3348.113 33029988 32977332 32929752 32886002 32843870 32801020 32756392 
3351.488 32708910 32659218 32608890 32559208 32511000 32464508 32418736 
3354.863 32372468 32324776 32275342 32224808 32174386 32125432 32079126 
3358.238 32035678 31995084 31956780 31920582 31886138 31853084 31821422 
3361.614 31790260 31758606 31725560 31690414 31652744 31613402 31573418 
3364.989 31534012 31496386 31461510 31429880 31401560 31376734 31354688 
3368.364 31334996 31316728 31298670 31279228 31257402 31231944 31202604 
3371.739 31169496 31132724 31092858 31050468 31005378 30958050 30908416 
3375.115 30856868 30803618 30748594 30691588 30631708 30568390 30501062 
3378.490 30429266 30353506 30274238 30191826 30106446 30017636 29924126 
3381.865 29825136 29719320 29606540 29486912 29361358 29231094 29097324 
3385.240 28961188 28823820 28686176 28549566 28414840 28282526 28152618 
3388.615 28024024 27895536 27765322 27631792 27494242 27353032 27209468 
3391.991 27065388 26922766 26782976 26646224 26512438 26380700 26250306 
3395.366 26120970 25993010 25867410 25745218 25627282 25513594 25403692 
3398.741 25295786 25187730 25077456 24963384 24844992 24722388 24596802 
3402.116 24469818 24342694 24216762 24091850 23968230 23845140 23722012 
3405.492 23598746 23475688 23353296 23232440 23113994 22998094 22885022 
3408.867 22774634 22666610 22560498 22456262 22352994 22250830 22149528 
3412.242 22049224 21950374 21853322 21758348 21665692 21574938 21485352 
3415.617 21395784 21304980 21212144 21116754 21019020 20919810 20820452 
3418.993 20722366 20627050 20535574 20448040 20364658 20284070 20205162 
3422.368 20126476 20046800 19965508 19883294 19800782 19719328 19640142 
3425.743 19563778 19490128 19418226 19346682 19274352 19200476 19125020 
3429.118 19048332 18971066 18893574 18815852 18737418 18657928 18577100 
3432.494 18495324 18413456 18332708 18254122 18178310 18105726 18035778 
3435.869 17967882 17901272 17835500 17769910 17704504 17639142 17573030 
3439.244 17505998 17437146 17365860 17291652 17214596 17134866 17053254 
3442.619 16971278 16889698 16809614 16731268 16654277 16577644 16500302 
3445.995 16421631 16341839 16261993 16183779 16109465 16040284 15976960 
3449.370 15918903 15864704 15812641 15760893 15708741 15655495 15600538 
3452.745 15543940 15484636 15421804 15354965 15284155 15210371 15135537 
3456.120 15061710 14990845 14923695 14860225 14799746 14740921 14682721 
3459.496 14624598 14566618 14509024 14451506 14394029 14335944 14276634 
3462.871 14215996 14154580 14093311 14033109 13974936 13918582 13863640 
3466.246 13809628 13756067 13702820 13650810 13600688 13553238 13508698 
3469.621 13466589 13425817 13384878 13341961 13295598 13244594 13188336 
3472.997 13126451 13059793 12989528 12917054 12844934 12775078 12708782 
3476.372 12647101 12589931 12536350 12485196 12435311 12385157 12333851 
3479.747 12280096 12223350 12163953 12102962 12042321 11985027 11933495 
3483.122 11889428 11852481 11820475 11789696 11755958 11716436 11670041 
3486.498 11618241 11564030 11511290 11462741 11420048 11382630 11348856 
3489.873 11316682 11284953 11253261 11222182 11191990 11163296 11135385 
3493.248 11107069 11077055 11044663 11010066 10974078 10938703 10905439 
3496.623 10875506 10849415 10826756 10806510 10787794 10769214 10749209 
3499.999 10727269 10702442 10674901 10645766 10616666 10590115 10568759 
3503.374 10554942 10549612 10553211 10564380 10580574 10599316 10617617 
3506.749 10632964 10643388 10647973 10647192 10643015 10638533 10637242 
3510.124 10642132 10655545 10676769 10704175 10734774 10765410 10793534 
3513.500 10818060 10839121 10857195 10873469 10888145 10901124 10911793 
3516.875 10919642 10925112 10929631 10934218 10939824 10946655 10952669 
3520.250 10955217 10951276 10937990 10914137 10880025 10837423 10788983 
3523.625 10736744 10682474 10625291 10564142 10495942 10418284 10329510 
3527.000 10229559 10119965 10003550 9884285 9765797 9650629 9540199 9434097 
3530.858 9331339 9229925 9128502 9025173 8918859 8808513 8693328 8573037 
3534.715 8447744 8318874 8188827 8060405 7936508 7819024 7708654 7604718 
3538.573 7505022 7407707 7310853 7213514 7115558 7017354 6919239 6820912 
3542.430 6721900 6621396 6518729 6413666 6307283 6200523 6095033 5992457 
3546.288 5894507 5802422 5717641 5640329 5570078 5505477 5443670 5381402 
3550.145 5315487 5243578 5164641 5080219 4993434 4908208 4828293 4756767 
3554.002 4694128 4639972 4592285 4548587 4506100 4462177 4414810 4362764 
3557.860 4305603 4244134 4179896 4115668 4053089 3993996 3939258 3888773 
3561.717 3841402 3796410 3752425 3708511 3663599 3615451 3560995 3497092 
3565.575 3421009 3332318 3233898 3132196 3036290 2953983 2890603 2846843 
3569.432 2819629 2802887 2790315 2776643 2758236 2733328 2702353 2666646 
3573.290 2627609 2586776 2545446 2504720 2465264 2427545 2390994 2354880 
3577.147 2317870 2278364 2235165 2188108 2137693 2085086 2032585 1981688 
3581.004 1934425 1892159 1855887 1826106 1801983 1781788 1762159 1738639 
3584.862 1706038 1659537 1597144 1519764 1432458 1343906 1263946 1200845 
3588.719 1159348 1138917 1135429 1142771 1153867 1162206 1163833 1155063 
3592.577 1134565 1102309 1059559 1008577 952786 895741 841591 793290 753226 
3596.916 722392 700123 684591 672976 662290 649249 631961 609762 583086 
3601.256 553757 523866 495503 469962 447506 428170 410923 394275 376499 
3605.595 355441 328416 293335 249173 196297 137925 78435 23824 -22000 -57417 
3610.417 -85378 -109262 -134933 -165638 -201905 -240983 -276680 -303699 
3614.275 -318036 -319824 -313070 -304461 -302408 -312937 -341212 -387793 
3618.132 -449826 -520521 -591338 -653441 -699856 -727213 -735978 -729727 
3621.990 -714080 -694530 -675508 -659529 -646196 -633855 -621017 -608213 
3625.847 -598948 -600867 -623664 -676666 -763829 -879281 -1005744 -1119976 
3629.704 -1200706 -1238340 -1237085 -1209892 -1171562 -1135178 -1108970 
3633.080 -1095750 -1093701 -1098097 -1104277 -1109136 -1112341 -1115118 
3636.455 -1120141 -1129163 -1142184 -1158244 -1175296 -1191653 -1206323 
3639.830 -1219540 -1232029 -1243990 -1255322 -1264969 -1271478 -1274187 
3643.205 -1273130 -1269495 -1265927 -1265333 -1270751 -1284362 -1307487 
3646.581 -1339925 -1380784 -1428838 -1482699 -1541109 -1601724 -1660316 
3649.956 -1710947 -1745963 -1758602 -1745699 -1708571 -1652724 -1586802 
3653.331 -1521761 -1467278 -1431150 -1417312 -1423818 -1443997 -1466023 
3656.706 -1478109 -1472066 -1446011 -1403540 -1352874 -1303919 -1265597 
3660.082 -1244684 -1244518 -1264771 -1300979 -1346763 -1394557 -1437491 
3663.457 -1470151 -1489402 -1493992 -1484251 -1461334 -1427022 -1383525 
3666.832 -1333253 -1279208 -1223307 -1163631 -1092247 -995067 -850876 
3670.207 -638090 -344192 30782 473544 962615 1472086 1973633 2437574 2825465 
3674.547 3093551 3201586 3125521 2871557 2473495 1980057 1434652 870441 
3678.404 313660 -213661 -689898 -1093900 -1413283 -1646189 -1803315 -1902030 
3682.262 -1962429 -2000293 -2023809 -2035714 -2035616 -2024073 -2005241 
3685.637 -1987431 -1979647 -1991355 -2027767 -2088148 -2165633 -2249696 
3689.012 -2329030 -2394939 -2443540 -2473950 -2487227 -2484559 -2467888 
3692.387 -2439817 -2404199 -2366138 -2330612 -2301313 -2279691 -2265123 
3695.763 -2255003 -2246103 -2235687 -2222963 -2209546 -2197447 -2190128 
3699.138 -2190953 -2201535 -2222732 -2252861 -2288887 -2326196 -2359646 
3702.513 -2384823 -2398597 -2399915 -2389173 -2368313 -2340104 -2307081 
3705.888 -2272176 -2237928 -2206744 -2180370 -2161017 -2149148 -2146016 
3709.264 -2151489 -2165270 -2186469 -2214062 -2246268 -2279790 -2310475 
3712.639 -2332722 -2341884 -2335457 -2313409 -2279263 -2238851 -2198832 
3716.014 -2165896 -2144367 -2135663 -2137674 -2146939 -2158907 -2170183 
3719.389 -2180337 -2190326 -2202326 -2217886 -2236379 -2255531 -2272176 
3722.765 -2283844 -2289843 -2291854 -2293271 -2297127 -2305367 -2316507 
3726.140 -2326789 -2331041 -2324186 -2303488 -2270429 -2229456 -2187227 
3729.515 -2151588 -2129365 -2124848 -2139323 -2169655 -2210370 -2254047 
3732.890 -2295281 -2332326 -2367489 -2404495 -2445583 -2488941 -2528209 
3736.266 -2554924 -2561512 -2545700 -2510914 -2464396 -2413458 -2363370 
3739.641 -2315979 -2270462 -2224940 -2180172 -2140905 -2116671 -2119836 
3743.016 -2161182 -2242444 -2350221 -2457280 -2531338 -2552848 -2523202 
3746.391 -2459652 -2385317 -2321055 -2282295 -2275242 -2298314 -2342576 
3749.767 -2395763 -2447395 -2490884 -2524388 -2546985 -2556406 -2549093 
3753.142 -2521686 -2473852 -2409866 -2337665 -2267232 -2206183 -2160457 
3756.517 -2132201 -2120265 -2121617 -2132794 -2151060 -2174139 -2199227 
3759.892 -2221941 -2236313 -2237401 -2222864 -2195271 -2160918 -2129068 
3763.268 -2108197 -2103613 -2115220 -2136784 -2160028 -2175490 -2178589 
3766.643 -2170380 -2156929 -2146840 -2146939 -2161050 -2187425 -2220095 
3770.018 -2250289 -2269968 -2274582 -2263310 -2239247 -2207633 -2174238 
3773.393 -2143543 -2118781 -2101404 -2090588 -2084653 -2081883 -2081190 
3776.769 -2083268 -2090061 -2103481 -2124683 -2152082 -2180732 -2203513 
3780.144 -2214491 -2209842 -2191084 -2163589 -2134904 -2112945 -2102690 
3783.519 -2105790 -2119375 -2138762 -2157918 -2172391 -2180633 -2183073 
3786.894 -2181656 -2178623 -2175326 -2172556 -2170183 -2168237 -2166325 
3790.270 -2164149 -2160852 -2154918 -2145389 -2131442 -2114231 -2096557 
3793.645 -2083004 -2077893 -2084620 -2103152 -2130321 -2158742 -2180370 
3797.020 -2188678 -2181359 -2161380 -2136025 -2115616 -2110999 -2129431 
3800.395 -2173413 -2236313 -2303422 -2355329 -2375761 -2358361 -2308069 
3803.771 -2238225 -2165896 -2108625 -2079904 -2086829 -2126134 -2185941 
3807.146 -2247125 -2290403 -2305070 -2290140 -2252861 -2203348 -2151291 
3810.521 -2102129 -2058008 -2017576 -1978921 -1942539 -1911102 -1890516 
3813.896 -1887745 -1907935 -1950983 -2010188 -2070737 -2116143 -2134838 
3817.271 -2123034 -2087686 -2041684 -2001283 -1980768 -1990927 -2034560 
3820.647 -2104800 -2184919 -2253256 -2293139 -2297193 -2269539 -2221578 
3824.022 -2167347 -2119276 -2085345 -2068528 -2066252 -2071990 -2077662 
3827.397 -2076739 -2066483 -2048180 -2025986 -2004482 -1988156 -1978756 
3830.772 -1976612 -1979317 -1983901 -1986969 -1985550 -1978558 -1965892 
3834.148 -1949796 -1933929 -1923868 -1925385 -1943396 -1980108 -2033439 
3837.523 -2096721 -2159006 -2209282 -2239708 -2247554 -2235192 -2209018 
3840.898 -2177238 -2146939 -2123397 -2108889 -2102855 -2102393 -2102888 
3844.273 -2099821 -2089500 -2070440 -2042937 -2009891 -1974864 -1940790 
3847.649 -1909353 -1880322 -1851388 -1820737 -1787377 -1754147 -1727977 
3851.024 -1720584 -1744577 -1810409 -1919942 -2060382 -2203777 -2318715 
3854.399 -2382516 -2389832 -2351506 -2284372 -2205194 -2125507 -2052303 
3857.774 -1988519 -1934952 -1891770 -1858548 -1835947 -1823409 -1820308 
3861.150 -1825521 -1837432 -1854952 -1878343 -1908034 -1943198 -1980768 
3864.525 -2014376 -2035352 -2037100 -2017246 -1979910 -1935842 -1899028 
3867.900 -1882797 -1896553 -1941186 -2007582 -2077695 -2131706 -2156929 
3871.275 -2151687 -2124947 -2089797 -2059459 -2041882 -2038122 -2042937 
3874.651 -2047521 -2043333 -2025986 -1996237 -1959592 -1924198 -1897840 
3878.026 -1886591 -1893518 -1917468 -1953292 -1992048 -2024073 -2040233 
3881.401 -2035813 -2011375 -1972786 -1929971 -1894277 -1876396 -1883060 
3884.776 -1914335 -1962363 -2012464 -2048708 -2059162 -2040398 -1998447 
3888.152 -1944683 -1892595 -1853467 -1834990 -1838653 -1859966 -1889494 
3891.527 -1916710 -1933203 -1935018 -1922878 -1900479 -1872602 -1842579 
3894.902 -1813511 -1786750 -1763585 -1745072 -1733125 -1729099 -1733488 
3898.277 -1745600 -1763090 -1782328 -1800114 -1814434 -1825323 -1834792 
3901.653 -1845713 -1860626 -1880223 -1902887 -1924660 -1940823 -1947223 
3905.028 -1941087 -1923571 -1896652 -1864387 -1830272 -1797177 -1766687 
3908.403 -1739461 -1715171 -1693422 -1673750 -1656223 -1640247 -1625789 
3911.778 -1612486 -1599644 -1587264 -1575974 -1566697 -1561876 -1563857 
3915.154 -1574158 -1593405 -1620177 -1651173 -1682530 -1710056 -1730914 
3918.529 -1744016 -1749527 -1748273 -1741474 -1730221 -1715270 -1698009 
3921.904 -1680153 -1664475 -1653847 -1650777 -1655959 -1668469 -1684840 
3925.279 -1700782 -1711970 -1715964 -1711970 -1701673 -1687382 -1672001 
3928.655 -1657841 -1646750 -1639521 -1636847 -1638993 -1645958 -1657147 
3932.030 -1671044 -1684807 -1695336 -1699561 -1695930 -1685170 -1669294 
3935.405 -1651998 -1636682 -1625756 -1619880 -1618065 -1618163 -1618229 
3938.780 -1616876 -1614136 -1611825 -1612122 -1617404 -1628430 -1644901 
3942.156 -1664706 -1684906 -1702531 -1715336 -1722795 -1725237 -1724511 
3945.531 -1722762 -1721277 -1720749 -1720914 -1720122 -1716525 -1709099 
3948.906 -1697547 -1682497 -1666291 -1650546 -1637144 -1626977 -1619616 
3952.281 -1614565 -1610901 -1608359 -1607336 -1608425 -1612089 -1617998 
3955.656 -1624865 -1630443 -1632622 -1629684 -1621993 -1610901 -1599083 
3959.032 -1589542 -1584491 -1584689 -1589542 -1597168 -1604761 -1610076 
3962.407 -1610835 -1606312 -1596244 -1581388 -1563065 -1543256 -1523709 
3965.782 -1506573 -1493266 -1484515 -1480024 -1478968 -1479463 -1480057 
3969.157 -1480024 -1478769 -1477217 -1475831 -1475368 -1475996 -1477449 
3972.533 -1479034 -1480321 -1480487 -1479595 -1477812 -1475467 -1472627 
3975.908 -1469193 -1464801 -1458956 -1451427 -1441850 -1430423 -1417312 
3979.283 -1403078 -1388215 -1373352 -1359744 -1348018 -1339298 -1333913 
3982.658 -1332361 -1333880 -1338009 -1343724 -1349967 -1355846 -1360768 
3986.034 -1364566 -1367473 -1369983 -1372989 -1377085 -1382898 -1390230 
3989.409 -1398586 -1406843 -1413151 -1416123 -1414901 -1409485 -1400799 
3992.784 -1390957 -1381544 -1374541 -1371040 -1371139 -1374607 -1380586 
3996.159 -1388050 -1395614 -1402781 -1408494 -1412127 -1413646 -1412986 
3999.535 -1410674 -1407669 -1404894 
##END=
