##TITLE=1111a_2_b
##JCAMP-DX=5.01  $$ Nicolet v. 1
##DATATYPE=INFRARED SPECTRUM
##ORIGIN=UniL
##OWNER=Nicolet
##LONGDATE=2011/09/28
##TIME=15:00:51
##SPECTROMETER/DATA SYSTEM=Nicolet iS5
##DATA PROCESSING=
Ratio against background
%Transmittance->Absorbance
Truncated
ElementMultiply or ElementDivide
##COMMENTS=
Number of sample scans: 32
Collection length: 51.18 sec
Sample gain: 2.0
Background collected on: Mer Sep 28 14:52:02 2011 (GMT+02:00);
Number of background scans: 32
Background gain: 2.0
Sample spacing:  1.000
Number of scan points: 12415
Resolution points: 8192
Number of FFT points: 65536
Apodization: N-B fort;
Phase correction: Mertz;
Laser frequency: 15798.0 cm-1
Number of rejected sample scans: 0
Number of rejected background scans: 0
Bench serial number: ASB1000141;
##RESOLUTION=4.000
##XUNITS=1/CM
##YUNITS=ABSORBANCE
##FIRSTX=649.893372
##LASTX=4000.122314
##FIRSTY=0.071261
##MAXX=4000.122314
##MINX=649.893372
##MAXY=0.265811
##MINY=0.002228
##XFACTOR=1.000000
##YFACTOR=1.000000E-009
##NPOINTS=6950
##DELTAX=0.482117
##ZPD=6100
##XYDATA=(X++(Y..Y))
649.893 71260976 71123288 71034192 71010904 71047736 71121064 71201472 
653.268 71271824 71336096 71416576 71541384 71733248 71997856 72324848 
656.643 72697136 73102392 73542064 74027240 74571536 75178480 75837720 
660.018 76528400 77233272 77948368 78691256 79490360 80376176 81361416 
663.393 82435936 83567584 84717568 85852712 86943680 87963784 88871536 
666.767 89597288 90055240 90180912 89984064 89554976 89018632 88469336 
670.142 87940288 87417976 86866168 86251456 85558872 84799768 84005632 
673.517 83217200 82465264 81761288 81100624 80470088 79861200 79276272 
676.892 78727368 78229128 77790160 77406280 77063064 76740152 76421432 
680.267 76099000 75772632 75446936 75124352 74802848 74475560 74136216 
683.642 73783192 73421352 73061000 72711784 72377688 72056480 71741296 
687.016 71426152 71111152 70804376 70517816 70262560 70041208 69845656 
690.391 69658544 69461264 69239152 68988144 68713728 68428336 68145592 
693.766 67874712 67620704 67386456 67174880 66993020 66850736 66757568 
697.141 66720084 66738708 66807256 66915208 67052096 67210648 67386920 
700.516 67579856 67788608 68010128 68239408 68470584 68699408 68925040 
703.890 69148736 69372152 69593832 69807792 70004648 70175544 70315808 
707.265 70428296 70521632 70608016 70697568 70794824 70899048 71008008 
710.640 71125392 71266592 71460832 71745368 72159088 72723104 73430416 
714.015 74233848 75052912 75780088 76299960 76522904 76397016 75926272 
717.390 75169888 74238296 73273728 72418048 71807520 71543888 71682680 
720.765 72231744 73143336 74320808 75613200 76839680 77813672 78358128 
724.139 78356744 77773592 76669384 75185176 73517416 71875192 70419336 
727.514 69249688 68392656 67815840 67454528 67239400 67119728 67064084 
730.889 67058280 67094556 67162424 67247480 67335376 67417912 67497912 
734.264 67584968 67691056 67820872 67968592 68119656 68258632 68377688 
737.639 68481248 68583832 68704016 68855264 69040312 69251512 69476192 
741.013 69704760 69934464 70170328 70418632 70682320 70957288 71233680 
744.388 71501152 71755880 72003880 72257688 72530488 72828304 73146112 
747.763 73470832 73787320 74085832 74366776 74639408 74915792 75202984 
751.138 75499840 75798552 76090944 76374296 76655192 76945320 77256272 
754.513 77591328 77943616 78298048 78639864 78962480 79270064 79574488 
757.888 79887360 80212624 80543584 80866856 81170448 81451416 81719616 
761.262 81992776 82287176 82609904 82956144 83314576 83676800 84046688 
764.637 84442400 84893216 85428520 86067288 86815744 87668840 88618112 
768.012 89657360 90785952 92010432 93349112 94841256 96564440 98658696 
771.387 101311448 104733376 109092152 114410984 120479552 126776128 
774.279 132550152 136868992 138851456 137961776 134132296 127839688 
777.172 119911600 111375440 103164400 95921592 90010520 85482704 82180592 
780.547 79832288 78160064 76942440 76021864 75313160 74772736 74377472 
783.922 74115344 73983672 73991640 74157632 74504392 75050744 75804896 
787.297 76767432 77940088 79334416 80979960 82921776 85208344 87885120 
790.671 90983936 94524544 98523152 103000480 107984072 113498856 119546544 
794.046 126080048 132970824 140011664 146906368 153271568 158699680 
796.939 162760256 165047280 165261056 163231024 158974144 152695680 
799.832 144779360 135726384 126054408 116286984 106870680 98135416 90325752 
803.206 83574048 77920936 73342888 69767592 67097300 65219500 64027928 
806.581 63425892 63327052 63661964 64364804 65362796 66574528 67895096 
809.956 69199056 70361864 71260576 71797040 71913344 71588696 70840880 
813.331 69716824 68288648 66641464 64863072 63044304 61264256 59584996 
816.706 58053412 56694804 55518948 54525080 53707804 53062272 52586628 
820.081 52280588 52144276 52175696 52371004 52727720 53248088 53941692 
823.455 54827184 55928160 57264740 58847684 60667860 62691376 64850300 
826.830 67044324 69145624 70993032 72420712 73277536 73446352 72880176 
830.205 71610736 69751448 67466168 64949564 62396496 59959752 57752840 
833.580 55840620 54243312 52952284 51939100 51167600 50594280 50174888 
836.955 49869168 49639692 49459388 49313820 49199100 49118400 49076848 
840.329 49075884 49111276 49174348 49255064 49346596 49446128 49554596 
843.704 49673572 49802756 49938932 50077828 50216956 50358060 50507324 
847.079 50673252 50863112 51079896 51321880 51584968 51866136 52166544 
850.454 52492208 52851796 53254268 53704316 54202132 54745012 55330536 
853.829 55959404 56637272 57372272 58173296 59047572 60000224 61036192 
857.204 62163480 63394644 64748324 66246352 67909888 69758296 71806736 
860.578 74066256 76543496 79236936 82130592 85180640 88309608 91401968 
863.953 94297808 96820728 98791328 100044224 100464816 99995080 98647016 
867.328 96499184 93694072 90423992 86892072 83310320 79868560 76708440 
870.703 73934528 71603432 69729120 68295120 67260712 66571280 66157328 
874.078 65942956 65849328 65793380 65702716 65521276 65214648 64776248 
877.452 64223840 63595100 62935664 62294868 61720968 61254448 60932748 
880.827 60788924 60848536 61129860 61638860 62366048 63283808 64348400 
884.202 65506944 66696940 67858912 68943640 69914896 70760000 71491456 
887.577 72149312 72791424 73485824 74298872 75276000 76437080 77771496 
890.952 79244456 80804120 82392832 83960528 85462808 86862448 88128584 
894.327 89229232 90132056 90806656 91222560 91353184 91176816 90674560 
897.701 89834776 88657208 87158064 85374320 83364600 81209152 78994360 
901.076 76808560 74733496 72831552 71149368 69717136 68549768 67652064 
904.451 67019580 66640964 66497096 66563368 66815184 67228600 67787056 
907.826 68482496 69313544 70282232 71389992 72635200 74012824 75516160 
911.201 77139072 78875936 80719720 82656920 84666424 86718512 88779544 
914.575 90822584 92834288 94822048 96812320 98849824 100990112 103288328 
917.950 105801096 108577776 111653480 115044024 118731664 122657608 
920.843 126707896 130728080 134542384 137972976 140893312 143250912 
923.736 145090272 146545904 147832128 149221904 150985152 153379184 
926.628 156606736 160773056 165866416 171718896 178012688 184234464 
929.521 189721648 193766800 195639648 194771264 190871648 183980128 
932.414 174493104 163075216 150587584 137882752 125706808 114659120 
935.306 105099112 97199536 90982624 86363496 83206168 81359536 80689152 
938.681 81065600 82350576 84384888 86942952 89731656 92423592 94653696 
942.056 96097208 96531952 95856216 94122592 91509704 88299616 84801008 
945.431 81298720 78030888 75144640 72709000 70729112 69167624 67966376 
948.806 67062148 66401452 65938404 65635180 65462792 65395220 65410784 
952.181 65493612 65631560 65816900 66045136 66312164 66613540 66943808 
955.555 67297192 67668944 68057136 68462440 68887136 69334144 69805072 
958.930 70299528 70815608 71350584 71902368 72470896 73056640 73660760 
962.305 74283184 74922720 75576880 76243792 76922928 77615416 78324000 
965.680 79050992 79796888 80560056 81337320 82125704 82924384 83735624 
969.055 84564120 85415296 86293200 87198600 88130088 89085248 90062824 
972.429 91064552 92094144 93156456 94255000 95390952 96562784 97768704 
975.804 99008072 100282792 101597384 102955912 104360752 105810904 107303072 
979.179 108833680 110402712 112014232 113677088 115401040 117193008 
982.072 119055160 120983416 122969704 125002984 127071872 129161792 
984.964 131251144 133310008 135295424 137155120 138837088 140293968 
987.857 141493024 142421872 143087136 143513296 143736512 143805856 
990.750 143777024 143708144 143660672 143687376 143828160 144107360 
993.643 144531232 145092448 145775904 146567248 147456320 148438320 
996.535 149511840 150674768 151921584 153244864 154635872 156088736 
999.428 157600800 159170272 160791248 162449648 164119280 165765744 
1002.321 167353168 168849280 170234064 171502048 172660080 173723776 
1005.213 174715488 175664208 176602800 177571552 178615712 179776000 
1008.106 181085920 182564736 184214416 186024192 187976144 190054928 
1010.999 192249728 194556000 196970592 199487328 202093968 204774592 
1013.891 207512640 210297856 213125328 215991360 218884992 221778592 
1016.784 224620912 227345088 229874976 232137488 234080784 235676416 
1019.677 236924080 237848032 238497728 238947040 239285168 239622000 
1022.570 240072400 240735392 241690032 242976064 244592624 246502448 
1025.462 248644576 250948848 253336992 255732800 258057296 260220464 
1028.355 262131952 263704448 264864416 265569712 265811200 265612336 
1031.249 265016912 264083184 262875824 261457504 259895200 258252448 
1034.142 256576624 254891040 253177040 251371568 249363280 247013696 
1037.035 244185280 240749824 236620928 231758352 226166256 219892912 
1039.928 213024464 205685616 198022144 190199056 182388448 174738480 
1042.821 167376400 160397264 153857168 147788432 142203008 137098592 
1045.714 132465408 128286216 124537912 121190048 118208008 115556832 
1048.607 113202184 111114704 109271008 107649360 106230016 104992128 
1051.500 103912088 102967080 102136296 101401992 100751536 100173312 
1054.393 99653880 99175448 98713384 98237568 97717912 97125768 96438808 
1057.768 95644024 94736488 93720384 92608512 91424104 90200160 88976816 
1061.144 87802736 86726120 85790016 85031592 84475200 84135232 84016968 
1064.519 84118584 84432136 84943224 85632272 86471112 87424376 88454952 
1067.894 89524144 90597240 91647912 92654776 93602032 94476728 95266120 
1071.269 95959488 96549576 97035192 97422200 97723512 97957936 98146928 
1074.645 98313520 98482672 98678368 98922424 99231328 99609952 100049184 
1078.020 100522896 100994336 101419488 101757096 101978872 102069776 
1080.913 102029040 101864784 101590184 101220448 100773256 100275224 
1083.806 99764968 99294664 98934416 98762176 98858056 99302576 100161048 
1087.181 101481464 103286272 105563328 108256760 111254624 114400680 
1090.074 117484256 120260400 122499688 123994560 124606552 124289528 
1092.967 123090176 121143584 118639864 115817832 112916880 110146784 
1095.860 107686384 105651096 104093664 103007408 102331600 101963752 
1098.753 101766392 101596040 101308968 100774600 99899024 98624104 96937184 
1102.129 94869416 92492432 89906176 87216224 84530664 81940920 79511256 
1105.504 77286472 75288968 73525112 71992416 70683688 69589704 68699984 
1108.879 68004352 67491448 67148848 66963948 66922388 67006200 67194448 
1112.254 67459088 67764672 68073336 68343904 68538632 68629544 68598344 
1115.630 68438392 68153528 67755256 67260784 66690028 66066816 65415600 
1119.005 64760060 64123512 63525216 62980404 62501056 62094820 61765504 
1122.380 61511676 61324808 61187076 61069332 60936520 60749672 60475072 
1125.755 60094812 59610268 59045372 58439356 57843268 57307616 56871644 
1129.131 56562568 56391024 56353296 56434756 56613600 56863716 57154824 
1132.506 57456944 57742548 57988652 58183484 58326444 58429840 58514528 
1135.881 58606592 58732508 58912496 59160404 59480452 59868352 60310388 
1139.256 60785156 61266392 61722384 62121844 62438500 62651836 62750792 
1142.632 62733144 62603152 62369184 62041880 61634008 61159040 60632504 
1146.007 60071068 59489724 58900616 58310532 57719688 57123040 56512640 
1149.382 55881088 55223888 54541012 53836396 53117460 52392648 51670384 
1152.757 50959344 50267580 49602436 48971244 48379480 47830252 47324428 
1156.133 46860448 46435796 46048284 45697044 45383312 45109688 44878892 
1159.508 44693244 44553892 44460904 44413848 44411096 44450116 44525844 
1162.883 44629528 44749104 44868640 44970680 45039000 45058520 45017724 
1166.258 44908396 44724276 44462188 44121620 43706156 43223112 42684492 
1169.634 42105320 41500380 40883464 40265928 39655376 39058112 38480564 
1173.009 37930036 37416068 36949380 36539928 36196432 35924900 35728468 
1176.384 35609444 35569668 35611244 35737320 35950924 36254924 36652216 
1179.759 37146044 37740788 38442480 39257800 40192976 41253164 42440440 
1183.135 43756140 45202484 46784496 48512100 50399736 52463156 54716824 
1186.510 57168692 59816176 62641880 65609744 68666176 71730744 74703864 
1189.885 77474080 79919744 81935640 83445096 84410440 84840528 84785624 
1193.260 84328480 83560344 82572760 81443336 80222264 78937648 77595368 
1196.635 76187520 74700672 73125096 71460680 69720368 67928920 66117392 
1200.011 64320920 62570660 60889748 59294572 57793792 56391140 55088980 
1203.386 53889848 52796900 51813716 50941536 50177864 49515380 48943204 
1206.761 48447008 48011916 47625256 47275692 46954024 46653252 46367292 
1210.136 46091832 45825604 45570952 45334504 45126452 44959912 44848548 
1213.512 44805012 44841344 44967632 45193400 45527600 45978036 46550744 
1216.887 47249312 48074540 49025432 50100288 51298460 52620552 54067912 
1220.262 55641448 57340244 59161924 61104152 63167028 65355204 67678200 
1223.637 70149848 72784144 75591824 78577440 81736656 85055448 88506176 
1227.013 92048728 95624912 99153376 102538984 105668840 108420472 110682648 
1230.388 112354648 113360504 113660768 113253960 112186360 110547792 
1233.281 108479416 106158456 103774048 101531240 99617328 98189000 97382016 
1236.656 97295656 98000448 99547024 101962872 105255640 109404624 114359064 
1240.031 120025640 126257792 132873576 139639504 146280240 152514464 
1242.925 158039472 162566304 165861664 167752496 168164432 167126480 
1245.818 164768912 161299312 156967184 152063104 146873872 141662992 
1248.711 136673824 132082912 127991272 124412800 121268552 118398104 
1251.604 115579656 112590672 109232704 105376744 100992656 96144912 90980544 
1254.979 85683736 80460232 75493840 70915072 66806676 63192128 60048772 
1258.354 57319792 54931248 52806592 50870080 49060672 47333036 45656040 
1261.729 44014500 42404052 40827476 39290332 37799092 36359356 34975944 
1265.105 33654068 32399778 31219268 30118378 29100514 28165594 27310018 
1268.480 26528112 25814310 25164172 24574994 24045514 23573452 23154916 
1271.855 22784340 22455042 22162010 21902280 21675862 21483228 21324712 
1275.230 21197984 21099152 21023122 20966334 20928296 20911606 20920576 
1278.606 20959554 21030982 21134876 21269626 21431948 21617772 21820848 
1281.981 22029982 22228648 22395520 22506128 22540012 22485050 22341552 
1285.356 22121982 21849384 21552584 21258734 20991580 20769564 20604152 
1288.731 20503164 20470686 20508026 20612942 20780164 21001700 21267642 
1292.107 21568114 21893952 22235660 22582346 22921208 23236668 23513320 
1295.482 23739648 23910006 24027548 24102566 24150624 24187126 24225662 
1298.857 24276466 24345986 24439426 24560898 24712918 24895342 25102662 
1302.232 25324832 25546238 25749860 25920762 26047048 26121182 26139798 
1305.608 26100668 26003706 25850424 25646262 25401654 25131836 24855798 
1308.983 24591614 24353452 24149992 23984268 23855710 23763868 23709414 
1312.358 23695242 23724322 23797500 23912352 24064006 24246824 24457338 
1315.733 24695346 24963070 25263440 25597266 25962372 26353874 26767118 
1319.109 27199768 27652554 28128650 28630112 29155540 29698846 30249796 
1322.484 30796468 31330046 31845450 32343730 32831360 33320040 33826676 
1325.859 34371484 34979536 35675372 36477112 37389880 38397560 39461968 
1329.234 40521420 41504348 42342976 42982672 43396420 43586972 43585584 
1332.610 43441900 43217004 42975976 42775420 42665084 42683908 42856304 
1335.985 43194420 43697616 44355976 45153912 46075544 47109104 48246644 
1339.360 49482592 50809440 52215044 53681296 55185136 56697564 58185720 
1342.735 59609932 60918072 62051396 62945128 63534460 63770896 63625136 
1346.111 63092156 62188372 60947312 59414000 57636212 55668904 53570820 
1349.486 51402436 49231684 47128124 45155420 43372216 41820984 40525276 
1352.861 39491576 38711392 38167336 37835708 37690952 37703676 37837844 
1356.236 38054404 38311420 38568404 38795108 38971476 39089108 39149220 
1359.612 39159084 39130476 39078048 39024580 39002176 39049952 39213808 
1362.987 39535088 40040928 40743688 41640940 42722368 43975044 45385296 
1366.362 46934236 48585168 50280788 51936000 53439456 54679168 55550012 
1369.737 55972824 55908900 55357560 54356816 52972612 51302080 49463880 
1373.113 47582772 45792280 44207892 42908896 41933624 41276592 40905160 
1376.488 40777500 40862056 41147548 41644696 42381620 43398508 44743336 
1379.863 46462416 48597176 51168756 54159340 57485048 60973696 64385944 
1383.238 67412728 69731104 71070760 71224432 70098904 67730672 64312548 
1386.614 60177164 55734296 51420148 47569536 44367024 41855244 39966448 
1389.989 38581076 37565900 36809536 36224672 35746780 35334540 34960360 
1393.364 34608996 34277212 33970580 33700400 33477518 33308056 33190940 
1396.739 33119988 33085194 33076114 33083730 33099748 33118092 33134148 
1400.115 33145056 33149098 33144772 33130858 33106684 33073396 33036318 
1403.490 33005248 32995634 33025912 33111334 33261154 33475048 33744588 
1406.865 34057188 34400680 34767880 35156412 35566972 36000492 36454296 
1410.240 36922292 37396528 37869908 38339720 38807316 39276296 39749044 
1413.615 40224528 40698200 41164744 41620628 42065708 42503104 42935668 
1416.991 43363392 43783844 44194432 44600664 45018640 45476972 46004444 
1420.366 46615772 47308352 48063396 48857432 49670040 50495900 51348504 
1423.741 52258576 53263332 54394332 55669812 57091708 58654112 60350324 
1427.116 62178544 64135724 66205524 68351704 70507056 72581432 74484680 
1430.492 76141600 77514800 78610440 79475168 80181136 80806552 81431152 
1433.867 82126904 82964048 84025656 85407344 87208568 89510016 92329904 
1437.242 95612520 99247352 103103480 107048920 110943128 114637472 117940784 
1440.617 120629088 122496704 123366000 123139360 121810552 119453176 
1443.510 116197472 112194768 107612560 102605168 97301464 91822624 86283296 
1446.886 80813856 75586616 70792760 66611996 63171512 60508816 58584144 
1450.261 57309392 56592768 56359448 56558116 57155124 58113972 59387900 
1453.636 60931376 62701328 64676524 66864380 69283616 71940680 74791512 
1457.011 77728656 80603864 83282864 85688416 87796456 89615168 91164480 
1460.387 92471272 93565000 94475904 95231784 95848040 96324344 96647416 
1463.762 96802304 96790712 96640592 96406248 96144960 95891424 95648240 
1467.137 95386864 95065560 94638952 94068680 93320120 92349328 91094992 
1470.512 89478912 87424904 84903528 81978968 78829456 75692672 72784576 
1473.888 70225944 68027920 66135296 64482680 63038752 61821280 60886812 
1477.263 60296832 60099648 60313588 60934196 61952984 63373560 65217344 
1480.638 67518768 70308600 73596896 77364312 81567864 86155352 91077296 
1484.013 96304456 101819504 107599312 113601200 119726128 125793248 
1486.906 131554128 136676688 140781360 143506192 144538624 143703488 
1489.800 141023584 136747872 131305024 125180112 118825440 112549880 
1492.693 106502360 100725328 95184304 89826752 84634608 79639120 74931384 
1496.068 70641264 66889264 63746184 61213284 59242768 57761356 56699828 
1499.443 56009984 55659944 55629172 55899288 56447204 57242328 58249184 
1502.818 59418976 60691828 61993376 63209220 64184004 64716408 64576552 
1506.194 63592568 61742280 59187552 56191752 52993048 49732384 46461976 
1509.569 43193580 39941672 36736080 33637452 30720642 28047598 25661516 
1512.944 23573206 21765454 20205684 18855924 17680312 16644636 15720833 
1516.319 14890056 14143798 13486105 12927055 12473227 12119249 11844036 
1519.695 11611605 11382937 11129028 10847785 10566688 10329103 10166771 
1523.070 10082660 10053226 10041628 10015214 9955135 9863642 9759562 9668653 
1526.927 9608012 9578880 9569192 9563638 9553205 9539521 9531867 9539624 
1530.785 9563942 9594598 9611433 9592498 9527328 9424955 9314413 9228335 
1534.642 9188094 9193103 9226406 9263265 9282085 9270509 9224240 9146335 
1538.500 9042122 8915984 8770510 8611598 8454434 8322589 8239004 8215197 
1542.357 8244711 8307019 8375856 8431088 8466022 8489504 8519509 8573307 
1546.214 8657531 8765201 8879865 8983836 9066278 9126674 9174422 9222107 
1550.072 9278497 9342004 9401659 9441514 9449843 9422923 9367565 9297690 
1553.929 9228572 9170700 9125456 9086207 9042224 8983159 8899750 8784000 
1557.787 8630592 8441562 8234040 8040456 7897704 7827289 7829009 7886973 
1561.644 7977679 8077249 8164415 8225125 8255382 8262271 8260886 8268046 
1565.501 8294861 8341301 8398455 8452914 8494606 8520590 8536743 8553909 
1569.359 8584696 8636744 8710839 8803341 8910607 9030721 9163119 9305849 
1573.216 9453941 9597172 9724287 9827104 9908013 9983207 10080083 10227557 
1577.074 10440175 10717283 11048912 11426341 11847373 12318818 12852852 
1580.449 13461872 14153861 14929182 15780959 16696282 17659882 18649764 
1583.824 19636016 20580562 21434664 22149074 22685252 23021888 23163758 
1587.199 23141076 23009588 22838748 22705920 22690942 22860714 23267640 
1590.575 23943548 24891764 26082618 27445568 28879130 30246672 31396360 
1593.950 32191836 32518748 32313462 31573206 30357412 28775986 26961758 
1597.325 25058536 23188328 21441140 19880136 18537264 17421904 16526734 
1600.700 15834084 15321326 14965911 14752336 14672062 14722891 14906207 
1604.076 15222520 15668444 16235370 16906992 17657880 18453420 19242626 
1607.451 19961900 20543702 20919498 21036790 20868668 20416714 19712774 
1610.826 18813362 17795800 16737603 15707470 14756449 13908559 13167467 
1614.201 12522436 11956451 11452365 10999156 10595785 10249676 9972222 
1617.577 9772338 9650765 9599645 9604523 9646767 9707278 9768611 9816971 
1621.434 9845407 9854524 9852389 9850660 9858693 9880793 9915200 9956830 
1625.292 10000566 10044036 10087476 10131632 10176302 10219824 10259413 
1628.667 10293850 10324624 10356316 10394290 10442279 10500185 10563667 
1632.042 10624305 10672218 10697993 10693816 10655579 10584377 10488169 
1635.417 10381937 10284587 10213751 10179253 10181967 10214938 10267453 
1638.792 10327135 10382446 10426633 10457281 10478631 10498047 10523540 
1642.168 10559185 10603084 10647600 10681319 10693443 10675818 10626717 
1645.543 10551309 10462509 10376745 10310475 10276783 10282313 10327610 
1648.918 10407661 10514069 10633202 10745847 10828556 10852234 10791020 
1652.293 10638839 10428499 10228168 10101753 10074081 10126104 10222944 
1655.669 10331071 10429824 10509928 10569370 10610181 10635579 10647226 
1659.044 10644645 10626139 10589979 10534980 10461830 10372164 10269320 
1662.419 10158020 10045562 9940388 9851474 9785148 9742958 9721170 9710666 
1666.277 9699213 9673328 9621732 9538269 9424786 9290379 9149414 9017223 
1670.134 8905264 8818624 8757357 8718040 8694106 8676460 8654050 8613862 
1673.991 8544650 8442204 8314247 8180993 8065806 7986150 7945249 7933371 
1677.849 7933371 7928578 7909311 7874725 7832789 7795207 7770649 7758640 
1681.706 7748049 7718165 7646870 7519888 7343337 7146714 6972772 6854134 
1685.564 6796712 6785773 6798294 6814988 6822494 6814820 6790856 6752422 
1689.421 6703123 6647403 6591253 6542140 6506453 6488022 6486071 6492831 
1693.279 6495085 6477091 6425671 6337138 6223076 6109448 6025448 5986813 
1697.136 5989971 6015066 6036232 6027397 5970251 5862802 5724692 5591861 
1700.993 5497625 5457057 5463097 5498262 5543465 5583973 5610791 5619283 
1704.851 5610992 5591961 5571555 5558332 5558433 5573367 5600755 5636234 
1708.708 5674904 5713948 5752793 5793691 5839562 5893264 5955471 6024709 
1712.566 6097654 6170813 6242303 6311553 6378763 6442990 6500130 6543486 
1716.423 6565451 6562188 6537734 6504973 6481026 6478941 6503493 6550549 
1720.281 6610765 6673781 6731524 6780220 6819936 6853259 6883353 6912405 
1724.138 6940752 6967856 6993412 7018095 7043553 7070730 7098818 7125090 
1727.995 7145063 7155506 7155809 7149274 7140853 7134689 7130108 7120037 
1731.853 7091005 7026681 6915233 6757638 6575038 6402469 6275515 6211547 
1735.710 6205464 6237463 6284726 6328497 6355361 6359093 6340130 6304628 
1739.568 6262505 6223950 6196255 6182845 6182743 6192961 6209363 6228421 
1743.425 6247110 6264691 6282103 6301635 6325741 6355899 6391439 6430379 
1747.282 6469019 6503998 6533563 6557176 6575408 6588898 6597275 6599798 
1751.140 6596568 6589638 6582540 6579210 6581396 6586745 6588932 6578200 
1754.997 6545000 6483078 6393423 6284524 6170779 6067009 5981001 5913080 
1758.855 5855480 5797888 5730265 5647546 5550815 5447226 5347319 5260615 
1762.712 5193511 5147909 5121589 5110526 5109520 5113107 5115119 5110291 
1766.570 5094601 5068385 5036003 5005635 4985592 4980530 4988575 5002250 
1770.427 5011333 5006842 4985491 4953182 4923389 4910990 4925668 4967694 
1774.284 5030540 5104189 5179864 5252701 5321323 5386904 5450246 5510745 
1778.142 5565749 5612167 5647848 5673528 5692462 5709348 5728183 5750141 
1781.999 5773040 5793523 5807828 5814074 5813637 5809238 5804906 5804067 
1785.857 5808231 5818070 5833349 5854036 5879997 5909890 5940960 5967598 
1789.714 5982849 5979825 5953489 5903777 5835935 5759811 5685647 5621230 
1793.572 5569273 5528061 5493598 5461754 5430216 5397639 5363622 5327964 
1797.429 5290230 5249682 5206455 5161656 5116494 5073112 5032718 4995479 
1801.286 4961125 4929388 4900903 4877547 4861899 4855533 4858683 4869371 
1805.144 4884048 4899362 4912900 4924294 4934917 4946211 4958980 4972587 
1809.001 4985122 4994741 5001210 5006439 5013881 5026920 5048272 5077370 
1812.859 5112303 5149821 5188045 5226307 5265612 5308007 5354632 5405992 
1816.716 5460815 5516987 5572730 5626332 5676918 5723617 5765418 5801246 
1820.573 5830025 5851484 5865992 5874288 5876538 5872037 5859511 5837581 
1824.431 5807324 5772335 5738826 5712706 5697766 5693066 5693738 5691790 
1828.288 5680041 5655367 5620256 5583705 5556419 5547727 5560950 5592834 
1832.146 5636603 5685009 5733756 5781837 5831637 5886144 5947308 6015134 
1836.003 6087607 6162511 6239177 6319453 6406605 6504435 6614869 6737177 
1839.861 6868440 7004087 7139775 7272238 7399416 7519956 7634595 7745621 
1843.718 7856809 7974811 8106515 8256732 8426156 8610550 8802292 8991514 
1847.575 9168500 9326498 9462102 9574884 9666214 9737638 9789249 9819208 
1851.433 9825512 9806871 9763731 9699112 9616752 9519878 9409921 9286757 
1855.290 9149651 8998990 8837357 8669531 8501364 8337585 8180622 8030229 
1859.148 7885050 7743866 7607213 7477312 7356750 7247339 7148634 7058673 
1863.005 6974994 6897188 6826869 6767835 6723481 6695013 6679972 6672671 
1866.863 6666043 6655209 6639597 6623381 6613692 6616787 6634988 6665740 
1870.720 6703022 6740172 6771773 6795467 6810949 6818926 6820306 6815291 
1874.577 6804184 6787658 6767196 6744547 6721227 6696629 6668667 6633474 
1878.435 6588461 6532453 6467473 6397727 6327354 6259951 6196255 6134349 
1882.292 6071579 6006231 5938810 5871836 5809037 5753733 5706629 5666814 
1886.150 5631937 5599916 5570548 5544639 5524236 5510812 5504638 5504672 
1890.007 5510141 5520645 5537357 5561856 5594780 5635227 5680041 5725363 
1893.865 5768373 5808735 5848428 5891450 5940960 5997866 6059987 6123428 
1897.722 6184289 6241597 6296862 6353377 6414002 6479580 6547758 6614028 
1901.579 6674152 6726274 6771268 6812463 6853495 6896347 6940820 6984658 
1905.437 7025200 7060862 7091678 7118420 7140920 7157931 7166116 7162579 
1909.294 7146545 7120745 7090634 7062243 7039646 7022910 7008498 6991022 
1913.152 6966206 6933581 6895741 6857197 6821315 6787961 6753600 6713520 
1917.009 6664730 6608612 6551727 6502887 6467775 6446656 6432733 6416255 
1920.866 6387169 6340836 6278943 6209733 6143624 6089051 6049504 6023264 
1924.724 6005055 5990341 5977205 5966455 5960409 5960275 5965179 5971931 
1928.581 5977541 5980598 5981640 5983487 5987418 5992961 5996354 5992457 
1932.439 5977676 5952347 5920907 5890107 5866328 5851719 5843458 5836607 
1936.296 5826196 5810682 5793623 5782173 5782811 5798627 5827573 5863406 
1940.154 5899209 5930177 5955606 5978650 6003006 6029983 6057366 6080248 
1944.011 6094327 6098259 6095201 6090194 6089555 6096713 6111297 6130653 
1947.868 6152429 6175585 6202304 6235950 6277969 6326312 6375367 6418138 
1951.726 6449346 6467943 6477125 6482472 6487753 6492798 6493706 6484558 
1955.583 6462192 6428261 6389422 6354823 6332431 6324194 6325942 6330010 
1959.441 6330212 6324833 6318008 6317537 6328934 6353814 6387034 6421131 
1963.298 6448639 6468078 6483515 6501239 6527038 6561347 6599562 6633138 
1967.156 6656454 6667725 6671863 6675430 6683337 6695047 6705680 6708103 
1971.013 6699085 6681621 6664730 6660626 6677920 6718904 6779244 6852989 
1974.870 6937857 7038367 7164803 7327634 7527744 7752906 7976296 8165090 
1978.728 8292902 8344779 8321981 8238395 8114483 7968939 7816123 7665890 
1982.585 7524642 7397765 7291983 7212099 7160727 7134622 7125898 7125292 
1986.443 7124483 7120475 7114918 7112223 7114682 7121688 7128222 7128660 
1990.300 7119768 7104544 7091139 7090937 7112560 7158436 7223890 7299901 
1994.157 7376869 7447817 7510280 7564425 7610619 7647106 7670240 7676614 
1998.015 7665181 7639922 7608225 7578687 7557581 7545443 7538161 7528013 
2001.872 7508056 7475693 7431941 7381554 7329150 7277730 7228371 7182319 
2005.730 7142301 7114075 7104038 7116568 7150284 7196737 7242690 7274698 
2009.587 7286794 7280257 7264286 7251180 7251112 7267150 7295083 7327432 
2013.445 7356008 7376835 7390923 7401775 7413302 7427256 7443839 7462783 
2017.302 7487188 7522114 7574979 7650781 7747948 7857349 7965969 8059730 
2021.159 8128898 8172653 8196220 8208782 8218101 8227657 8236201 8240659 
2025.017 8238801 8230122 8217392 8202839 8185113 8161444 8127210 8079915 
2028.874 8023208 7966711 7923483 7905396 7917882 7958781 8019799 8090346 
2032.732 8162322 8234445 8308707 8388286 8473253 8558640 8636609 8699447 
2036.589 8743970 8771997 8790593 8807262 8827483 8851830 8877599 8901475 
2040.447 8920820 8936616 8951194 8966381 8981434 8992495 8993882 8981805 
2044.304 8956335 8921869 8885885 8856057 8838033 8834347 8844695 8867014 
2048.161 8898330 8933741 8964724 8980250 8965502 8908172 8802968 8655267 
2052.019 8481734 8306377 8155299 8048118 7992191 7981493 7999178 8026077 
2055.876 8046397 8053113 8047949 8037148 8027022 8019833 8014366 8006400 
2059.734 7993473 7975925 7957633 7943831 7938938 7943528 7955676 7971672 
2063.591 7988817 8006299 8025470 8047376 8070835 8093519 8111275 8120525 
2067.448 8121302 8116677 8111714 8110905 8115428 8122551 8127446 8124678 
2071.306 8111411 8088624 8060100 8030026 8001169 7973832 7946024 7916431 
2075.163 7884713 7852559 7822735 7796691 7772842 7747341 7714792 7671285 
2079.021 7617262 7557648 7499358 7449266 7411516 7385497 7367264 7351964 
2082.878 7336631 7321669 7309774 7303877 7304888 7310819 7316514 7315570 
2086.736 7303641 7279078 7243633 7200746 7152979 7102220 7048267 6991022 
2090.593 6931326 6871806 6816536 6770360 6736471 6716516 6710526 6717895 
2094.450 6738086 6770763 6814887 6867598 6923414 6975600 7017118 7043687 
2098.308 7055070 7054733 7048402 7040724 7034629 7029881 7025200 7019643 
2102.165 7014997 7015131 7025435 7049244 7086491 7133274 7183700 7231875 
2106.023 7274462 7311762 7346067 7380340 7415695 7450783 7482907 7510011 
2109.880 7531991 7551917 7573697 7601346 7635842 7675130 7713949 7747577 
2113.738 7772504 7787920 7795780 7798951 7800166 7801144 7802628 7805395 
2117.595 7810927 7821419 7838389 7862175 7890989 7920884 7947712 7968635 
2121.452 7983282 7993406 8001574 8009067 8015007 8016053 8008256 7989559 
2125.310 7960940 7925575 7887850 7850939 7813424 7771290 7717625 7646768 
2129.167 7557075 7451727 7337709 7224463 7121351 7034696 6968664 6926040 
2133.025 6907962 6915031 6946039 6996409 7057293 7116972 7164028 7190606 
2136.882 7195086 7181881 7159985 7137956 7121586 7113099 7111010 7112324 
2140.740 7115692 7121688 7131354 7144996 7161097 7175212 7183195 7183027 
2144.597 7176660 7170192 7170024 7181005 7202329 7228809 7252595 7266948 
2148.454 7269172 7261321 7247844 7232178 7215198 7193234 7161569 7115423 
2152.312 7054296 6980045 6896886 6807145 6711838 6611202 6510052 6422140 
2156.169 6373013 6395407 6523035 6776182 7151295 7615273 8115023 8593280 
2160.027 8999734 9307507 9512190 9627219 9674853 9678207 9657472 9625797 
2163.884 9591718 9558828 9528311 9498405 9465658 9426208 9377213 9318441 
2167.741 9253043 9185894 9122141 9065094 9014652 8968005 8921768 8873642 
2171.599 8824102 8776190 8734537 8703199 8684945 8680246 8687885 8706478 
2175.456 8732576 8761652 8786333 8798201 8788564 8752185 8691266 8615451 
2179.314 8541440 8487984 8468658 8489234 8544278 8620960 8702658 8776696 
2183.171 8836241 8881048 8914091 8938307 8953934 8959920 8954441 8939727 
2187.029 8921599 8908307 8908003 8924033 8954002 8990127 9023685 9047332 
2190.886 9059715 9063640 9065737 9070981 9081436 9095004 9107861 9116185 
2194.743 9118756 9117268 9114020 9111753 9110094 9107557 9100925 9088643 
2198.601 9071083 9050817 9030992 9013468 8997873 8982313 8964689 8944768 
2202.458 8923865 8905872 8894407 8890923 8893968 8900156 8906413 8910945 
2206.316 8914936 8921362 8933504 8952513 8977374 9003556 9026966 9044288 
2210.173 9053862 9056670 9054403 9047941 9037860 9024463 9009341 8995878 
2214.031 8989180 8993950 9012352 9042021 9076733 9109045 9132224 9143357 
2217.888 9144304 9139838 9135067 9132427 9131547 9128841 9121159 9107286 
2221.745 9089522 9072233 9060594 9056603 9058801 9063031 9064079 9058192 
2225.603 9044964 9026493 9006466 8987082 8969290 8951430 8932388 8911384 
2229.460 8890145 8871748 8859236 8853994 8854975 8858864 8861806 8861502 
2233.318 8857139 8849700 8840739 8830763 8819097 8805098 8788193 8770780 
2237.175 8756343 8749818 8754348 8770205 8794482 8821802 8847062 8866608 
2241.032 8880237 8889300 8896707 8904147 8911757 8918318 8922951 8925387 
2244.890 8927315 8930393 8935906 8942399 8946627 8943516 8929783 8904519 
2248.747 8870091 8831608 8794482 8762903 8739135 8723922 8717194 8719832 
2252.605 8734098 8761719 8802800 8854400 8909321 8958703 8994118 9009950 
2256.462 9005316 8983531 8950416 8911452 8870802 8830357 8791100 8753842 
2260.320 8720913 8695357 8680888 8679536 8691233 8713678 8743395 8776696 
2264.177 8811151 8846014 8881421 8917743 8954407 8990398 9023888 9053456 
2268.034 9078424 9099266 9116828 9132191 9146403 9160311 9174625 9190260 
2271.892 9207216 9224984 9241975 9255853 9264348 9266278 9262960 9257714 
2275.749 9255040 9259237 9272709 9295117 9322605 9350332 9373625 9389843 
2279.607 9398815 9402235 9403115 9404233 9407382 9413679 9423872 9438533 
2283.464 9458411 9483234 9511884 9541283 9567737 9587721 9598933 9601678 
2287.322 9598019 9591989 9586671 9584232 9584808 9587112 9589483 9591244 
2291.179 9592701 9595614 9602117 9613398 9629693 9650019 9672651 9696063 
2295.036 9718934 9741263 9762579 9783149 9802500 9820055 9835340 9848152 
2298.894 9858626 9867066 9874217 9879743 9883132 9883539 9880489 9873574 
2302.751 9863405 9850762 9836798 9822563 9809006 9796738 9786537 9779150 
2306.609 9774880 9773795 9775083 9777862 9780709 9783013 9784741 9787147 
2310.466 9791655 9799450 9810769 9824596 9839340 9852796 9863710 9871472 
2314.323 9876929 9881471 9886522 9893301 9902725 9915234 9931268 9951473 
2318.181 9976222 10005584 10039458 10077437 10119457 10165515 10215210 
2321.556 10267182 10317803 10360627 10387028 10388114 10356724 10290728 
2324.931 10193398 10074317 9945710 9821275 9712496 9626406 9564857 9525770 
2328.789 9504468 9495798 9495256 9500234 9508803 9519742 9531935 9544603 
2332.646 9557609 9571631 9588128 9608452 9633555 9662385 9693386 9724423 
2336.504 9753734 9781149 9807448 9834358 9862829 9893166 9923573 9952457 
2340.361 9977816 9999109 10016367 10030303 10041391 10048647 10050241 
2343.736 10044578 10031388 10013145 9995583 9986428 9993820 10023827 
2347.112 10079235 10159241 10259888 10375625 10499506 10625460 10747273 
2350.487 10860083 10960790 11048300 11123793 11190155 11251492 11311683 
2353.862 11373277 11437940 11505948 11577880 11653874 11734580 11820781 
2357.237 11912210 12007575 12104939 12201880 12297480 12391942 12487106 
2360.613 12584508 12685003 12786749 12886642 12980446 13064813 13138369 
2363.988 13202408 13259625 13313022 13364308 13413753 13459343 13498922 
2367.363 13530539 13552828 13565578 13568518 13561134 13543188 13514440 
2370.738 13476227 13432173 13387031 13346745 13316883 13301679 13303046 
2374.114 13322213 13359421 13415257 13491061 13588073 13707265 13848315 
2377.489 14009839 14189327 14384405 14593345 14815344 15050596 15298913 
2380.864 15559187 15828516 16102690 16375832 16642157 16895934 17132178 
2384.239 17347030 17537496 17701258 17837054 17944432 18024174 18077434 
2387.615 18105900 18111322 18095018 18058612 18003486 17931484 17844958 
2390.990 17746164 17637312 17519452 17392620 17256864 17111602 16957946 
2394.365 16798352 16637165 16479479 16330693 16195541 16077382 15978679 
2397.740 15901238 15846318 15815081 15807934 15824875 15864428 15924161 
2401.115 16001401 16093509 16199255 16318789 16453359 16604461 16773211 
2404.491 16959772 17163544 17383102 17617230 17865052 18125796 18399212 
2407.866 18685012 18983182 19293334 19615806 19950798 20297958 20656480 
2411.241 21023366 21393834 21761830 22119786 22460102 22776482 23063396 
2414.616 23316688 23533644 23712250 23851964 23953246 24018270 24049998 
2417.992 24052238 24029264 23984478 23920370 23838978 23741890 23630372 
2421.367 23506292 23371512 23228314 23078980 22925678 22771280 22619172 
2424.742 22473570 22339632 22222686 22127246 22056684 22012868 21995926 
2428.117 22005514 22041312 22103506 22192696 22309810 22455774 22630654 
2431.493 22834416 23066156 23325010 23610010 23920090 24253338 24608058 
2434.868 24981528 25371970 25778516 26201560 26643052 27105876 27592458 
2438.243 28104788 28644198 29211212 29806646 30431896 31089192 31780280 
2441.618 32506532 33267736 34062636 34888900 35744336 36627304 37536884 
2444.994 38472024 39430652 40409660 41404324 42409204 43419160 44429928 
2448.369 45438748 46443060 47440200 48427228 49399792 50353412 51283656 
2451.744 52186944 53059464 53896936 54693672 55442520 56134812 56760956 
2455.119 57312644 57782136 58162080 58446444 58628512 58701100 58657976 
2458.495 58493336 58203868 57788532 57248752 56587668 55809684 54920232 
2461.870 53925896 52834396 51655644 50400780 49081632 47711188 46301524 
2465.245 44864012 43410884 41953296 40503600 39074968 37680004 36331648 
2468.620 35041812 33819404 32671720 31602994 30615352 29708888 28882034 
2471.996 28132044 27454250 26842644 26289978 25788430 25330452 24909518 
2475.371 24520052 24157944 23819658 23501814 23200876 22913594 22637288 
2478.746 22370296 22112640 21865100 21629368 21406574 21197078 21000518 
2482.121 20815446 20641086 20476940 20323234 20180760 20050202 19932100 
2485.497 19825994 19731638 19648428 19575632 19513142 19460604 19417188 
2488.872 19382296 19354962 19334174 19320214 19313424 19314500 19324650 
2492.247 19343910 19372006 19408178 19451594 19501704 19558474 19621596 
2495.622 19691278 19766244 19844792 19924608 20003046 20078274 20149038 
2498.998 20214744 20275670 20331358 20382022 20427654 20469088 20507506 
2502.373 20544918 20583654 20625762 20672082 20722644 20776272 20831018 
2505.748 20885634 20938518 20988764 21035224 21076510 21111014 21136720 
2509.123 21152236 21156306 21148652 21129868 21100266 21060650 21011264 
2512.499 20952286 20883860 20806026 20718892 20622602 20517232 20402476 
2515.874 20278654 20146328 20007418 19864944 19722552 19584054 19452842 
2519.249 19331058 19219628 19118824 19028668 18948914 18879904 18821458 
2522.624 18773088 18733752 18701650 18674876 18652254 18632990 18617564 
2526.000 18607016 18602036 18603316 18611028 18625278 18645752 18673146 
2529.375 18707358 18748386 18795336 18846614 18900392 18955250 19011394 
2532.750 19070730 19135408 19208234 19290458 19381118 19477584 19576118 
2536.125 19673388 19767458 19858772 19949064 20041284 20137480 20238800 
2539.500 20345040 20455474 20569340 20686016 20805644 20928224 21053170 
2542.876 21179544 21305642 21429686 21550252 21666948 21779772 21889142 
2546.251 21995648 22099600 22200926 22299694 22396286 22490912 22584406 
2549.626 22676908 22767894 22856454 22941014 23020316 23094214 23162430 
2553.001 23226322 23287180 23346268 23404100 23460892 23516050 23568554 
2556.377 23616868 23659448 23694086 23718898 23732336 23733070 23720962 
2559.752 23696396 23660496 23614524 23559354 23495414 23423088 23342666 
2563.127 23255056 23161416 23063674 22963754 22863438 22764332 22668042 
2566.502 22576100 22490494 22413068 22345354 22288182 22241134 22203052 
2569.878 22171844 22146216 22125294 22109640 22100854 22100366 22109536 
2573.253 22128538 22156918 22193428 22237404 22287938 22345180 22408636 
2576.628 22477930 22551808 22628664 22707316 22786574 22866476 22947754 
2580.003 23031392 23118430 23209160 23303614 23401618 23502550 23606792 
2583.379 23713788 23823472 23934374 24045304 24154370 24260698 24364210 
2586.754 24466242 24568226 24671814 24777600 24884816 24991638 25096062 
2590.129 25196474 25292238 25383950 25472622 25559662 25645382 25729926 
2593.504 25812798 25893998 25973804 26053204 26133322 26215530 26300784 
2596.880 26389540 26482502 26580560 26684840 26796896 26918290 27049414 
2600.255 27190314 27339906 27496714 27659512 27827988 28001828 28181468 
2603.630 28367194 28558874 28755806 28957258 29162486 29371106 29583130 
2607.005 29798590 30017068 30237648 30458942 30678750 30894862 31104994 
2610.381 31306506 31497064 31674128 31834972 31977430 32099638 32200400 
2613.756 32279484 32337520 32375038 32393172 32392706 32374858 32340802 
2617.131 32292366 32231410 32160044 32080412 31994232 31902968 31808194 
2620.506 31711764 31615612 31522076 31433120 31350344 31274278 31205206 
2623.882 31142656 31086594 31037194 30995772 30963496 30941792 30931614 
2627.257 30933038 30945918 30969902 31004488 31049936 31106490 31174196 
2630.632 31252984 31341940 31439852 31545840 31658660 31777926 31903322 
2634.007 32034464 32170712 32311104 32454368 32599316 32745458 32892972 
2637.383 33042360 33194982 33351236 33511378 33674584 33839712 34005264 
2640.758 34169944 34332504 34492360 34649044 34802232 34951956 35098428 
2644.133 35241784 35382708 35521912 35660052 35798088 35936636 36076452 
2647.508 36218476 36363680 36513148 36668224 36829768 36998484 37174664 
2650.884 37358608 37549784 37747876 37952600 38163212 38379532 38601432 
2654.259 38829060 39062968 39304008 39552872 39810196 40076136 40350460 
2657.634 40632524 40921872 41217456 41519044 41826312 42138504 42454836 
2661.009 42773628 43093272 43412092 43728836 44042808 44354360 44664120 
2664.385 44973036 45281688 45590748 45900656 46212108 46526252 46843988 
2667.760 47166496 47494828 47829440 48170116 48517028 48869776 49228380 
2671.135 49592704 49962128 50335516 50710748 51085556 51457300 51824024 
2674.510 52184740 52538912 52885892 53225316 53555860 53875516 54182952 
2677.885 54477524 54760536 55035272 55306448 55579948 55861268 56155664 
2681.261 56467244 56798904 57153348 57532632 57938256 58371468 58832584 
2684.636 59321424 59837128 60378272 60943616 61531568 62140692 62769628 
2688.011 63416264 64078732 64755476 65445184 66147640 66863140 67592200 
2691.386 68335296 69092048 69862312 70645008 71439744 72246496 73065736 
2694.762 73897952 74743648 75602592 76473704 77355360 78245912 79143976 
2698.137 80048368 80958072 81872376 82790248 83710872 84633200 85556576 
2701.512 86480048 87402456 88322072 89235712 90138832 91026920 91893568 
2704.887 92733280 93540016 94307568 95029344 95697928 96305360 96844536 
2708.263 97309296 97695712 98002496 98230216 98381544 98459136 98465624 
2711.638 98403064 98272920 98076192 97813648 97485808 97092832 96634672 
2715.013 96111472 95523416 94871592 94157568 93384408 92555408 91674624 
2718.388 90746384 89775824 88768040 87729816 86668192 85590784 84506232 
2721.764 83422088 82346088 81285776 80248248 79240480 78269560 77341344 
2725.139 76460944 75632248 74857168 74136992 73471968 72862472 72308880 
2728.514 71811976 71372256 70990104 70664888 70395136 70179056 70014272 
2731.889 69898968 69831456 69810472 69835112 69903800 70014928 70166320 
2735.265 70355200 70578616 70833200 71114776 71419000 71740600 72073424 
2738.640 72411504 72749112 73080792 73402168 73709296 73999152 74269264 
2742.015 74517880 74744512 74949768 75136056 75306376 75464200 75613000 
2745.390 75755384 75893248 76028224 76161896 76295856 76432568 76573648 
2748.766 76720896 76874752 77035240 77201728 77373616 77551872 77738440 
2752.141 77936552 78150704 78385232 78645312 78935064 79258576 79619496 
2755.516 80020600 80464104 80950336 81478560 82045688 82647024 83277048 
2758.891 83928000 84592816 85262448 85927496 86578640 87205768 87799248 
2762.267 88350576 88851944 89296584 89678872 89993240 90235688 90402936 
2765.642 90493896 90509808 90454560 90334768 90157952 89932672 89667096 
2769.017 89368624 89044216 88700608 88343880 87980504 87616496 87257016 
2772.392 86906520 86568528 86245432 85939456 85651760 85383352 85134328 
2775.768 84903328 84688208 84484656 84287600 84090400 83885392 83664224 
2779.143 83418112 83138512 82817992 82451360 82036480 81574536 81070240 
2782.518 80530784 79964000 79378256 78780784 78177520 77573824 76974440 
2785.893 76383624 75805528 75243808 74700952 74178312 73676152 73193720 
2789.269 72730272 72285000 71857784 71448456 71057216 70683800 70327808 
2792.644 69988808 69665320 69356024 69059152 68772024 68491688 68214704 
2796.019 67936896 67654312 67363544 67061416 66745468 66413848 66064536 
2799.394 65695964 65306484 64894968 64460808 64004316 63525752 63026376 
2802.770 62506640 61967428 61409528 60833940 60242552 59638020 59023660 
2806.145 58404140 57783572 57167144 56559628 55966112 55391816 54841768 
2809.520 54320768 53832908 53380928 52966584 52590408 52251812 51950300 
2812.895 51684828 51454652 51258752 51095548 50963184 50859052 50780948 
2816.271 50726572 50695480 50687808 50705124 50749588 50823144 50927380 
2819.646 51062900 51229744 51427276 51654452 51910160 52193036 52501332 
2823.021 52833048 53186180 53558000 53945704 54346336 54755724 55169220 
2826.396 55581228 55984732 56373104 56738752 57074592 57374424 57632204 
2829.771 57842852 58002284 58107348 58156324 58149280 58088180 57976612 
2833.147 57819492 57622440 57392088 57134264 56855556 56561852 56258316 
2836.522 55949564 55638512 55326512 55013832 54699196 54381264 54058792 
2839.897 53731276 53399028 53062872 52723908 52382892 52040648 51697444 
2843.272 51354024 51011548 50671872 50337076 50009640 49691400 49383608 
2846.648 49087012 48801444 48526328 48260976 48004480 47755904 47514640 
2850.023 47280236 47052564 46832252 46620240 46418172 46227736 46050568 
2853.398 45888204 45741844 45612868 45502508 45412040 45342852 45295296 
2856.773 45268668 45260616 45267348 45283712 45303976 45322256 45333764 
2860.149 45333948 45319788 45288676 45239212 45171044 45084620 44981964 
2863.524 44865996 44740840 44611280 44481868 44357332 44241752 44138636 
2866.899 44050948 43980800 43930056 43899520 43889804 43900732 43931928 
2870.274 43982780 44052120 44138236 44238856 44351280 44472868 44601512 
2873.650 44736432 44878856 45031508 45198364 45383676 45590380 45820080 
2877.025 46072084 46344692 46635508 46942176 47263424 47598372 47946200 
2880.400 48306076 48676076 49053624 49435848 49819740 50202452 50581664 
2883.775 50955060 51320160 51674340 52014580 52337960 52642436 52926236 
2887.151 53189212 53431252 53653776 53857776 54045472 54219548 54382992 
2890.526 54539992 54695068 54853160 55019472 55199508 55398816 55623180 
2893.901 55878868 56171540 56506792 56888116 57316428 57788268 58295792 
2897.276 58825260 59356560 59866336 60327904 60713892 61001644 61174868 
2900.652 61226140 61158392 60984600 60725208 60402872 60041960 59663864 
2904.027 59284848 58917656 58570456 58248652 57955444 57693048 57462656 
2907.402 57264212 57097568 56961624 56855744 56779608 56733580 56717872 
2910.777 56732032 56774548 56841960 56929664 57032196 57143520 57258808 
2914.153 57373668 57484476 57588088 57681432 57761092 57823736 57866400 
2917.528 57886916 57884608 57860756 57818244 57761508 57696756 57629820 
2920.903 57566828 57513112 57471920 57444768 57431000 57427748 57430432 
2924.278 57433044 57429108 57411676 57374240 57311436 57219720 57098100 
2927.654 56948136 56774924 56585824 56389592 56196356 56015412 55854256 
2931.029 55719680 55616140 55546772 55513788 55518644 55561912 55643560 
2934.404 55763228 55919940 56112340 56339000 56598088 56887432 57204412 
2937.779 57545228 57905656 58281124 58667120 59059796 59456476 59855004 
2941.155 60253480 60649688 61039244 61415712 61770128 62090040 62361992 
2944.530 62571160 62703168 62746504 62693752 62543608 62301064 61978512 
2947.905 61594028 61167700 60721436 60275212 59843364 59436264 59057936 
2951.280 58707892 58382084 58074884 57780396 57493176 57208948 56924792 
2954.656 56638516 56348960 56055260 55757240 55454640 55147780 54837108 
2958.031 54523840 54208812 53893296 53578088 53263592 52950188 52637836 
2961.406 52326968 52018536 51714276 51417088 51130288 50857600 50602512 
2964.781 50368296 50157448 49972276 49814424 49685424 49585908 49515456 
2968.156 49472344 49452668 49451144 49460832 49474092 49483856 49483632 
2971.532 49468484 49435772 49384796 49317052 49236100 49147336 49057036 
2974.907 48971280 48894696 48828216 48768040 48704692 48623668 48506656 
2978.282 48332668 48083312 47743476 47304472 46765788 46134904 45427564 
2981.657 44664120 43869500 43069748 42287968 41544892 40856016 40231144 
2985.033 39676356 39194224 38786308 38453992 38199680 38025576 37931444 
2988.408 37912352 37955640 38037328 38125116 38179492 38156696 38019900 
2991.783 37741948 37312316 36738784 36047324 35277320 34472236 33676012 
2995.158 32924500 32240580 31635568 31109338 30654820 30260240 29914294 
2998.534 29607214 29330942 29079610 28848464 28633084 28429662 28234716 
3001.909 28045830 27861726 27681936 27506986 27337400 27173700 27015774 
3005.284 26863792 26717254 26575840 26439750 26309056 26184384 26066082 
3008.659 25954986 25851550 25756118 25668794 25589112 25516052 25448380 
3012.035 25384652 25324270 25266918 25213258 25164558 25122286 25087392 
3015.410 25060608 25042248 25032280 25030772 25037686 25053026 25076230 
3018.785 25105820 25139174 25173160 25203674 25227200 25240860 25242266 
3022.160 25230080 25203182 25160906 25102732 25028910 24940960 24841658 
3025.536 24735542 24627836 24523840 24428174 24343568 24270788 24208668 
3028.911 24155072 24106594 24060012 24012598 23961858 23906122 23844684 
3032.286 23777202 23704130 23626488 23545642 23463202 23381198 23301620 
3035.661 23226810 23159144 23100960 23054068 23019512 22997222 22986182 
3039.037 22984332 22989466 22999948 23014412 23032718 23055150 23082194 
3042.412 23114098 23150618 23190670 23233174 23276658 23319660 23360952 
3045.787 23399520 23434000 23463692 23487790 23506362 23519794 23529306 
3049.162 23536162 23541306 23545432 23548160 23548756 23546096 23538576 
3052.538 23525144 23504928 23477086 23441448 23398158 23347980 23292216 
3055.913 23233102 23173158 23114868 23060460 23011056 22967214 22928088 
3059.288 22892498 22859072 22826418 22793348 22759270 22723656 22686510 
3062.663 22648354 22609816 22571806 22535614 22502252 22472592 22447156 
3066.039 22426362 22410206 22399008 22392588 22390844 22393322 22399112 
3069.414 22407206 22416522 22426430 22436514 22447260 22459682 22474512 
3072.789 22492622 22514048 22538790 22566572 22597460 22631248 22668424 
3076.164 22708748 22751972 22797330 22843530 22889284 22933574 22975738 
3079.540 23015772 23053612 23089288 23122658 23153344 23181024 23205596 
3082.915 23227092 23245722 23261906 23275574 23286972 23296342 23304068 
3086.290 23311128 23318890 23328924 23342316 23359414 23380148 23403436 
3089.665 23428616 23454982 23482682 23512236 23543928 23577684 23612740 
3093.041 23647972 23682122 23714314 23744794 23774682 23805446 23838698 
3096.416 23875454 23915888 23959372 24004894 24051574 24098574 24145440 
3099.791 24191888 24237608 24282246 24325418 24367120 24407390 24446438 
3103.166 24484752 24522436 24559742 24596734 24633624 24671078 24709936 
3106.542 24751256 24795560 24843064 24892920 24943838 24994270 25042986 
3109.917 25089322 25133274 25175090 25215752 25255680 25295470 25335790 
3113.292 25377276 25420624 25466648 25515806 25567886 25622044 25677020 
3116.667 25731788 25785512 25838398 25890866 25943906 25998112 26053204 
3120.042 26108620 26163514 26216940 26268892 26319336 26369398 26419610 
3123.418 26470388 26521420 26572176 26622162 26671028 26719334 26767752 
3126.793 26817268 26868446 26921568 26976426 27031818 27087112 27141390 
3130.168 27193914 27244570 27293260 27340364 27386698 27433286 27481570 
3133.543 27532614 27587302 27645562 27706656 27769418 27832190 27893910 
3136.919 27953768 28011618 28067778 28122534 28176482 28229942 28283338 
3140.294 28337520 28393122 28451384 28512698 28577204 28644446 28713008 
3143.669 28781226 28848038 28913056 28976382 29039046 29102142 29166312 
3147.044 29232050 29299322 29367492 29436416 29506062 29576176 29647512 
3150.420 29720064 29793586 29867584 29941342 30014300 30085814 30155954 
3153.795 30225250 30294490 30364874 30437690 30513894 30594376 30679034 
3157.170 30767444 30858504 30950792 31043316 31135288 31226744 31318400 
3160.545 31411036 31505614 31602424 31701430 31801742 31902432 32002792 
3163.921 32102208 32200650 32298576 32396312 32494142 32591994 32689440 
3167.296 32785908 32880712 32972612 33060812 33144518 33223454 33297214 
3170.671 33366050 33430170 33489760 33544734 33594352 33637344 33672792 
3174.046 33699360 33716796 33725284 33726180 33721132 33711892 33700468 
3177.422 33688332 33676480 33666024 33658112 33653424 33652704 33656104 
3180.797 33662732 33671576 33681028 33689800 33697284 33703764 33709924 
3184.172 33717588 33727688 33741220 33758160 33777964 33799488 33821768 
3187.547 33844084 33866004 33887928 33910140 33933212 33957428 33983228 
3190.923 34010676 34039952 34071168 34104388 34139764 34177224 34216192 
3194.298 34255772 34294708 34331144 34363700 34391388 34414092 34432812 
3197.673 34449388 34465996 34484648 34506784 34532648 34561492 34591956 
3201.048 34622276 34651412 34678544 34703272 34726172 34747960 34768956 
3204.424 34790384 34813148 34837596 34864344 34892996 34922868 34952456 
3207.799 34980468 35005860 35028344 35049000 35069148 35090736 35115092 
3211.174 35142396 35171820 35201648 35229960 35255620 35278040 35297628 
3214.549 35315524 35332380 35348952 35364912 35380116 35394280 35407400 
3217.925 35420196 35433540 35448168 35464888 35483764 35504548 35527056 
3221.300 35550860 35576176 35603076 35631996 35662748 35694980 35728076 
3224.675 35761316 35793912 35825252 35855444 35884452 35912736 35940596 
3228.050 35968636 35996924 36025616 36054132 36081780 36107920 36132192 
3231.426 36154660 36175908 36197404 36220636 36246892 36276644 36309820 
3234.801 36345092 36380864 36415708 36448676 36479200 36507600 36534700 
3238.176 36561012 36587432 36614724 36643852 36675576 36710912 36749816 
3241.551 36791540 36834348 36875432 36912620 36944080 36969440 36990112 
3244.927 37008768 37028576 37051888 37080252 37113456 37150592 37190044 
3248.302 37230292 37270580 37310296 37349328 37387536 37424408 37459152 
3251.677 37491084 37519764 37545304 37568392 37590176 37611636 37633752 
3255.052 37657272 37682136 37708080 37734716 37760920 37786076 37809540 
3258.427 37830828 37850136 37868100 37885744 37903824 37922948 37943092 
3261.803 37963340 37982760 37999720 38013280 38022900 38028580 38030928 
3265.178 38030712 38029084 38026372 38023188 38019824 38016284 38012592 
3268.553 38008540 38003916 37998600 37992448 37985400 37977336 37968332 
3271.928 37958060 37946272 37932496 37916188 37897384 37876708 37855052 
3275.304 37833720 37814168 37796924 37782032 37768876 37756152 37742848 
3278.679 37728396 37712744 37696772 37681704 37668620 37658576 37651712 
3282.054 37647844 37646288 37646288 37646684 37646180 37643940 37639208 
3285.429 37631436 37620996 37608600 37595452 37582624 37571172 37561524 
3288.805 37553612 37546676 37540176 37533784 37527460 37521388 37516620 
3292.180 37513552 37512612 37513988 37517632 37523048 37529808 37537468 
3295.555 37545340 37553396 37561632 37570124 37579444 37590428 37603328 
3298.930 37618288 37634688 37651672 37667864 37682244 37694024 37703744 
3302.306 37712492 37721672 37732912 37747224 37764864 37785572 37808420 
3305.681 37832420 37856460 37880180 37903064 37925264 37946996 37968440 
3309.056 37990208 38012232 38034656 38057260 38079720 38101784 38123088 
3312.431 38143564 38163460 38182892 38201992 38220844 38239152 38256484 
3315.807 38272840 38288292 38303420 38319016 38335812 38353760 38372584 
3319.182 38391188 38408632 38423980 38437088 38448708 38459712 38470972 
3322.557 38483316 38496424 38510036 38523324 38535780 38547476 38558520 
3325.932 38569528 38580608 38591324 38600960 38608636 38613780 38615808 
3329.308 38614756 38610992 38604616 38596072 38585172 38572208 38557360 
3332.683 38540632 38522528 38503228 38482304 38459604 38434876 38407620 
3336.058 38378120 38346996 38315000 38282648 38250116 38216972 38182924 
3339.433 38147004 38109128 38069196 38027672 37984240 37939364 37892436 
3342.809 37842616 37789804 37733600 37674184 37612252 37548196 37482160 
3346.184 37414184 37344528 37273180 37200980 37129332 37059500 36993108 
3349.559 36930696 36871968 36816316 36762292 36709252 36656684 36604160 
3352.934 36551604 36498988 36445468 36390052 36332516 36272968 36212496 
3356.310 36153184 36097084 36045924 36000060 35958732 35920188 35882144 
3359.685 35843208 35802656 35760884 35718936 35678072 35639440 35603292 
3363.060 35569308 35536836 35505012 35473660 35442632 35412544 35384180 
3366.435 35358300 35335256 35315128 35296764 35279120 35260396 35238976 
3369.811 35213716 35184540 35151884 35116924 35081004 35045192 35009456 
3373.186 34973504 34936264 34896300 34852600 34804492 34751440 34693872 
3376.561 34631500 34564684 34493400 34418000 34338708 34256240 34170808 
3379.936 34082492 33990680 33894552 33792684 33684000 33567788 33444200 
3383.312 33313528 33177208 33035960 32891188 32743816 32594922 32445546 
3386.687 32296792 32149408 32004290 31860996 31718754 31576198 31431910 
3390.062 31284642 31134112 30980896 30826204 30671922 30519794 30370382 
3393.437 30223936 30079848 29936800 29793338 29648540 29501982 29354622 
3396.813 29207950 29063810 28924282 28790538 28662462 28538916 28417672 
3400.188 28296248 28171850 28043392 27910270 27773588 27634898 27496150 
3403.563 27358538 27223156 27090216 26959184 26829850 26701750 26574712 
3406.938 26448450 26322822 26197512 26072450 25947670 25823452 25700220 
3410.313 25578816 25459904 25343730 25230254 25118986 25009606 24901764 
3413.689 24795456 24690996 24589054 24489868 24393370 24298996 24205796 
3417.064 24112338 24017708 23921070 23821828 23720474 23617776 23514790 
3420.439 23413052 23313576 23217340 23124966 23036352 22951178 22868852 
3423.814 22788984 22710808 22634740 22560360 22487738 22416662 22346506 
3427.190 22276290 22205110 22131920 22055952 21976966 21894720 21809456 
3430.565 21721632 21631700 21540258 21448310 21356660 21266146 21177666 
3433.940 21091674 21008168 20926904 20847948 20770850 20695850 20623296 
3437.315 20553082 20484996 20418346 20351810 20283446 20212280 20137134 
3440.691 20058216 19976680 19894394 19813408 19735590 19661670 19591368 
3444.066 19523366 19455512 19385414 19311796 19233932 19152652 19069726 
3447.441 18987474 18908214 18833882 18765096 18701684 18642744 18587234 
3450.816 18534292 18483118 18433160 18383692 18334058 18282942 18229208 
3454.192 18171540 18109630 18043828 17974890 17904482 17833740 17764214 
3457.567 17696532 17631480 17568788 17508550 17450356 17393828 17337856 
3460.942 17281342 17223214 17163060 17100710 17037162 16974104 16912642 
3464.317 16853978 16798490 16745593 16693976 16642226 16588900 16533481 
3467.693 16475970 16416607 16356496 16296428 16237536 16180133 16125558 
3471.068 16073670 16024264 15976720 15929662 15881544 15831301 15778486 
3474.443 15723480 15667586 15612387 15559531 15510217 15464824 15423005 
3477.818 15384212 15347139 15310206 15272349 15231784 15187038 15137252 
3481.194 15082636 15024390 14965432 14909327 14858647 14815482 14779554 
3484.569 14748805 14720012 14689644 14655132 14615173 14570558 14522351 
3487.944 14472881 14423657 14376150 14330944 14288756 14250063 14215449 
3491.319 14185596 14160435 14139313 14121206 14104332 14087287 14069113 
3494.695 14049673 14029105 14008162 13987665 13968434 13950847 13935655 
3498.070 13923339 13914306 13908661 13905856 13905069 13904453 13902401 
3501.445 13897645 13889742 13879342 13868498 13859774 13855601 13858338 
3504.820 13869011 13887313 13912014 13940719 13970624 13998684 14022706 
3508.196 14041733 14055936 14067538 14079209 14093824 14113539 14139382 
3511.571 14170670 14206069 14243660 14281942 14320294 14358376 14396256 
3514.946 14434310 14471854 14507825 14541640 14572409 14599856 14624665 
3518.321 14647524 14669046 14689301 14707844 14723234 14733826 14737939 
3521.697 14733860 14721143 14699207 14668223 14628675 14581249 14526394 
3525.072 14464694 14396187 14320534 14237259 14146159 14047209 13941301 
3528.447 13830082 13715199 13598842 13482448 13366767 13252382 13139086 
3531.822 13026161 12913163 12798829 12681693 12560360 12433401 12299866 
3535.198 12160171 12016091 11869916 11725286 11585299 11451684 11325423 
3538.573 11206236 11093439 10985970 10883864 10786639 10693884 10605122 
3541.948 10518991 10434167 10349021 10262704 10174233 10083610 9990904 
3545.323 9896453 9800364 9703822 9607978 9514594 9425903 9343256 9266752 
3549.181 9195236 9125930 9055519 8981670 8902795 8820077 8736126 8654050 
3553.038 8577295 8508020 8446798 8393016 8345186 8301784 8260650 8219925 
3556.896 8177684 8131667 8080050 8021993 7957735 7889673 7820710 7755065 
3560.753 7696613 7648050 7610417 7583678 7565774 7552861 7540353 7522215 
3564.610 7491841 7443805 7374510 7284536 7179321 7068541 6964388 6876721 
3568.468 6811218 6767499 6740677 6722707 6705815 6684683 6655612 6618637 
3572.325 6574702 6526566 6476284 6426007 6377451 6331792 6290138 6253194 
3576.183 6220051 6189970 6160697 6130081 6096209 6058744 6018292 5976970 
3580.040 5937299 5901358 5870829 5846346 5827976 5814980 5806753 5801481 
3583.897 5796679 5788822 5772805 5743661 5698102 5634689 5556251 5469572 
3587.755 5384085 5309449 5252768 5216649 5199715 5197166 5202599 5209339 
3591.612 5211821 5205348 5187744 5158572 5119712 5074487 5027221 4982173 
3595.470 4942659 4910085 4884082 4862637 4843002 4821927 4796934 4766549 
3599.327 4730772 4691215 4650856 4613516 4582574 4560441 4548420 4545808 
3603.185 4550730 4560641 4572729 4584181 4592352 4594595 4588166 4570318 
3607.042 4539279 4494650 4439413 4378461 4318721 4266452 4225263 4194550 
3610.899 4170763 4148417 4122626 4091184 4055764 4021518 3995100 3981757 
3614.757 3983229 3996939 4016335 4032588 4037771 4025130 3991454 3938054 
3618.614 3870051 3795407 3723015 3661193 3614649 3585549 3572487 3572219 
3622.472 3580705 3594670 3611943 3632625 3657284 3686856 3720341 3753695 
3626.329 3779530 3787017 3765526 3707943 3616554 3505443 3396530 3312686 
3630.187 3266847 3258801 3278365 3311250 3344071 3366477 3374190 3367746 
3634.044 3351952 3332886 3315090 3300533 3288814 3277630 3264744 3249688 
3637.901 3233330 3217541 3204523 3195444 3190337 3188234 3187733 3188468 
3641.759 3190838 3196379 3206392 3222248 3243178 3266914 3289682 3306643 
3645.616 3313354 3305841 3282504 3242811 3189069 3125354 3056344 2988011 
3649.474 2926528 2877928 2848410 2842040 2859917 2899175 2953515 3014135 
3653.331 3070392 3112405 3132062 3125388 3093951 3046133 2995384 2955817 
3657.188 2938170 2945776 2975300 3017939 3063017 3101059 3124687 3130427 
3661.046 3118513 3092549 3058179 3021809 2989346 2965425 2953249 2954650 
3664.903 2970162 2999455 3040995 3091882 3148149 3204389 3256264 3302436 
3668.761 3347711 3403643 3490512 3630386 3838962 4121422 4470378 4870377 
3672.618 5300963 5739833 6163688 6541165 6835217 7008060 7030621 6897324 
3676.476 6626846 6253833 5814208 5337692 4850105 4374344 3933674 3551140 
3680.333 3242043 3011966 2853980 2753234 2691451 2652711 2627542 2611609 
3684.190 2604442 2605708 2612842 2620409 2621709 2609742 2580209 2533714 
3688.048 2475094 2412384 2354247 2306311 2270937 2247788 2235365 2232135 
3691.905 2236997 2248688 2265141 2283627 2301281 2315904 2326597 2334026 
3695.763 2340289 2348284 2360643 2378067 2399990 2423713 2445238 2459899 
3699.620 2464398 2456067 2435141 2404821 2369872 2336791 2311374 2297117 
3703.478 2295218 2304612 2322433 2345652 2371871 2399423 2427145 2454268 
3707.335 2479860 2502454 2520916 2533548 2538880 2536347 2525449 2506686 
3711.192 2481992 2454534 2429010 2411052 2405554 2415250 2439873 2475761 
3715.050 2517017 2556778 2588409 2608042 2614842 2611275 2601808 2591642 
3718.907 2584242 2580576 2579443 2578676 2576343 2571510 2565110 2558111 
3722.765 2550912 2542813 2531348 2513951 2488790 2456467 2420481 2386630 
3726.622 2361610 2351515 2359744 2385630 2425612 2473695 2522716 2565543 
3730.479 2596275 2611775 2612075 2601175 2585042 2569143 2555711 2542880 
3734.337 2525482 2498555 2459766 2412384 2364841 2327830 2309242 2311974 
3738.194 2333393 2368339 2411485 2459766 2511885 2567777 2625509 2679682 
3742.052 2719190 2729693 2697018 2615442 2496122 2367673 2268838 2227739 
3745.909 2249920 2321401 2417482 2513151 2587075 2625676 2625209 2590542 
3749.767 2533781 2468796 2407420 2356746 2320635 2301880 2303213 2326797 
3753.624 2371105 2431676 2499421 2564477 2618209 2654378 2671047 2670213 
3757.481 2656178 2633209 2604308 2570676 2533481 2495455 2462098 2439273 
3761.339 2432143 2441806 2464764 2493689 2519650 2535681 2538880 2531748 
3765.196 2520783 2514151 2518117 2533281 2555811 2579009 2595275 2599509 
3769.054 2590942 2572476 2550978 2533081 2524383 2526815 2539413 2558544 
3772.911 2579776 2599008 2613209 2621609 2624776 2624876 2624275 2624275 
3776.769 2624242 2621776 2613708 2597275 2572410 2542313 2513451 2492790 
3780.626 2485392 2491956 2509019 2530482 2549179 2560377 2561777 2555278 
3784.483 2544513 2533947 2526649 2523583 2523683 2525316 2526915 2528315 
3788.341 2530115 2533081 2537447 2543013 2548912 2554611 2560677 2568310 
3792.198 2578543 2592009 2607075 2620409 2627942 2626542 2615442 2597675 
3796.056 2579742 2570110 2575343 2598142 2635076 2678448 2716590 2737062 
3799.913 2730427 2692651 2628442 2551978 2484025 2442972 2438640 2469529 
3803.771 2524882 2589809 2647644 2684849 2693518 2674114 2635209 2591909 
3807.628 2560477 2550579 2563910 2595142 2635910 2678081 2716790 2750833 
3811.485 2781745 2811825 2841440 2868255 2886900 2890169 2872324 2831768 
3815.343 2774042 2712488 2663479 2640577 2649244 2685483 2737862 2790815 
3819.200 2828833 2838838 2813926 2756902 2680648 2605542 2549812 2523983 
3823.058 2527682 2552978 2587309 2618809 2639543 2646311 2641410 2631543 
3826.915 2624609 2626642 2640043 2662646 2689950 2716823 2739129 2755001 
3830.772 2765138 2771474 2776443 2781911 2788447 2795150 2800719 2803154 
3834.630 2800119 2789415 2769073 2737729 2696052 2647644 2598275 2555611 
3838.487 2527149 2516118 2522483 2542246 2569510 2597642 2621776 2638510 
3842.345 2646877 2648077 2644144 2638310 2634243 2634743 2642077 2657645 
3846.202 2681082 2710755 2744931 2781344 2818695 2856482 2895072 2934034 
3850.060 2971597 3002124 3016671 3004092 2953082 2858283 2726959 2581376 
3853.917 2451002 2361976 2325931 2339023 2388429 2459299 2539513 2620209 
3857.774 2695718 2763037 2820029 2865053 2897441 2916621 2924026 2921291 
3861.632 2911550 2897174 2879696 2859250 2836004 2811224 2788914 2775142 
3865.489 2776276 2795851 2832368 2878395 2921157 2947177 2944575 2907815 
3869.347 2841940 2762070 2689350 2640643 2623442 2633510 2659445 2686716 
3873.204 2703920 2706254 2696052 2681715 2673581 2680248 2704720 2743731 
3877.062 2789281 2831601 2861218 2870657 2857082 2823063 2777009 2729893 
3880.919 2693884 2677881 2684583 2710821 2748199 2785580 2811124 2815593 
3884.776 2795450 2754534 2704620 2660745 2637010 2640310 2668913 2714856 
3888.634 2766905 2813492 2844575 2855748 2847043 2824431 2797018 2773908 
3892.491 2761704 2763104 2777276 2801386 2832769 2868655 2906513 2944675 
3896.349 2980705 3012166 3036891 3053140 3060581 3060548 3055376 3048002 
3900.206 3040461 3033120 3024045 3010732 2990046 2960821 2924860 2886367 
3904.063 2850912 2824831 2812158 2813625 2827399 2849678 2875960 2902711 
3907.921 2927796 2950246 2970363 2988845 3005527 3020641 3033754 3044231 
3911.778 3052840 3060615 3069024 3079301 3091682 3105331 3117778 3126722 
3915.636 3129526 3125354 3114842 3099791 3082605 3065753 3050304 3036957 
3919.493 3026280 3019207 3017004 3021208 3032486 3049837 3070659 3090781 
3923.351 3105864 3113006 3111338 3102627 3090914 3080703 3075230 3075798 
3927.208 3081470 3090113 3099290 3106932 3112305 3115075 3115275 3112539 
3931.065 3106866 3097722 3086309 3074663 3066054 3063585 3069257 3083206 
3934.923 3103128 3124987 3144744 3158929 3165905 3166405 3162500 3156760 
3938.780 3151286 3147214 3143710 3139872 3134098 3125755 3115209 3103896 
3942.638 3093984 3087778 3087243 3093017 3104863 3121216 3139338 3156726 
3946.495 3170844 3179389 3182059 3179155 3172280 3163702 3155692 3149450 
3950.353 3145712 3144377 3144811 3146614 3149918 3154724 3161065 3168909 
3954.210 3177219 3185197 3191672 3196011 3197981 3197680 3195778 3192874 
3958.067 3189402 3185464 3181191 3177086 3173414 3170744 3169876 3170678 
3961.925 3173014 3176352 3179990 3183928 3187900 3192573 3198381 3205992 
3965.782 3215639 3227322 3240774 3255596 3271087 3286644 3301167 3313420 
3969.640 3322368 3326842 3326241 3321133 3312586 3302503 3292320 3283706 
3973.497 3276829 3272255 3269785 3269317 3270953 3275360 3283105 3294490 
3977.354 3309280 3326408 3344839 3363004 3379400 3392957 3403310 3410156 
3981.212 3413595 3414330 3412861 3410389 3407918 3406115 3405247 3405146 
3985.069 3405080 3404145 3401773 3397933 3392857 3388048 3384542 3383607 
3988.927 3386045 3392056 3401339 3413161 3426186 3438843 3449497 3456644 
3992.784 3458682 3455509 3447460 3435770 3422645 3410256 3400070 3392924 
3996.642 3388583 3385511 3382338 3377897 3371586 3363505 3354656 3345674 
4000.499 3337560 
##END=
