##TITLE=1111a_3_b
##JCAMP-DX=5.01  $$ Nicolet v. 1
##DATATYPE=INFRARED SPECTRUM
##ORIGIN=UniL
##OWNER=Nicolet
##LONGDATE=2011/09/28
##TIME=15:37:51
##SPECTROMETER/DATA SYSTEM=Nicolet iS5
##DATA PROCESSING=
Ratio against background
%Transmittance->Absorbance
Truncated
ElementMultiply or ElementDivide
##COMMENTS=
Number of sample scans: 32
Collection length: 51.21 sec
Sample gain: 2.0
Background collected on: Mer Sep 28 15:23:28 2011 (GMT+02:00);
Number of background scans: 32
Background gain: 2.0
Sample spacing:  1.000
Number of scan points: 12415
Resolution points: 8192
Number of FFT points: 65536
Apodization: N-B fort;
Phase correction: Mertz;
Laser frequency: 15798.0 cm-1
Number of rejected sample scans: 0
Number of rejected background scans: 0
Bench serial number: ASB1000141;
##RESOLUTION=4.000
##XUNITS=1/CM
##YUNITS=ABSORBANCE
##FIRSTX=649.893372
##LASTX=4000.122314
##FIRSTY=0.064556
##MAXX=4000.122314
##MINX=649.893372
##MAXY=0.237628
##MINY=0.000158
##XFACTOR=1.000000
##YFACTOR=1.000000E-009
##NPOINTS=6950
##DELTAX=0.482117
##ZPD=6100
##XYDATA=(X++(Y..Y))
649.893 64555988 64459080 64421648 64465880 64590284 64774096 64989044 
653.268 65213836 65443068 65687796 65965980 66293248 66675656 67108400 
656.643 67582648 68092600 68639128 69227264 69859312 70529000 71221272 
660.018 71918432 72613392 73314912 74047712 74841704 75719024 76680688 
663.393 77704992 78753624 79789208 80785400 81722896 82585304 83341232 
666.767 83931464 84280240 84329200 84086528 83633048 83079648 82507888 
670.142 81943272 81370928 80758584 80080240 79331320 78533376 77723312 
673.517 76942712 76217496 75550976 74927952 74327376 73735400 73151016 
676.892 72586840 72058712 71577912 71145144 70751216 70382200 70027272 
680.267 69680768 69341176 69007296 68673632 68329944 67965952 67576296 
683.642 67165520 66747904 66342384 65964280 65618536 65297624 64986968 
687.016 64671948 64345284 64010576 63680688 63371404 63093268 62848768 
690.391 62631020 62429432 62233376 62035952 61834800 61628892 61416784 
693.766 61195088 60960388 60712784 60457708 60207760 59978808 59784080 
697.141 59632352 59524380 59455792 59420688 59416396 59444772 59511496 
700.516 59620912 59772448 59957468 60160876 60364716 60552924 60716292 
703.890 60852692 60965920 61061364 61142944 61212672 61270780 61318592 
707.265 61359956 61400636 61447124 61503508 61570168 61645388 61728416 
710.640 61824260 61948588 62126664 62389152 62765264 63268936 63889220 
714.015 64582588 65277912 65881988 66294908 66439100 66268936 65788412 
717.390 65049812 64152352 63225320 62397296 61792512 61503660 61580476 
720.765 62029724 62808528 63830076 64959108 66034028 66886252 67354760 
724.139 67332704 66785580 65767632 64408192 62888944 61404684 60105312 
727.514 59082156 58355588 57888960 57613060 57454148 57359300 57296576 
730.889 57255068 57234048 57231436 57241344 57255368 57268148 57281116 
734.264 57302020 57340660 57402636 57486408 57583928 57686804 57790804 
737.639 57899260 58020348 58161704 58324476 58501108 58677928 58841956 
741.013 58988664 59124636 59265932 59429500 59627984 59863180 60128108 
744.388 60411552 60705584 61007936 61322292 61652188 61996244 62345008 
747.763 62683912 62999256 63284732 63544048 63788852 64033076 64284308 
751.138 64542608 64801632 65055468 65303676 65554260 65819176 66108904 
754.513 66424312 66755860 67086160 67399496 67688424 67957040 68217576 
757.888 68481520 68754168 69029944 69298384 69550776 69789112 70026920 
761.262 70285192 70580368 70917768 71287480 71671224 72052064 72425760 
764.637 72803968 73213128 73683496 74237584 74887920 75636072 76478560 
768.012 77411352 78433144 79546192 80759976 82102520 83636592 85483912 
771.387 87813976 90823400 94675872 99407624 104844760 110530688 115797456 
774.762 119805936 121753152 121137672 117869848 112350360 105306384 97660192 
778.136 90264600 83719064 78373408 74290496 71338400 69275104 67848488 
781.511 66854632 66144520 65634876 65279492 65050276 64931592 64917548 
784.886 65015368 65242908 65624200 66180096 66920772 67848184 68962632 
788.261 70271560 71797824 73578208 75654376 78068408 80853968 84036152 
791.636 87640904 91698776 96245520 101313496 106910344 112996864 119457320 
795.010 126102504 132661984 138784944 144097440 148201936 150718640 
797.903 151359888 149949312 146477216 141107168 134167936 126104936 
800.796 117387080 108498944 99862080 91794664 84539160 78233376 72926856 
804.171 68606448 65209300 62645904 60811604 59607232 58943804 58743132 
807.546 58942932 59484140 60300340 61315768 62432532 63534840 64508468 
810.920 65243260 65653072 65688336 65331980 64601088 63536220 62200604 
814.295 60669960 59023696 57345768 55710940 54178072 52790504 51570080 
817.670 50521656 49639060 48912312 48333000 47897468 47606768 47463596 
821.045 47470580 47628804 47939280 48406668 49040232 49855860 50872240 
824.420 52104972 53560884 55230176 57083320 59062112 61080508 63028560 
827.794 64764672 66140116 67016104 67280288 66882080 65841532 64254456 
831.169 62265880 60053036 57796632 55641032 53695132 52021900 50640708 
834.544 49541600 48693756 48057848 47587764 47238268 46969752 46748556 
837.919 46553364 46375552 46217008 46085864 45990156 45933652 45913544 
841.294 45922348 45950928 45993028 46046000 46110660 46188448 46279372 
844.669 46381040 46490592 46606476 46731028 46869420 47028308 47212560 
848.043 47422832 47655908 47907200 48173780 48456824 48762072 49096840 
851.418 49467588 49877048 50324168 50806496 51323704 51879616 52482672 
854.793 53143184 53870492 54670824 55546172 56498564 57532704 58658320 
858.168 59891932 61253992 62764152 64440860 66298344 68347240 70594520 
861.543 73040608 75673032 78454656 81316976 84156264 86826512 89165520 
864.917 91005880 92191648 92612160 92207344 90980824 88998448 86386048 
868.292 83317384 79978928 76566616 73257408 70184504 67446624 65098464 
871.667 63156224 61608844 60425184 59562572 58966688 58578268 58334936 
875.042 58169544 58022468 57846180 57609576 57303760 56939372 56542228 
878.417 56143860 55778188 55477268 55268028 55176672 55228064 55443460 
881.792 55840544 56427056 57197420 58129844 59186756 60322076 61480524 
885.166 62609584 63666148 64619080 65458284 66196108 66868432 67526744 
888.541 68230136 69035032 69978648 71074464 72308608 73646200 75037824 
891.916 76430080 77777680 79040896 80187952 81192648 82028192 82668224 
895.291 83088520 83266368 83183976 82829544 82196080 81283936 80103544 
898.666 78679504 77051544 75274784 73419704 71557712 69758960 68085392 
902.040 66581132 65276876 64190464 63328432 62690728 62271540 62059844 
905.415 62039356 62189212 62489004 62919004 63466156 64124668 64894384 
908.790 65777532 66775456 67886416 69105920 70428960 71852008 73373448 
912.165 74991200 76698240 78480776 80316976 82181184 84053160 85923864 
915.540 87802216 89713080 91696688 93801552 96074808 98563688 101307768 
918.914 104333704 107649832 111234032 115027528 118921200 122769680 
921.807 126409456 129676416 132454664 134697744 136449264 137835824 
924.700 139058880 140373248 142030640 144271152 147283168 151165408 
927.593 155909680 161365328 167246160 173089392 178295232 182220928 
930.485 184195536 183683888 180395472 174330272 165815744 155434000 
933.378 143962944 132190856 120822160 110435568 101388848 93864808 87900864 
936.753 83428552 80326184 78454096 77686136 77899880 78966104 80738072 
940.128 83010096 85515336 87955912 89998088 91342552 91780048 91209072 
943.502 89667096 87309024 84386944 81181992 77957488 74936936 72260352 
946.877 69995272 68149536 66689716 65563156 64712444 64089560 63653788 
950.252 63371792 63216812 63164196 63192016 63283772 63426504 63613280 
953.627 63840396 64105384 64405352 64735444 65089532 65462136 65849440 
957.002 66250480 66666344 67098692 67548352 68014432 68494912 68987792 
960.377 69493336 70013760 70553280 71115328 71701200 72308880 72933792 
963.751 73570640 74215528 74867960 75530552 76206992 76900352 77611528 
967.126 78338600 79078976 79830856 80594848 81374360 82174304 82998416 
970.501 83848784 84724408 85623472 86544472 87487472 88454224 89447152 
973.876 90467128 91513264 92583048 93674424 94787544 95926424 97097512 
977.251 98307280 99559896 100855424 102190376 103559848 104960992 106394784 
980.625 107865720 109379768 110940736 112548632 114199232 115885280 
983.518 117599056 119333144 121078856 122822216 124542456 126207856 
986.411 127779152 129218000 130489872 131572840 132460656 133161008 
989.304 133692368 134080440 134357888 134560912 134728288 134902480 
992.196 135121312 135414608 135801056 136285744 136863232 137522432 
995.089 138253056 139047968 139904656 140822144 141798416 142827952 
997.982 143903184 145016928 146165792 147350672 148574800 149838416 
1000.874 151134624 152446016 153747696 155013488 156220848 157357776 
1003.767 158423568 159426848 160381296 161303200 162211472 163127408 
1006.660 164077200 165091712 166199264 167423456 168775904 170255264 
1009.552 171849600 173542848 175321984 177179600 179114000 181125440 
1012.445 183210176 185359360 187559504 189797648 192065824 194363296 
1015.338 196691488 199046272 201409984 203744768 205998416 208109984 
1018.231 210020096 211686112 213083504 214208944 215077632 215722976 
1021.123 216196720 216563136 216904592 217309776 217857728 218614464 
1024.016 219616368 220868288 222347152 224011088 225810064 227686992 
1026.909 229583856 231438016 233174160 234715008 235983472 236913472 
1029.802 237465600 237628240 237417424 236866688 236021664 234933600 
1032.695 233653344 232236704 230738992 229204272 227658048 226091008 
1035.588 224455664 222661920 220594192 218133920 215167536 211613872 
1038.481 207429488 202607504 197179104 191210656 184804000 178083328 
1041.374 171193040 164287376 157500896 150950336 144722848 138869328 
1044.267 133417664 128376200 123740848 119501296 115642272 112144712 
1047.160 108984528 106134384 103566456 101252576 99168240 97293128 95608224 
1050.536 94096376 92739760 91519024 90416528 89416544 88506624 87678928 
1053.911 86926192 86239288 85605600 85006240 84417848 83817112 83181728 
1057.286 82494784 81745776 80929936 80048248 79107168 78120040 77107448 
1060.661 76096440 75121832 74219304 73422568 72761144 72254992 71915928 
1064.037 71748760 71752520 71922808 72250616 72724120 73325504 74031640 
1067.412 74817096 75654488 76518360 77389056 78250440 79090112 79898272 
1070.787 80664576 81379800 82036360 82630552 83163192 83640120 84071328 
1074.162 84468800 84846248 85218824 85601080 86005888 86441352 86906360 
1077.538 87387704 87858832 88285696 88629976 88858576 88952096 88905328 
1080.913 88726944 88433832 88047496 87589904 87082464 86552800 86035016 
1084.288 85572552 85222008 85045008 85104656 85464424 86176448 87279576 
1087.663 88793688 90711264 92989240 95538200 98230088 100888784 103307160 
1091.039 105286928 106645792 107257344 107073728 106126432 104526120 
1093.932 102434232 100058072 97609368 95276144 93220680 91549464 90312040 
1097.307 89504480 89073256 88926024 88937816 88977552 88912736 88621200 
1100.682 88013496 87031240 85656768 83913088 81860536 79587224 77188464 
1104.057 74763760 72398744 70155496 68078112 66190168 64500056 63007600 
1107.433 61707524 60592580 59654324 58883200 58269796 57802576 57470180 
1110.808 57260776 57160532 57154068 57222368 57341040 57483532 57620472 
1114.183 57723020 57768360 57738952 57625204 57424948 57142160 56786216 
1117.558 56370352 55912104 55431340 54947984 54482484 54051776 53669488 
1120.934 53345748 53086868 52895280 52768652 52698428 52667904 52650288 
1124.309 52613672 52522196 52344688 52062912 51675348 51200180 50669416 
1127.684 50125988 49614060 49169304 48818276 48574236 48438416 48402704 
1131.059 48452120 48567568 48725968 48903892 49079480 49234616 49359328 
1134.435 49452480 49522176 49582972 49653028 49751068 49891244 50083816 
1137.810 50332764 50636128 50985612 51366668 51760260 52142632 52489328 
1141.185 52779540 52996756 53132100 53183852 53155356 53053248 52885364 
1144.560 52660684 52388236 52078448 51742196 51389304 51026864 50657312 
1147.936 50278256 49882584 49461204 49006180 48512432 47979388 47410488 
1151.311 46812616 46194120 45563848 44930956 44304124 43691132 43099160 
1154.686 42533248 41996248 41488784 41009588 40557072 40129880 39728056 
1158.061 39352724 39005692 38688464 38402156 38147112 37923708 37732912 
1161.437 37575724 37452832 37363052 37301884 37261556 37230760 37196684 
1164.812 37147236 37071228 36960240 36807660 36608268 36358204 36055604 
1168.187 35701488 35300468 34861040 34394868 33913720 33428740 32948662 
1171.562 32479648 32026510 31594298 31188864 30818202 30490966 30214736 
1174.938 29995838 29838160 29743908 29714814 29752992 29861408 30043840 
1178.313 30303514 30642658 31063174 31566612 32156404 32838042 33618768 
1181.688 34506136 35507204 36626148 37865752 39228636 40719416 42346080 
1185.063 44120552 46055616 48162748 50447628 52906660 55522488 58261796 
1188.438 61074900 63887916 66609988 69138984 71363080 73185288 74534320 
1191.814 75374328 75712272 75593368 75093480 74297616 73292088 72151576 
1195.189 70926112 69645440 68318392 66940172 65499508 63987464 62403040 
1198.564 60756876 59070576 57372536 55695912 54071064 52521748 51065768 
1201.939 49712840 48467196 47330372 46302484 45383532 44572508 43866896 
1205.315 43260632 42743608 42303196 41924464 41592548 41295068 41021820 
1208.690 40764728 40518220 40277708 40040708 39807072 39580164 39367052 
1212.065 39177144 39022512 38915084 38865256 38883484 38978364 39158612 
1215.440 39433516 39811536 40300360 40905524 41629488 42472884 43435088 
1218.816 44516004 45716592 47039056 48485128 50055256 51748392 53563096 
1222.191 55499256 57559716 59751572 62084956 64570324 67215608 70023576 
1225.566 72989176 76098760 79325512 82631032 85959808 89235096 92367936 
1228.941 95254400 97783144 99854656 101380232 102294400 102563832 102190080 
1232.317 101216608 99725704 97846144 95739512 93578320 91550160 89827200 
1235.692 88553840 87855344 87823952 88524792 90004536 92288064 95380392 
1239.067 99260136 103877240 109142032 114915912 121028808 127264736 
1241.960 133371040 139091824 144153056 148294576 151306592 153033760 
1244.853 153409248 152458720 150298656 147115248 143132592 138612992 
1247.746 133815672 128981384 124332856 120033640 116179552 112786776 
1250.639 109786888 107036712 104336360 101484400 98300680 94667464 90556424 
1254.015 86025072 81206192 76266784 71393856 66755436 62471248 58618196 
1257.390 55219676 52257308 49682300 47430040 45433564 43625916 41952564 
1260.765 40372020 38854640 37384572 35955424 34567016 33222414 31925004 
1264.140 30677860 29483188 28343532 27261928 26242034 25287110 24398872 
1267.516 23576672 22817584 22117450 21472784 20881532 20343650 19859602 
1270.891 19428968 19049474 18716178 18423170 18165216 17939220 17744194 
1274.266 17580586 17448634 17346720 17271792 17219974 17188088 17174884 
1277.641 17181158 17208874 17259622 17333892 17430906 17549706 17689216 
1281.017 17848100 18023450 18207508 18386768 18542210 18651286 18694350 
1284.392 18659104 18544354 18360464 18126766 17868022 17607396 17364824 
1287.767 17155546 16989368 16873062 16811062 16805620 16856044 16958530 
1291.142 17106810 17292548 17507310 17744126 17995924 18255158 18513578 
1294.518 18759942 18983008 19173880 19328078 19447332 19539376 19615356 
1297.893 19686562 19762706 19850412 19953922 20076400 20220714 20388966 
1301.268 20580874 20791774 21012238 21228254 21423560 21584130 21698086 
1304.643 21758452 21761970 21708012 21598270 21436022 21228740 20987372 
1308.019 20726434 20463740 20214812 19991980 19802310 19647698 19527280 
1311.394 19439780 19385380 19365908 19383266 19437698 19526692 19645202 
1314.769 19788506 19953122 20138762 20347610 20582542 20844786 21133380 
1318.144 21445212 21776812 22126446 22494610 22882752 23291762 23719212 
1321.520 24159872 24605710 25048988 25484920 25912988 26337186 26764968 
1324.895 27207036 27676816 28189528 28763278 29415566 30158368 30992140 
1328.270 31899546 32845118 33773488 34622776 35335544 35866636 36196256 
1331.645 36329672 36296744 36141408 35916840 35678936 35475924 35350496 
1335.021 35336912 35457696 35725772 36143136 36703916 37396780 38210096 
1338.396 39134864 40165064 41295652 42519768 43825516 45195276 46606772 
1341.771 48032384 49440340 50793236 52041584 53130420 53999584 54589664 
1345.146 54857220 54777188 54347092 53583748 52518792 51192872 49647976 
1348.521 47931100 46092240 44182216 42259480 40384312 38612440 36995996 
1351.897 35573300 34365708 33379790 32608710 32037676 31646900 31415310 
1355.272 31319574 31331468 31420722 31555138 31703678 31843204 31958706 
1358.647 32043952 32099784 32131284 32146412 32155688 32175672 32230768 
1362.022 32350906 32571458 32923356 33426772 34090196 34912276 35886824 
1365.398 37008080 38270488 39663580 41160880 42715128 44251840 45670212 
1368.773 46865692 47737412 48206028 48228504 47796256 46937856 45709080 
1372.148 44197036 42510816 40766800 39090704 37592416 36347936 35395540 
1375.523 34732812 34331896 34156360 34179660 34393612 34810452 35458020 
1378.899 36374632 37604916 39190668 41167256 43550088 46317596 49386800 
1382.274 52593888 55716476 58471196 60566220 61761228 61874572 60828032 
1385.649 58658848 55542480 51777956 47733156 43799896 40280072 37342036 
1389.024 35026512 33274536 31979502 31022140 30302234 29741458 29283302 
1392.400 28892516 28547372 28237368 27961296 27724174 27533534 27395346 
1395.775 27310830 27276322 27284438 27325616 27389310 27465122 27541900 
1399.150 27610076 27663078 27697510 27713756 27714110 27701536 27678580 
1402.525 27648246 27615726 27589350 27581652 27607144 27678228 27801740 
1405.901 27976314 28194408 28444876 28718034 29009290 29318180 29647512 
1409.276 29999212 30371804 30759834 31155826 31552930 31948150 32342446 
1412.651 32738778 33138656 33540368 33938548 34327556 34703916 35068288 
1416.026 35424944 35779412 36135036 36492388 36850976 37215056 37595992 
1419.402 38014256 38490412 39034404 39643324 40302252 40993052 41701408 
1422.777 42426192 43181500 43995904 44901968 45926396 47084068 48376520 
1426.152 49800044 51351600 53032996 54843532 56769112 58774844 60796056 
1429.527 62746084 64539344 66104120 67403944 68443080 69262584 69928672 
1432.903 70514968 71099912 71758032 72564088 73604432 74971896 76753712 
1436.278 79008312 81728616 84842744 88238632 91800112 95421120 98992040 
1439.653 102393752 105463792 108003880 109824224 110755544 110696584 
1442.546 109629024 107607080 104739160 101155952 97006648 92433064 87557672 
1445.921 82500800 77378248 72319800 67491136 63070552 59221348 56055300 
1449.297 53601892 51819844 50625256 49931836 49669000 49788304 50258172 
1452.672 51046836 52116628 53434060 54972992 56729688 58727840 60999012 
1456.047 63553556 66340028 69230880 72055000 74663568 76975944 78974208 
1459.422 80675752 82108568 83303696 84292712 85107280 85776168 86318464 
1462.798 86737288 87021936 87156000 87133888 86972544 86713216 86405496 
1466.173 86083360 85755744 85404968 85000192 84506712 83895408 83139520 
1469.548 82205656 81045080 79593392 77785568 75593560 73065232 70344328 
1472.923 67627944 65099120 62864052 60937664 59277860 57831948 56574460 
1476.299 55520040 54716376 54215944 54061612 54271620 54846092 55782408 
1479.674 57087440 58783076 60901032 63467496 66490032 69949648 73807144 
1483.049 78016608 82535248 87338840 92413432 97738160 103273960 108928616 
1486.424 114536480 119871208 124632552 128478992 131083760 132161024 
1489.317 131541936 129230056 125429184 120509992 114905080 109030272 
1492.210 103181336 97512600 92083296 86878184 81861576 77024280 72396984 
1495.586 68060200 64126544 60699752 57839748 55545076 53772152 52454372 
1498.961 51528368 50947720 50680360 50703000 50994556 51530232 52279172 
1502.336 53207560 54270904 55415264 56575028 57649192 58499140 58943460 
1505.711 58771352 57820328 56062348 53639192 50792268 47747320 44645280 
1509.087 41543324 38459824 35411716 32426198 29556138 26865378 24405602 
1512.462 22212260 20292332 18629046 17193084 15950458 14868660 13917249 
1515.837 13070686 12311967 11633045 11037152 10532604 10123696 9804533 
1519.212 9554391 9340074 9126844 8889639 8628092 8368525 8150201 8001236 
1523.070 7923584 7896016 7885995 7866055 7820475 7751894 7676108 7613418 
1526.927 7575720 7561526 7558559 7553434 7539712 7520428 7504988 7501751 
1530.785 7511460 7524204 7522181 7487323 7412830 7310010 7206641 7131590 
1534.642 7101513 7112560 7146916 7181747 7198658 7188080 7149207 7087199 
1538.500 7008127 6915334 6808290 6688385 6565518 6459401 6390868 6371701 
1542.357 6398030 6452440 6511801 6558353 6585635 6601480 6621396 6660996 
1546.214 6726375 6812093 6904292 6988227 7054935 7104072 7143009 7181578 
1550.072 7225912 7273619 7314828 7337237 7332149 7298789 7244475 7181511 
1553.929 7121923 7072178 7031194 6991560 6944389 6882040 6799371 6692927 
1557.787 6561482 6408824 6249093 6106491 6007675 5967866 5985335 6046346 
1561.644 6131291 6220018 6294643 6344131 6366356 6368978 6366490 6373719 
1565.501 6399577 6442418 6492899 6538036 6568949 6583482 6587855 6593305 
1569.359 6611606 6649590 6707665 6782307 6869955 6969472 7080968 7203441 
1573.216 7332992 7461468 7579396 7680560 7767681 7855258 7966677 8125083 
1577.074 8340896 8611463 8927112 9280155 9670211 10104534 10595446 11155137 
1580.931 11790854 12502213 13281830 14116722 14991531 15885359 16770767 
1584.306 17613642 18370902 19000212 19469128 19761354 19883744 19865536 
1587.682 19758130 19623952 19531924 19552408 19744016 20152648 20805680 
1591.057 21705364 22823276 24093846 25422346 26682160 27732650 28448978 
1594.432 28727486 28512734 27805872 26665848 25197108 23523430 21777160 
1597.807 20068246 18476134 17055114 15830716 14809106 13982634 13336187 
1601.183 12850736 12508555 12297752 12212138 12250546 12413864 12701788 
1604.558 13109989 13629680 14245441 14933778 15663154 16387463 17049224 
1607.933 17587074 17938252 18054464 17910040 17504962 16866724 16045544 
1611.308 15111178 14134967 13180412 12295639 11503975 10809976 10204321 
1614.684 9672380 9198925 8774363 8398759 8079173 7825434 7644475 7534655 
1618.541 7486582 7485503 7513854 7554108 7592141 7617700 7626973 7623838 
1622.398 7617633 7619285 7636179 7668891 7711790 7756920 7796961 7829044 
1626.256 7853638 7873342 7891056 7908939 7928544 7950783 7978219 8013758 
1630.113 8059797 8116846 8182107 8249810 8311342 8357750 8380551 8372985 
1633.971 8331573 8256969 8156616 8045181 7941570 7864705 7825164 7824725 
1637.828 7856776 7909918 7970930 8026954 8069451 8094667 8105605 8109081 
1641.686 8113808 8125218 8143482 8163335 8176029 8172045 8144091 8089469 
1645.543 8011463 7919771 7827660 7749533 7697928 7679987 7697861 7748218 
1649.400 7823544 7911909 7996140 8055813 8066008 8006130 7872667 7695635 
1653.258 7533442 7438075 7427593 7483817 7575215 7673545 7761137 7830562 
1657.115 7880293 7912516 7929827 7933978 7924563 7900436 7860150 7802966 
1660.973 7729497 7641676 7543083 7438817 7336597 7244441 7170327 7119330 
1664.830 7092217 7084302 7086929 7089253 7079250 7046819 6987150 6901026 
1668.688 6795837 6682900 6575005 6481867 6409328 6358723 6328296 6313402 
1672.545 6306678 6297971 6275582 6228824 6153001 6053973 5948047 5854708 
1676.402 5788285 5751350 5735603 5726840 5711732 5683700 5644021 5601493 
1680.260 5567159 5548633 5544673 5544035 5527490 5475143 5374323 5229996 
1684.117 5067715 4923758 4825579 4778341 4769027 4778441 4790501 4794756 
1687.975 4786548 4765376 4733050 4692052 4646100 4600255 4560809 4533185 
1691.832 4520864 4521969 4529603 4530909 4511256 4458728 4370394 4257685 
1695.689 4145373 4060915 4018809 4015967 4033591 4048306 4036701 3983563 
1699.547 3888070 3769303 3659857 3587554 3563667 3580271 3620530 3666740 
1703.404 3706239 3731303 3738722 3730768 3713657 3696313 3686288 3688360 
1707.262 3702796 3726791 3755867 3786014 3815095 3844076 3875701 3913479 
1711.119 3959688 4014328 4075430 4139318 4202679 4263909 4323406 4381941 
1714.977 4439715 4493311 4536533 4562249 4566769 4553275 4533319 4521936 
1718.834 4530139 4561344 4610803 4669545 4727524 4777637 4816801 4845816 
1722.691 4868299 4888069 4907974 4929052 4951138 4974162 4998663 5026249 
1726.549 5057759 5092087 5126082 5154749 5173761 5181406 5179495 5172017 
1730.406 5162763 5151832 5133760 5097384 5028830 4918162 4766884 4594160 
1734.264 4431179 4309652 4244703 4231118 4251060 4283517 4312028 4324577 
1738.121 4316077 4287566 4245472 4198832 4156612 4124900 4105834 4098342 
1741.979 4099580 4106470 4116304 4127877 4141057 4156947 4177855 4205021 
1745.836 4239516 4280104 4324143 4368085 4408518 4442828 4470211 4491001 
1749.693 4505464 4514168 4517918 4518219 4518219 4521467 4530976 4546612 
1753.551 4564927 4578723 4578455 4555753 4505798 4430576 4339001 4244669 
1757.408 4160660 4093325 4041785 3998511 3953569 3897833 3826694 3741295 
1761.266 3647694 3555516 3473778 3409120 3364440 3339130 3330415 3333821 
1765.123 3344172 3354556 3358596 3351685 3332919 3306242 3279500 3261172 
1768.980 3255763 3262273 3273824 3281035 3275460 3254328 3222949 3193474 
1772.838 3179456 3188635 3221513 3272122 3332552 3396096 3460351 3525117 
1776.695 3591262 3658186 3722781 3779698 3823418 3851297 3864736 3869182 
1780.553 3872525 3881484 3898802 3922741 3948386 3970689 3985970 3993996 
1784.410 3997039 3999346 4004430 4014094 4029377 4049510 4074193 4102724 
1788.268 4133865 4164708 4190267 4204084 4199635 4172436 4122258 4054427 
1792.125 3978681 3905389 3842371 3792900 3755433 3726223 3701694 3678937 
1795.982 3656616 3633828 3609471 3581841 3549636 3512056 3469937 3425618 
1799.840 3382572 3344071 3312018 3287245 3268850 3256164 3248753 3246717 
1803.697 3250022 3258167 3269351 3281536 3292387 3301234 3308579 3316091 
1807.555 3325674 3338595 3354322 3371786 3389618 3407384 3426553 3449296 
1811.412 3477786 3512724 3552843 3594804 3635532 3672354 3704935 3734578 
1815.270 3763688 3794939 3829602 3868379 3910337 3954438 3999346 4044025 
1819.127 4087271 4127510 4163437 4193814 4218170 4236639 4249454 4256447 
1822.984 4256681 4248115 4229412 4201107 4166615 4132260 4104229 4087271 
1826.842 4081885 4084127 4087304 4084461 4071618 4049610 4025264 4007807 
1830.699 4006168 4024160 4060346 4108644 4162166 4215259 4265348 4312296 
1834.557 4358346 4406375 4458394 4515809 4579460 4650186 4729332 4818544 
1838.414 4918832 5030037 5150525 5277485 5407771 5538129 5666210 5789729 
1842.271 5906900 6017217 6121983 6225631 6334885 6457821 6599798 6761542 
1846.129 6938430 7122395 7303136 7470839 7619251 7745114 7848645 7931514 
1849.986 7995398 8040422 8065569 8068911 8049704 8009202 7950277 7877053 
1853.844 7792508 7698300 7594333 7479840 7354795 7220353 7079823 6936410 
1857.701 6792740 6649623 6506890 6363766 6221396 6082802 5952481 5835129 
1861.559 5733454 5646908 5572797 5507390 5448669 5396632 5353659 5322631 
1865.416 5304720 5298112 5298448 5299756 5297642 5290666 5281074 5273192 
1869.273 5270912 5275674 5285870 5298347 5309919 5319512 5327763 5336216 
1873.131 5345944 5356175 5364327 5367446 5363119 5350741 5331621 5308040 
1876.988 5281745 5252969 5220204 5181506 5135437 5082164 5023735 4962331 
1880.846 4900434 4838445 4775996 4712215 4647675 4584349 4526288 4477341 
1884.703 4440518 4415915 4401020 4391648 4383749 4374176 4361994 4347670 
1888.561 4332074 4316747 4303361 4293723 4290478 4296133 4312563 4339805 
1892.418 4375616 4416015 4456151 4493277 4526925 4560039 4597006 4641144 
1896.275 4693693 4752613 4813786 4873493 4930125 4984955 5041065 5102111 
1900.133 5169268 5241030 5314111 5383985 5447629 5504302 5554875 5600788 
1903.990 5643316 5682290 5717372 5748697 5777741 5806619 5837346 5869586 
1907.848 5900217 5923795 5934645 5930110 5911065 5882920 5852693 5826902 
1911.705 5808063 5795202 5784860 5773678 5760482 5747220 5736946 5731977 
1915.563 5731574 5731104 5724121 5704547 5670171 5623646 5571455 5520578 
1919.420 5474941 5434409 5395458 5353458 5306028 5254344 5202498 5156426 
1923.277 5119880 5093998 5076666 5064497 5054943 5047501 5043445 5044551 
1927.135 5051088 5061278 5071972 5080487 5085550 5088667 5092188 5098189 
1930.992 5106704 5115521 5121656 5123299 5121422 5119846 5123433 5134430 
1934.850 5151966 5171548 5186939 5193645 5191566 5185229 5182010 5188615 
1938.707 5207595 5236737 5270073 5300997 5324946 5342120 5355169 5368151 
1942.564 5383381 5399920 5415118 5426391 5433839 5440382 5450850 5468700 
1946.422 5494437 5526081 5558366 5587464 5613476 5639456 5670641 5712001 
1950.279 5763706 5822469 5882080 5936627 5983555 6024003 6062171 6100980 
1954.137 6141138 6179047 6210102 6230034 6238471 6238471 6236790 6239143 
1957.994 6248253 6263178 6280826 6298139 6315184 6335658 6364540 6405360 
1961.852 6457518 6516409 6574264 6624828 6665437 6696864 6722539 6745287 
1965.709 6765379 6780523 6788533 6790014 6789341 6795669 6817613 6859789 
1969.566 6921024 6992840 7064735 7127178 7174942 7208595 7232448 7250843 
1973.424 7267150 7283559 7303203 7332587 7381722 7461806 7578789 7728823 
1977.281 7895712 8053248 8173734 8237585 8237957 8181567 8083325 7961616 
1981.139 7832383 7704674 7584217 7473030 7375117 7294139 7235918 7201824 
1984.996 7190067 7194346 7205799 7216580 7224092 7229011 7235177 7246699 
1988.854 7264421 7286255 7308797 7328948 7347448 7367905 7394933 7432177 
1992.711 7479368 7531048 7580272 7620870 7649904 7668655 7681538 7693308 
1996.568 7707338 7724135 7742585 7760968 7778711 7795949 7813424 7830697 
2000.426 7845170 7853740 7852390 7839940 7817674 7790046 7761778 7737390 
2004.283 7718570 7705652 7696984 7691925 7690880 7693881 7700424 7706664 
2008.141 7707743 7697726 7674186 7639113 7599795 7565504 7543893 7538364 
2011.998 7546961 7563212 7580138 7594872 7609641 7630413 7664001 7714455 
2015.855 7780567 7856709 7934686 8007649 8072927 8130992 8183964 8233905 
2019.713 8280270 8321609 8355994 8384706 8410279 8436494 8466529 8499708 
2023.570 8532113 8558099 8573713 8578004 8574186 8566480 8558336 8550294 
2027.428 8538398 8517313 8483862 8439231 8390246 8348191 8322049 8318469 
2031.285 8338228 8376430 8426629 8483050 8542352 8602405 8662331 8717938 
2035.143 8764120 8796104 8810779 8810136 8799148 8784913 8773485 8767568 
2039.000 8765742 8764120 8759690 8751137 8739777 8728418 8718411 8708777 
2042.857 8695931 8674906 8642963 8600986 8553538 8507446 8468623 8440514 
2046.715 8423318 8412643 8403150 8389401 8366330 8328263 8271288 8191257 
2050.572 8087308 7962290 7824692 7687406 7564594 7469019 7406898 7376835 
2054.430 7369926 7372690 7373802 7365276 7345224 7316884 7284705 7252460 
2058.287 7221364 7191381 7162310 7135868 7115692 7105655 7108451 7123102 
2062.145 7146310 7172045 7195187 7213750 7228068 7240095 7251281 7260445 
2066.002 7264556 7259670 7243701 7217793 7186328 7155169 7128559 7107811 
2069.859 7091038 7073795 7053285 7028871 7002537 6978058 6958260 6943009 
2073.717 6929003 6910621 6884060 6847368 6803309 6756090 6710593 6669407 
2077.574 6631893 6594819 6555191 6511296 6464211 6417365 6374391 6338247 
2081.432 6309771 6287819 6271044 6258505 6249530 6243849 6240757 6237093 
2085.289 6228891 6212691 6186071 6150144 6108575 6065867 6025986 5990341 
2089.146 5957621 5925307 5891349 5855716 5821126 5791441 5770287 5759475 
2093.004 5758166 5763807 5774081 5788150 5806283 5829286 5857160 5887353 
2096.861 5915667 5937735 5950365 5954094 5952313 5949659 5949425 5952582 
2100.719 5956580 5958158 5954665 5946099 5935719 5928767 5929741 5940557 
2104.576 5959838 5984025 6009187 6033276 6056425 6081122 6110020 6144162 
2108.434 6182475 6222135 6260320 6295382 6327186 6356807 6384849 6410909 
2112.291 6433103 6448976 6457181 6458560 6456374 6455063 6458796 6470264 
2116.148 6490107 6517115 6549641 6586779 6627653 6672065 6718165 6762653 
2120.006 6801121 6829932 6846830 6853562 6853966 6853898 6857837 6867969 
2123.863 6883084 6900117 6915300 6926107 6931595 6932370 6928969 6921158 
2127.721 6907490 6886248 6856255 6818791 6777091 6735764 6699220 6670652 
2131.578 6651608 6641885 6641280 6649724 6666850 6691615 6721227 6750571 
2135.436 6774230 6787725 6789846 6783115 6772648 6763628 6759557 6759994 
2139.293 6761710 6761206 6756965 6750706 6747341 6752287 6768980 6796476 
2143.150 6830673 6865680 6897424 6925737 6953243 6984994 7023583 7068069 
2147.008 7114075 7154192 7182791 7197276 7198557 7190640 7177872 7163590 
2150.865 7149543 7137249 7129300 7129266 7141931 7169586 7210987 7260782 
2154.723 7311391 7357053 7398708 7445323 7511191 7613215 7762317 7957060 
2158.580 8183796 8420109 8642456 8830932 8974939 9071116 9122547 9134153 
2162.438 9114291 9072876 9020809 8970203 8931678 8909930 8903842 8904350 
2166.295 8900629 8881116 8840772 8780145 8706342 8628733 8555328 8490889 
2170.152 8437035 8393219 8359338 8337450 8329850 8338396 8361770 8394402 
2174.010 8428014 8454907 8469164 8470482 8462170 8448522 8432846 8415447 
2177.867 8394570 8367817 8336167 8302426 8272908 8252950 8245014 8247345 
2181.725 8254774 8260582 8260279 8253322 8241334 8228637 8216954 8205878 
2185.582 8193688 8177481 8156751 8134368 8115630 8106786 8111175 8129101 
2189.439 8157426 8191291 8226510 8259806 8290436 8317151 8338092 8350759 
2193.297 8351873 8340051 8316239 8284492 8250080 8217494 8187915 8160195 
2197.154 8130552 8096152 8056725 8015749 7978759 7950986 7935057 7929051 
2201.012 7928477 7928207 7924563 7917713 7910155 7905970 7906375 7910222 
2204.869 7914001 7912887 7904384 7889066 7870475 7854077 7843955 7841796 
2208.727 7845878 7852694 7857822 7858699 7853942 7843517 7827593 7806339 
2212.584 7779420 7748285 7715062 7684202 7660325 7647004 7644947 7651456 
2216.441 7662079 7670982 7674793 7672027 7664777 7656177 7649230 7645891 
2220.299 7646937 7651422 7659144 7669869 7682853 7696782 7708721 7714893 
2224.156 7710947 7694691 7666260 7628828 7587252 7546489 7510348 7479435 
2228.014 7452570 7427424 7401842 7374476 7344719 7312200 7276113 7235682 
2231.871 7190572 7141223 7090600 7042408 7001090 6969034 6946274 6930249 
2235.729 6917725 6905403 6892307 6879818 6870763 6867262 6870527 6879414 
2239.586 6891062 6903619 6915839 6928801 6943850 6962233 6983176 7004154 
2243.443 7021058 7030487 7031463 7025368 7015906 7006982 7001292 6999271 
2247.301 6999103 6997689 6992604 6982806 6968933 6952368 6935500 6919913 
2251.158 6906749 6897256 6892644 6894058 6902710 6918196 6939036 6961997 
2255.016 6983547 7000147 7009845 7012168 7007959 6997992 6983143 6963277 
2258.873 6938665 6910049 6879549 6850162 6825187 6807078 6796914 6793649 
2262.730 6795063 6798731 6802838 6807078 6812060 6818926 6828653 6841444 
2266.588 6856558 6872783 6888570 6902373 6912338 6917287 6916243 6909342 
2270.445 6898401 6886214 6876486 6872311 6874937 6883487 6894899 6904965 
2274.303 6910284 6909207 6902811 6893351 6883656 6875779 6869787 6864737 
2278.160 6858611 6850633 6841242 6831952 6825287 6823200 6826230 6834308 
2282.018 6846728 6862549 6881501 6903450 6927421 6952065 6974725 6992335 
2285.875 7003379 7007588 7006848 7004356 7003750 7007184 7015266 7026816 
2289.732 7039680 7052140 7063759 7075175 7087771 7102860 7120879 7141257 
2293.590 7162983 7185317 7207652 7230359 7253606 7277427 7301182 7323623 
2297.447 7343842 7361535 7377038 7391630 7405820 7420110 7433053 7442896 
2301.305 7447311 7445626 7437974 7426042 7411987 7397866 7384486 7371814 
2305.162 7359513 7347347 7335822 7326387 7320490 7319377 7322916 7330397 
2309.020 7339630 7348965 7356952 7363085 7367197 7369488 7369893 7368275 
2312.877 7364265 7358300 7351054 7343539 7337204 7332891 7330970 7331307 
2316.734 7333969 7339158 7347583 7360187 7377914 7401169 7429278 7460727 
2320.592 7494065 7527002 7557514 7582869 7599660 7604212 7593119 7564190 
2324.449 7517900 7457390 7388631 7318502 7253875 7199904 7158672 7130142 
2328.307 7111819 7101311 7096158 7094979 7097606 7103937 7113537 7126066 
2332.164 7140381 7155842 7172382 7190673 7211122 7234368 7260412 7288377 
2336.021 7318131 7349032 7381520 7415897 7452199 7489616 7526328 7560042 
2339.879 7588736 7611530 7628795 7641575 7651456 7659111 7663967 7664574 
2343.736 7659549 7649061 7635640 7623939 7620364 7631459 7662045 7714455 
2347.594 7788528 7881811 7990166 8108271 8231001 8352920 8469131 8576653 
2351.451 8674094 8762090 8843410 8920685 8995946 9069392 9139736 9205016 
2355.309 9264145 9318137 9369867 9423601 9483437 9552088 9629828 9715681 
2359.166 9807820 9904793 10005178 10108570 10213242 10316752 10416349 
2362.541 10508264 10590352 10661827 10723703 10778080 10826348 10869119 
2365.917 10905507 10934456 10954605 10965955 10969047 10964665 10953077 
2369.292 10933335 10903876 10864091 10814901 10759941 10704990 10656632 
2372.667 10621487 10603899 10606106 10628177 10669773 10729917 10808345 
2376.042 10905303 11020771 11154321 11304916 11470804 11650233 11842232 
2379.417 12045898 12260498 12485230 12718062 12956276 13196704 13435728 
2382.793 13669685 13895489 14109465 14308308 14488194 14645741 14778457 
2386.168 14885049 14966117 15022811 15057353 15071384 15065792 15041266 
2389.543 14998322 14937996 14862454 14774309 14676312 14570422 14457501 
2392.918 14337314 14209971 14076061 13937948 13799058 13663941 13536419 
2396.294 13419802 13315721 13225191 13149093 13088852 13046408 13024147 
2399.669 13023805 13045793 13089467 13152815 13234004 13331198 13443554 
2403.044 13570604 13712156 13867369 14034923 14213806 14403448 14604345 
2406.419 14817779 15045417 15288308 15546515 15818518 16102072 16394757 
2409.795 16694905 17001496 17314306 17632448 17954240 18276446 18593840 
2413.170 18900426 19189774 19455406 19691244 19892764 20056238 20180276 
2416.545 20265566 20315318 20333790 20326532 20298548 20253310 20193084 
2419.920 20118358 20029798 19927694 19813788 19690516 19561004 19427790 
2423.296 19293334 19159474 19028114 18902018 18784576 18680064 18592940 
2426.671 18526892 18484604 18467698 18476894 18512818 18576030 18667196 
2430.046 18786234 18932682 19104868 19300296 19516952 19753344 20008842 
2433.421 20284278 20580004 20896134 21231802 21585036 21954242 22338378 
2436.797 22737692 23154112 23590384 24049508 24533656 25044496 25583138 
2440.172 26150214 26746220 27371876 28026850 28710636 29422126 30159612 
2443.547 30921938 31708308 32518498 33352130 34208160 35084056 35975940 
2446.922 36878856 37787524 38697336 39604448 40505928 41399184 42281976 
2450.298 43151636 44005696 44841640 45656112 46445344 47203952 47924852 
2453.673 48599916 49220588 49778456 50267060 50680772 51014528 51263448 
2457.048 51421420 51481512 51437120 51282464 51014192 50631624 50136136 
2460.423 49530868 48819796 48007736 47100536 46105796 45033124 43894136 
2463.799 42700944 41466328 40202024 38918600 37625764 36333128 35050472 
2467.174 33788852 32559172 31372462 30238572 29164896 28156930 27217830 
2470.549 26348662 25549576 24819416 24156122 23556032 23013574 22522144 
2473.924 22074046 21661862 21279404 20921724 20585598 20269108 19970470 
2477.300 19688434 19421172 19167994 18927732 18700300 18485538 18282838 
2480.675 18091426 17909798 17736462 17570476 17412108 17262588 17123526 
2484.050 16996502 16881466 16777928 16684230 16598986 16521193 16451294 
2487.425 16389871 16337883 16295224 16260859 16233135 16210571 16192550 
2490.801 16180065 16174734 16178861 16193477 16218517 16252190 16292127 
2494.176 16335990 16382748 16431989 16484229 16540123 16599778 16662678 
2497.551 16727170 16791326 16853704 16912780 16967214 17016142 17058940 
2500.926 17095506 17125836 17151446 17174264 17196430 17219836 17245726 
2504.302 17274172 17304444 17335996 17367998 17400416 17433146 17466156 
2507.677 17498686 17529594 17557434 17580138 17596562 17605360 17605740 
2511.052 17596492 17576308 17543808 17497408 17436354 17361238 17273414 
2514.427 17174678 17067694 16954260 16836170 16714910 16592411 16470842 
2517.802 16352711 16240701 16136356 16040457 15952485 15871337 15795941 
2521.178 15725471 15659686 15599301 15545004 15497101 15455828 15421186 
2524.553 15393103 15372129 15358604 15352597 15353763 15360629 15371305 
2527.928 15384384 15398974 15416173 15437838 15466472 15503590 15549812 
2531.303 15604075 15664598 15728803 15795598 15864188 15934989 16008278 
2534.679 16084466 16163178 16244072 16326701 16411584 16499475 16591758 
2538.054 16688880 16790430 16894902 17000084 17103674 17204254 17301720 
2541.429 17396484 17489818 17582830 17676378 17770946 17866848 17964498 
2544.804 18064068 18165736 18268878 18372044 18473542 18571430 18664362 
2548.180 18752296 18835472 18914996 18991594 19065330 19135824 19202796 
2551.555 19266282 19327144 19386904 19447126 19508566 19570916 19632410 
2554.930 19690930 19744258 19791004 19830714 19863524 19889642 19909068 
2558.305 19920376 19921970 19912466 19890890 19856968 19811534 19755668 
2561.681 19690758 19618058 19538858 19454540 19367192 19278752 19191056 
2565.056 19105352 19022470 18942408 18864954 18790596 18719948 18654538 
2568.431 18595846 18545148 18502514 18467904 18440214 18419436 18405298 
2571.806 18398728 18400734 18412108 18432780 18462340 18499196 18542520 
2575.182 18590934 18644092 18701442 18762500 18826476 18892604 18959956 
2578.557 19028632 19098808 19171318 19246886 19325620 19407070 19490232 
2581.932 19574246 19658758 19744328 19832066 19923150 20017690 20115058 
2585.307 20213562 20311636 20407998 20502538 20595884 20689282 20783502 
2588.683 20878506 20973046 21065310 21153488 21236500 21314272 21387394 
2592.058 21457152 21524554 21590746 21656394 21722364 21789702 21859698 
2595.433 21933436 22011402 22093568 22179306 22267886 22359238 22453750 
2598.808 22552472 22656904 22767930 22886000 23010742 23141566 23278058 
2602.184 23420398 23569114 23725092 23889036 24060608 24238730 24422146 
2605.559 24609218 24798752 24990198 25183168 25377486 25572804 25767826 
2608.934 25961210 26151726 26337890 26518040 26690724 26853748 27004562 
2612.309 27140122 27257484 27354338 27429544 27483160 27516234 27530674 
2615.685 27528590 27511964 27482700 27442496 27392664 27334506 27269196 
2619.060 27197404 27119736 27036790 26949384 26858856 26767186 26676418 
2622.435 26589014 26507192 26432426 26365702 26307578 26258156 26217644 
2625.810 26186038 26163902 26151480 26148700 26155880 26173158 26200748 
2629.186 26239044 26288428 26348838 26419820 26500606 26589824 26686002 
2632.561 26787804 26894354 27004878 27119136 27236810 27357760 27481958 
2635.936 27609336 27740138 27874196 28011582 28151804 28294548 28438472 
2639.311 28583006 28727380 28870878 29013824 29155716 29296594 29436202 
2642.687 29573944 29709454 29842596 29973578 30103426 30232746 30362388 
2646.062 30492602 30623496 30754818 30886502 31018938 31153122 31290374 
2649.437 31431980 31578944 31731832 31891234 32057080 32229484 32408952 
2652.812 32595676 32790158 32992308 33202030 33418686 33641824 33871124 
2656.188 34106536 34348320 34596796 34852168 35114340 35382600 35656096 
2659.563 35934008 36215488 36499776 36786204 37074296 37363232 37652360 
2662.938 37940776 38227680 38512316 38794636 39074460 39352724 39630724 
2666.313 39909816 40191884 40478500 40770768 41069492 41374584 41686016 
2669.688 42003292 42325916 42653348 42985236 43320924 43658960 43998220 
2673.064 44337148 44673924 45007212 45335864 45658508 45973800 46280220 
2676.439 46576120 46860044 47131892 47392636 47645332 47893548 48142164 
2679.814 48396112 48659804 48936452 49229236 49540224 49871432 50224728 
2683.189 50601168 51001372 51425072 51871476 52339644 52828296 53337244 
2686.565 53865880 54414312 54982016 55568164 56171240 56789276 57420600 
2689.940 58063940 58718588 59384180 60060832 60748872 61448424 62159504 
2693.315 62882660 63618652 64368224 65131532 65908632 66698492 67499568 
2696.690 68310368 69129192 69955336 70788272 71627928 72473984 73325592 
2700.066 74181368 75039632 75898488 76756048 77610224 78459264 79300136 
2703.441 80129608 80943544 81737288 82505320 83242928 83944248 84603328 
2706.816 85214144 85770920 86267696 86700392 87065776 87362056 87588608 
2710.191 87745680 87833888 87854416 87808784 87698840 87526792 87294400 
2713.567 87003504 86654240 86246640 85780000 85253736 84668520 84025776 
2716.942 83328504 82580136 81784448 80945616 80068008 79156184 78216360 
2720.317 77254968 76279544 75298112 74317976 73346144 72389152 71453016 
2723.692 70543264 69665864 68825640 68027184 67274128 66568620 65911984 
2727.068 65304868 64747788 64241244 63786052 63383028 63032240 62733756 
2730.443 62486628 62289324 62140196 62037600 61980000 61965940 61993644 
2733.818 62061600 62167380 62308788 62483492 62688776 62922224 63180252 
2737.193 63459368 63754820 64061068 64372644 64684024 64990164 65287112 
2740.569 65571016 65839104 66088924 66318536 66527216 66715412 66884512 
2743.944 67037052 67176232 67305392 67427312 67544792 67660312 67775712 
2747.319 67893272 68014624 68141168 68273288 68410648 68552672 68698704 
2750.694 68848976 69005040 69169752 69346816 69540472 69755072 69994336 
2754.070 70261936 70560768 70893736 71262768 71669120 72112264 72590752 
2757.445 73101104 73639136 74199800 74777536 75366600 75960528 76551712 
2760.820 77132104 77692520 78223176 78715880 79162512 79556624 79893336 
2764.195 80168824 80380280 80526112 80606168 80621808 80576176 80473872 
2767.571 80320440 80121960 79885248 79616792 79323440 79012880 78691776 
2770.946 78367216 78045208 77730520 77426400 77135272 76858304 76596648 
2774.321 76350720 76120992 75906936 75706904 75518368 75337200 75158392 
2777.696 74976704 74785880 74579400 74350032 74090656 73794536 73456472 
2781.072 73073696 72646448 72178064 71675016 71144480 70595184 70035328 
2784.447 69471408 68909936 68356120 67814096 67286976 66777228 66285648 
2787.822 65812120 65356016 64916700 64493208 64085916 63694656 63319960 
2791.197 62961944 62620104 62293796 61982332 61684688 61400104 61127800 
2794.573 60865804 60611664 60361520 60111136 59856032 59592560 59317436 
2797.948 59028672 58724884 58404748 58067120 57710796 57334688 56937864 
2801.323 56520036 56081388 55622316 55143564 54645608 54129576 53597020 
2804.698 53050776 52493888 51931148 51366928 50805936 50252216 49709532 
2808.073 49181068 48670260 48180372 47714964 47277316 46870488 46496124 
2811.449 46155432 45848400 45574556 45332772 45121744 44940068 44786316 
2814.824 44659016 44556792 44478524 44423576 44391720 44383092 44398216 
2818.199 44437524 44501468 44590572 44705436 44846708 45015404 45212080 
2821.574 45437056 45689092 45966580 46266508 46585600 46920580 47268412 
2824.950 47626180 47990936 48359072 48726116 49086380 49433360 49760472 
2828.325 50060504 50327368 50555196 50738828 50874624 50959792 50993252 
2831.700 50975852 50910128 50799828 50649568 50464040 50248312 50007000 
2835.075 49745164 49468036 49180364 48887132 48591652 48296228 48000740 
2838.451 47704388 47405352 47102016 46794164 46482000 46167072 45850716 
2841.826 45534040 45217372 44900572 44583628 44266884 43951212 43638664 
2845.201 43331176 43030704 42739036 42456956 42184948 41923224 41671536 
2848.576 41429476 41196364 40971424 40753516 40541904 40336136 40137004 
2851.952 39946144 39765928 39599148 39448360 39315140 39200680 39105132 
2855.327 39028204 38969376 38927732 38902364 38891384 38892256 38902112 
2858.702 38916172 38930088 38939148 38938496 38923856 38892216 38841308 
2862.077 38770476 38680456 38573472 38452796 38322420 38187016 38050932 
2865.453 37918608 37794320 37681920 37584864 37506004 37446944 37408768 
2868.828 37391112 37393060 37413176 37450048 37502172 37568244 37647336 
2872.203 37737792 37838568 37948696 38067928 38197436 38339176 38495736 
2875.578 38669696 38862392 39074280 39303968 39549712 39809288 40081004 
2878.954 40364204 40658428 40963560 41278780 41602648 41933224 42267880 
2882.329 42604368 42940572 43274616 43604484 43927936 44242524 44545044 
2885.704 44832672 45103400 45355576 45588836 45803512 46000356 46180928 
2889.079 46347384 46502320 46648716 46790476 46930916 47073396 47220796 
2892.455 47375900 47541256 47720104 47916376 48134172 48377740 48650132 
2895.830 48952588 49283052 49636684 50004992 50375664 50734804 51066028 
2899.205 51352344 51579184 51734692 51812188 51811332 51738276 51604336 
2902.580 51423320 51211292 50982520 50748360 50517600 50296416 50088392 
2905.956 49896524 49722500 49567784 49433396 49320020 49227900 49157284 
2909.331 49108640 49082412 49078884 49097992 49138396 49197508 49271876 
2912.706 49356916 49448100 49541340 49632784 49719640 49799300 49869468 
2916.081 49927672 49971684 49999228 50009008 50000348 49974396 49933360 
2919.457 49881136 49822864 49763964 49709832 49665100 49632412 49612468 
2922.832 49603812 49603180 49605704 49605632 49597200 49574580 49532428 
2926.207 49466812 49374776 49255548 49110496 48944056 48762628 48574160 
2929.582 48387964 48212880 48056512 47925480 47824848 47758124 47727760 
2932.958 47735488 47782164 47868168 47993340 48157120 48358184 48595356 
2936.333 48866888 49169860 49501492 49857052 50231572 50619600 51015720 
2939.708 51415488 51815248 52212540 52605108 52990616 53365188 53723476 
2943.083 54058344 54360196 54618704 54822068 54958964 55019812 54997772 
2946.458 54890832 54701832 54440076 54119892 53757828 53372908 52982644 
2949.834 52600316 52235968 51894104 51575116 51276460 50993812 50722180 
2953.209 50457232 50195200 49933544 49670672 49405808 49138656 48869224 
2956.584 48597620 48324000 48048224 47770440 47490428 47208272 46924084 
2959.959 46638388 46351768 46065120 45779692 45496952 45218328 44945764 
2963.335 44681488 44427576 44186948 43962212 43756688 43573640 43416264 
2966.710 43287100 43187504 43117020 43073256 43051416 43045668 43048964 
2970.085 43053904 43054380 43044792 43021156 42980916 42923048 42848480 
2973.460 42759624 42661208 42559528 42460936 42371100 42292900 42224680 
2976.836 42159352 42085168 41986104 41843496 41640136 41361392 40997352 
2980.211 40545356 40009352 39400680 38735440 38034548 37320876 36615912 
2983.586 35939584 35307976 34731984 34218952 33772736 33395212 33087696 
2986.961 32851658 32688118 32596030 32569960 32598388 32660682 32729096 
2990.337 32769722 32745316 32623750 32380786 32005466 31502728 30892586 
2993.712 30207810 29484818 28762356 28072870 27438260 26870702 26371968 
2997.087 25936906 25556360 25220386 24920468 24649718 24403150 24176824 
3000.462 23966866 23769992 23582652 23402108 23226288 23054590 22887154 
3003.838 22724354 22566676 22414534 22267606 22125818 21989096 21857644 
3007.213 21732116 21613104 21501298 21397210 21300596 21211134 21127850 
3010.588 21049484 20975028 20903122 20833070 20764420 20697170 20632190 
3013.963 20570728 20514590 20465858 20426264 20397370 20379902 20373652 
3017.339 20377508 20389524 20406920 20426682 20446132 20462872 20475272 
3020.714 20482218 20483122 20477008 20462664 20438074 20401400 20351046 
3024.089 20286396 20208462 20119850 20024490 19926966 19831442 19741312 
3027.464 19658516 19583568 19515948 19454470 19397264 19342524 19288346 
3030.840 19232824 19174124 19110928 19042308 18967882 18888176 18804228 
3034.215 18717666 18630534 18545426 18465034 18391816 18328148 18275476 
3037.590 18234460 18204570 18184808 18173474 18169224 18170986 18178414 
3040.965 18191440 18210168 18234008 18262346 18293932 18327250 18360948 
3044.341 18394166 18425970 18455666 18482462 18505350 18523710 18536884 
3047.716 18545114 18549162 18550232 18549610 18547984 18545528 18541760 
3051.091 18535536 18525784 18511678 18492558 18468078 18437620 18400804 
3054.466 18356904 18306028 18248626 18186328 18121236 18056020 17993194 
3057.842 17934350 17880588 17831944 17787792 17747750 17710750 17676378 
3061.217 17643420 17610708 17577068 17541082 17502134 17460118 17415970 
3064.592 17371514 17328512 17289032 17254450 17225662 17202736 17185398 
3067.967 17173058 17164924 17160130 17157926 17157546 17158512 17160718 
3071.343 17164510 17170646 17179952 17193360 17211598 17234730 17262208 
3074.718 17293410 17326858 17361100 17394896 17427144 17456912 17484264 
3078.093 17509516 17533286 17556470 17579310 17601910 17623716 17643938 
3081.468 17661882 17676792 17688456 17696842 17702226 17704848 17704952 
3084.844 17702950 17699740 17696428 17694840 17696566 17702882 17714064 
3088.219 17729354 17747406 17766528 17785202 17802944 17819894 17836398 
3091.594 17852866 17869438 17885766 17901580 17917050 17933210 17951582 
3094.969 17974236 18002416 18036678 18075778 18118060 18160932 18202392 
3098.344 18241232 18276616 18308792 18337858 18364024 18387426 18408270 
3101.720 18427698 18446642 18466694 18488996 18513890 18541104 18569424 
3105.095 18597748 18625692 18653466 18682244 18713306 18747660 18785406 
3108.470 18825472 18866582 18907416 18946976 18985294 19022816 19060102 
3111.845 19096870 19132742 19166676 19197844 19225898 19251770 19276916 
3115.221 19303276 19332444 19365252 19401490 19440054 19479768 19519310 
3118.596 19558058 19595944 19633208 19670580 19708338 19746652 19785524 
3121.971 19824642 19863662 19902094 19939594 19975812 20010748 20044440 
3125.346 20077130 20109090 20140846 20172952 20205890 20240050 20275738 
3128.722 20312958 20351500 20390806 20429946 20468012 20503962 20537380 
3132.097 20568472 20598314 20628264 20660338 20695954 20736094 20780758 
3135.472 20829212 20879862 20931180 20981566 21029626 21074630 21116266 
3138.847 21154982 21191582 21227452 21264126 21303136 21345628 21391850 
3142.223 21441696 21493916 21547324 21600534 21652598 21703310 21752670 
3145.598 21800990 21849072 21897610 21947064 21997984 22050864 22105490 
3148.973 22162116 22220244 22279464 22339250 22399182 22459194 22519528 
3152.348 22580114 22641058 22701940 22762098 22821040 22878318 22934412 
3155.724 22989850 23045960 23103510 23163164 23225064 23288930 23354448 
3159.099 23421656 23491078 23563342 23639258 23718722 23801212 23885710 
3162.474 23971032 24056196 24140990 24225906 24311506 24398312 24485942 
3165.849 24573450 24659574 24742628 24821696 24896466 24967036 25033826 
3169.225 25097150 25157080 25213154 25264986 25311942 25353564 25389816 
3172.600 25420378 25444972 25463172 25474836 25479860 25478666 25472060 
3175.975 25461414 25448238 25433906 25419502 25406082 25393890 25383528 
3179.350 25374922 25368072 25362732 25358694 25355708 25353634 25352616 
3182.726 25353072 25355004 25358904 25365016 25373200 25383598 25395998 
3186.101 25410506 25426948 25445182 25464788 25485096 25505334 25525012 
3189.476 25544130 25562824 25581836 25601694 25622538 25644118 25665700 
3192.851 25686580 25706478 25725568 25744692 25764628 25786286 25809984 
3196.227 25835444 25861994 25889250 25916718 25944538 25972608 26000750 
3199.602 26028436 26054400 26077834 26098522 26116714 26133920 26151586 
3202.977 26170942 26192304 26215144 26238164 26260198 26280650 26299622 
3206.352 26318316 26337642 26358380 26380348 26402778 26424822 26445950 
3209.728 26466162 26486060 26505748 26525576 26544630 26561890 26576226 
3213.103 26587886 26597572 26607438 26619730 26635902 26656090 26678672 
3216.478 26701716 26722542 26739560 26752528 26762572 26771416 26780720 
3219.853 26791646 26804826 26820052 26837356 26856884 26879232 26904824 
3223.229 26933696 26965460 26998814 27032276 27064190 27093496 27119770 
3226.604 27143190 27164388 27183930 27202308 27219910 27236810 27253250 
3229.979 27269690 27286344 27303668 27321874 27341424 27362066 27383662 
3233.354 27406144 27429508 27453508 27478464 27504374 27531416 27559270 
3236.729 27587586 27615478 27641784 27665972 27687304 27706516 27724740 
3240.105 27743530 27764544 27789128 27817212 27847770 27878966 27908892 
3243.480 27936100 27960340 27981932 28002288 28022610 28043746 28065766 
3246.855 28088634 28112176 28137064 28164356 28195114 28230014 28268734 
3250.230 28309438 28349404 28385800 28416256 28439710 28456902 28469462 
3253.606 28479616 28489274 28499392 28510468 28521862 28533430 28544614 
3256.981 28555760 28567012 28578868 28591182 28604028 28616982 28629652 
3260.356 28642040 28654356 28666886 28679840 28693608 28707840 28722000 
3263.731 28735274 28747064 28756550 28763420 28767736 28770180 28771632 
3267.107 28773190 28775810 28780058 28785934 28792238 28797938 28801408 
3270.482 28801620 28797972 28790502 28779846 28767312 28753966 28741152 
3273.857 28730140 28721928 28716936 28715628 28717290 28720938 28724618 
3277.232 28726600 28725468 28720654 28713044 28703980 28695558 28689574 
3280.608 28687026 28688124 28691804 28696866 28701962 28706000 28708760 
3283.983 28710070 28710104 28709326 28707486 28704832 28701468 28697574 
3287.358 28693680 28690140 28687310 28685504 28684654 28684654 28684902 
3290.733 28685008 28684442 28682672 28679946 28676938 28674638 28675028 
3294.109 28679450 28689256 28704230 28722990 28743310 28762178 28777578 
3297.484 28788450 28795458 28800452 28806010 28814118 28825802 28840426 
3300.859 28856716 28872792 28887594 28900660 28912774 28924956 28938450 
3304.234 28953786 28970928 28989170 29008014 29026966 29046166 29066288 
3307.610 29088148 29112134 29138674 29166914 29196186 29224962 29252110 
3310.985 29276532 29297870 29316052 29331756 29346256 29360580 29375718 
3314.360 29392274 29410248 29429288 29448648 29468152 29487620 29507656 
3317.735 29528652 29551066 29575114 29600048 29625234 29649640 29672700 
3321.111 29694234 29714068 29732376 29749052 29763884 29776588 29787376 
3324.486 29796746 29805688 29815626 29827336 29841248 29856900 29872622 
3327.861 29887390 29899634 29909112 29916174 29921642 29926540 29931332 
3331.236 29935698 29939142 29940456 29938610 29932788 29922778 29908438 
3334.612 29890228 29868542 29844372 29818642 29792912 29767966 29744724 
3337.987 29723362 29703282 29683448 29662448 29639068 29612498 29582384 
3341.362 29548760 29511948 29472406 29430602 29387204 29342710 29297586 
3344.737 29252004 29205542 29157310 29106360 29051764 28993244 28931614 
3348.113 28868612 28806152 28746070 28689398 28635704 28584140 28533078 
3351.488 28481172 28428176 28374162 28320224 28267496 28216258 28166264 
3354.863 28116772 28066648 28014974 27961648 27907090 27852504 27799620 
3358.238 27749780 27704326 27664206 27629496 27599978 27574486 27551786 
3361.614 27530108 27507868 27483830 27457322 27427814 27395592 27360830 
3364.989 27323778 27285180 27245594 27206188 27168656 27134478 27104922 
3368.364 27080412 27060170 27042644 27025330 27006114 26983160 26955942 
3371.739 26924354 26889490 26852196 26813318 26773286 26731984 26689136 
3375.115 26644604 26598136 26549456 26498352 26444574 26388484 26329826 
3378.490 26269700 26208352 26146378 26083498 26018902 25950870 25877608 
3381.865 25797678 25709924 25614312 25511414 25402672 25289500 25173336 
3385.240 25055412 24937030 24818786 24701554 24585758 24471080 24357448 
3388.615 24243984 24130200 24015958 23901640 23788192 23676732 23567924 
3391.991 23462084 23358924 23257852 23157676 23057526 22957012 22855720 
3395.366 22753438 22649958 22545386 22439620 22332934 22226138 22119438 
3398.741 22013112 21907264 21801616 21696030 21590398 21485560 21382730 
3402.116 21283196 21187408 21095082 21004448 20912962 20818540 20719726 
3405.492 20617078 20512368 20408136 20307020 20210544 20118496 20030076 
3408.867 19943582 19858042 19773352 19689926 19609012 19531336 19456862 
3412.242 19384652 19313392 19241518 19168200 19093166 19016760 18939190 
3415.617 18861008 18782292 18702550 18621888 18539720 18456634 18372804 
3418.993 18289092 18206538 18126418 18049940 17978552 17913564 17855144 
3422.368 17802704 17753998 17706748 17657706 17604912 17547396 17485612 
3425.743 17421386 17356410 17292584 17230904 17171334 17113394 17056356 
3429.118 16999292 16941686 16882844 16822082 16758678 16692219 16622810 
3432.494 16551415 16479617 16408933 16340636 16274789 16210675 16147049 
3435.869 16082780 16017869 15953276 15890755 15831782 15777078 15725471 
3439.244 15674902 15622142 15565231 15503109 15437150 15369417 15303169 
3442.619 15240571 15182577 15128504 15075981 15022778 14966289 14905555 
3445.995 14840510 14772664 14704622 14639059 14579194 14526325 14481411 
3449.370 14443045 14408894 14375809 14340328 14300399 14255234 14205623 
3452.745 14153759 14101833 14051589 14003474 13956595 13909653 13861040 
3456.120 13810243 13757948 13705248 13654024 13604893 13558296 13513381 
3459.496 13469050 13423937 13377053 13328499 13278414 13227548 13176279 
3462.871 13125392 13074954 13025307 12976930 12930093 12885106 12841965 
3466.246 12800330 12760065 12720757 12682273 12644679 12608112 12572434 
3469.621 12536862 12500269 12461157 12418365 12370907 12319057 12263429 
3472.997 12205936 12148585 12093320 12041912 11995314 11954134 11918000 
3476.372 11886192 11857554 11830484 11803145 11774138 11741966 11705917 
3479.747 11665515 11621201 11573933 11525377 11476995 11431035 11388821 
3483.122 11351713 11319505 11291143 11264788 11237585 11207358 11172101 
3486.498 11131340 11085960 11037628 10989403 10943767 10902755 10867625 
3489.873 10838612 10814935 10795301 10778283 10762319 10746186 10728966 
3493.248 10709948 10689402 10667090 10643728 10619688 10595038 10570220 
3496.623 10545164 10520451 10496926 10475033 10456127 10440752 10428941 
3499.999 10420049 10412243 10403792 10392797 10378408 10360559 10340877 
3503.374 10321604 10305216 10293985 10289235 10291169 10298498 10309050 
3506.749 10320111 10329409 10335041 10336975 10336127 10334905 10336398 
3510.124 10342981 10355944 10375150 10398600 10423681 10448083 10470077 
3513.500 10489154 10505922 10521470 10536033 10549680 10561902 10571646 
3516.875 10578436 10582408 10584275 10585260 10586414 10587364 10587535 
3520.250 10585090 10578368 10565840 10546896 10521232 10489323 10451681 
3523.625 10408442 10359745 10305420 10245334 10180067 10110232 10036745 
3527.000 9960865 9883776 9806396 9729540 9653678 9579151 9505687 9432777 
3530.858 9359811 9286249 9211074 9133612 9053084 8968749 8879628 8785149 
3534.715 8685147 8580674 8473286 8365891 8261461 8162761 8071172 7986656 
3538.573 7908704 7835588 7765994 7699109 7634797 7573596 7514832 7458064 
3542.430 7401371 7342798 7280055 7211628 7137316 7057865 6975095 6890793 
3546.288 6806910 6725298 6647302 6574197 6506890 6445411 6389287 6336801 
3550.145 6285835 6234001 6179517 6122050 6062406 6002435 5944588 5890745 
3554.002 5841812 5797351 5756453 5718144 5681484 5645868 5611194 5576925 
3557.860 5541988 5505175 5465244 5421023 5372344 5320317 5267021 5215073 
3561.717 5167289 5125914 5092221 5065871 5044719 5025042 5001277 4967325 
3565.575 4917793 4849870 4764036 4666430 4566635 4475065 4400819 4348741 
3569.432 4318688 4306440 4305570 4309753 4313200 4312095 4304733 4290745 
3573.290 4271036 4246275 4217300 4184881 4149220 4110952 4070781 4029110 
3577.147 3986840 3944641 3903583 3864635 3829201 3798582 3773414 3753761 
3581.004 3738856 3727025 3716765 3706272 3694643 3680942 3664535 3643918 
3584.862 3617356 3582242 3536274 3479055 3412627 3342035 3274625 3217842 
3588.719 3176652 3152454 3142175 3140773 3141607 3138971 3129259 3110804 
3592.577 3084407 3052373 3017872 2983974 2952615 2924660 2899776 2877394 
3596.434 2856348 2835870 2815160 2793950 2771974 2749299 2725992 2702386 
3600.292 2679382 2657845 2638943 2623742 2612942 2606542 2604675 2606375 
3604.149 2610209 2614475 2616042 2612609 2600875 2578743 2545579 2502787 
3608.006 2454401 2405754 2362576 2328729 2305212 2290189 2279497 2268638 
3611.864 2253950 2234666 2212485 2191372 2175487 2168261 2169759 2177452 
3615.721 2186010 2188941 2180316 2155341 2112787 2054557 1986448 1917186 
3619.579 1855255 1808305 1779692 1768846 1771474 1782054 1794963 1806209 
3623.436 1814893 1822213 1831064 1843742 1860379 1877384 1887034 1879181 
3627.293 1843442 1774568 1676567 1564454 1460383 1385387 1350022 1352581 
3631.151 1382130 1424446 1467331 1501975 1524918 1537719 1544303 1549624 
3635.008 1556706 1565386 1573233 1576060 1570440 1555144 1531169 1501643 
3638.866 1470889 1442830 1420224 1404401 1395592 1393631 1398517 1410185 
3642.723 1428468 1452570 1480431 1509357 1534959 1553215 1559699 1551585 
3646.581 1526613 1484720 1427538 1358098 1281159 1203171 1131608 1074307 
3650.438 1038734 1029700 1047735 1089188 1146525 1210547 1270924 1318647 
3654.295 1347163 1353279 1338987 1311601 1282456 1262982 1261586 1280495 
3658.153 1316453 1361455 1405731 1440469 1458987 1457590 1437278 1402506 
3662.010 1360192 1317683 1282024 1258130 1248760 1254641 1275577 1310405 
3665.868 1357367 1414340 1478070 1544403 1610147 1674139 1741400 1823511 
3669.725 1939251 2108891 2346518 2654845 3024612 3438776 3875300 4309786 
3673.583 4717608 5065737 5316694 5435114 5397001 5203840 4881300 4468738 
3677.440 4003527 3515430 3029083 2565210 2144718 1786745 1503039 1294951 
3681.297 1152737 1060223 999610 956605 924063 900057 885182 879239 878675 
3685.637 876882 865727 838437 792095 729992 660532 594632 541515 505754 
3689.977 486812 481505 486215 498423 516999 540686 567492 594168 616664 
3694.316 632293 639360 639128 635047 631629 632890 641053 655454 672777 
3698.656 688275 696737 693618 676925 647159 607772 564705 525425 496698 
3702.995 483197 486580 505920 537766 577247 619650 660698 697202 726773 
3707.335 748479 761856 766403 762022 748579 725877 694647 656848 615702 
3711.675 576152 543406 522373 516037 524928 546657 577412 612085 645732 
3716.014 674303 695443 708652 715621 718774 721031 723852 727603 730822 
3720.354 731751 728963 721828 711506 699757 687976 676759 664912 650311 
3724.693 630766 605714 576948 549477 529672 524828 538928 572104 619949 
3729.033 674901 726673 765905 785788 783929 763582 732316 699957 674071 
3733.373 656749 644039 628410 602363 562947 513947 464920 428137 412184 
3737.712 420309 450127 496200 552563 614175 677821 740381 796742 839732 
3742.052 858821 841889 780842 677390 549013 426578 344432 321452 354745 
3746.391 424157 504128 571971 610194 611090 575986 514909 441802 370928 
3750.731 312433 270424 246322 241050 255836 291710 347317 417590 494508 
3755.071 568886 632259 678418 705067 712668 704603 684923 657412 625391 
3759.410 592542 563080 542146 534515 542444 564108 594699 626519 651638 
3763.750 665012 665244 655289 640953 628643 621940 620579 620347 615469 
3768.089 601501 576981 544368 509668 481041 464787 464522 479946 507578 
3772.429 542411 578773 612218 639659 659569 672180 678784 681040 680111 
3776.769 675996 667799 654227 634980 611986 589091 572104 566232 573730 
3781.108 593106 619385 645898 666040 675797 674735 665841 653994 644537 
3785.448 640555 642579 648419 654227 657114 654957 647723 636606 623433 
3789.787 610260 598879 590949 587631 589987 597652 609132 621243 629903 
3794.127 631131 622438 604520 581128 559331 546790 548449 565469 593006 
3798.467 622438 642579 642513 615005 559298 483761 404887 343238 315285 
3802.806 326625 371790 437291 506749 564307 598083 603292 583285 548980 
3807.146 515905 498224 502403 527018 564141 604520 640688 669127 690498 
3811.485 707955 724715 741808 756512 763117 754985 727005 679514 620214 
3815.825 563710 525591 516800 538762 584081 638796 686881 714692 712834 
3820.165 679978 623665 560492 510630 488969 500479 539525 594234 650045 
3824.504 694315 719504 723255 709116 684923 660399 643608 637900 641882 
3828.844 651008 659470 662423 657744 646959 634250 624793 623566 633222 
3833.183 653231 680277 708519 731851 744165 740879 720201 684226 638299 
3837.523 590717 550075 523369 512886 517232 531132 549245 566364 578972 
3841.863 586105 588395 587167 584811 583650 585641 592177 604221 621840 
3846.202 644338 670487 698961 728432 758404 788842 819182 847898 870707 
3850.542 880434 867553 821606 735668 611421 463726 320623 212175 158243 
3854.881 161492 210153 286704 374509 462565 543804 615204 675730 724682 
3859.221 761225 784659 794684 792128 779149 759433 736265 712269 688242 
3863.561 665144 643741 626851 618124 621409 637768 664447 694414 717580 
3867.900 724748 709316 671118 618290 565402 528677 517729 533288 567028 
3872.240 606743 640190 659569 663386 656019 645831 641517 648552 667666 
3876.579 694680 722160 742571 749409 738721 710842 670388 626320 588560 
3880.919 566796 566862 588494 626386 670553 710643 736332 740514 722857 
3885.259 689669 653364 627348 622504 641551 680376 729096 776427 812112 
3889.598 828677 823432 799132 762951 724516 693054 675299 673474 686914 
3893.938 712568 746422 784029 820909 852712 875587 886610 884551 870142 
3898.277 846736 818884 792593 772411 760362 755848 755118 753093 744762 
3902.617 727669 701981 671416 641949 620380 611488 617626 637602 667832 
3906.957 703939 741443 776660 807796 834188 856099 874359 889631 902946 
3911.296 914401 924727 933958 942094 948735 953118 953915 949731 939703 
3915.636 923963 903643 880999 858622 838570 822104 809887 801755 798037 
3919.975 799431 806667 820543 840296 864033 888403 909354 923399 928845 
3924.315 926122 917787 907660 899426 895309 895907 900090 905867 911744 
3928.655 915662 917289 915729 910549 901485 888370 872433 855302 840362 
3932.994 830635 828345 834353 847168 864067 881962 897865 910483 919780 
3937.334 926554 931767 936050 938541 937611 931368 918186 897865 871537 
3941.673 841524 811647 785887 767565 759233 761590 773772 793223 816759 
3946.013 840263 860547 875155 883589 886544 886411 885713 886112 888901 
3950.353 893051 897268 900123 900787 899160 895973 892487 889366 887440 
3954.692 886676 886942 888336 890959 895475 901916 909951 918883 927018 
3959.032 932929 935220 933659 928513 921108 912907 905336 899858 897600 
3963.371 898994 904473 914201 927616 943920 961553 979219 995127 1008179 
3967.711 1017710 1023788 1026545 1026744 1024685 1020600 1015120 1008743 
3971.568 1002201 996522 992869 991972 993699 997916 1003263 1008810 1013625 
3975.908 1017112 1019504 1021397 1023921 1027508 1032921 1040096 1048399 
3979.765 1057301 1065305 1072048 1076964 1079954 1081415 1081814 1081548 
3983.623 1080784 1079489 1077761 1075635 1073609 1072779 1073975 1077894 
3987.480 1084305 1092410 1100283 1106063 1107923 1105431 1098721 1089454 
3991.338 1079322 1069922 1062250 1056271 1051222 1045974 1039697 1031925 
3995.195 1022858 1013160 1003762 995160 988319 983171 979784 978057 977858 
3999.535 978588 980249 982408 
##END=
