##TITLE=1111a_2_a
##JCAMP-DX=5.01  $$ Nicolet v. 1
##DATATYPE=INFRARED SPECTRUM
##ORIGIN=UniL
##OWNER=Nicolet
##LONGDATE=2011/09/28
##TIME=14:54:58
##SPECTROMETER/DATA SYSTEM=Nicolet iS5
##DATA PROCESSING=
Ratio against background
%Transmittance->Absorbance
Truncated
ElementMultiply or ElementDivide
##COMMENTS=
Number of sample scans: 32
Collection length: 51.19 sec
Sample gain: 2.0
Background collected on: Mer Sep 28 14:52:02 2011 (GMT+02:00);
Number of background scans: 32
Background gain: 2.0
Sample spacing:  1.000
Number of scan points: 12415
Resolution points: 8192
Number of FFT points: 65536
Apodization: N-B fort;
Phase correction: Mertz;
Laser frequency: 15798.0 cm-1
Number of rejected sample scans: 0
Number of rejected background scans: 0
Bench serial number: ASB1000141;
##RESOLUTION=4.000
##XUNITS=1/CM
##YUNITS=ABSORBANCE
##FIRSTX=649.893372
##LASTX=4000.122314
##FIRSTY=0.077811
##MAXX=4000.122314
##MINX=649.893372
##MAXY=0.280502
##MINY=0.001818
##XFACTOR=1.000000
##YFACTOR=1.000000E-009
##NPOINTS=6950
##DELTAX=0.482117
##ZPD=6100
##XYDATA=(X++(Y..Y))
649.893 77810536 77758616 77716376 77702344 77718000 77753224 77800032 
653.268 77862464 77962528 78130672 78392256 78754256 79200272 79699864 
656.643 80222624 80754440 81304272 81897944 82561664 83304944 84114320 
660.018 84958296 85805712 86638704 87464776 88307408 89195376 90142624 
663.393 91140320 92159032 93162120 94118056 95000360 95787728 96451848 
666.767 96948328 97227304 97261008 97074472 96740696 96342136 95928248 
670.142 95501904 95034864 94490032 93843784 93097576 92282240 91445688 
673.517 90639040 89894320 89216704 88589832 87989712 87399136 86815912 
676.892 86251048 85720336 85233336 84788520 84374544 83977528 83589672 
680.267 83212104 82853040 82519864 82211816 81917984 81620040 81300360 
683.642 80949096 80568952 80172168 79773920 79383544 79002624 78625768 
687.016 78247184 77866144 77490792 77133888 76808640 76519264 76260184 
690.391 76016264 75771248 75512808 75237664 74951112 74662976 74382072 
693.766 74113024 73856320 73613144 73388120 73192112 73040568 72946968 
697.141 72919728 72957544 73050528 73183488 73342336 73518360 73707328 
700.516 73909344 74123520 74345112 74566384 74778360 74973864 75151496 
703.890 75314144 75466640 75611776 75747896 75869528 75970984 76050792 
707.265 76115024 76175088 76245768 76337640 76453872 76589496 76735840 
710.640 76889392 77057960 77264776 77544504 77935408 78461480 79119968 
714.015 79868880 80631976 81303952 81769888 81938560 81755208 81221336 
717.390 80394592 79386096 78340664 77404344 76718408 76390656 76481688 
720.765 77003712 77911376 79107288 80435552 81706336 82720616 83286632 
724.139 83275960 82645416 81456368 79858648 78063600 76298496 74739080 
727.514 73495008 72594512 72001024 71639528 71429120 71309272 71242432 
730.889 71212992 71215680 71244960 71291424 71344640 71398072 71454040 
734.264 71520640 71607928 71719336 71849624 71985848 72115704 72233784 
737.639 72345552 72464472 72605592 72777008 72976392 73191760 73408880 
741.013 73619424 73824432 74033808 74258928 74506792 74775056 75054328 
744.388 75333456 75606888 75878640 76158856 76458808 76782424 77124040 
747.763 77470320 77807880 78128768 78435880 78739912 79053376 79382112 
751.138 79723392 80067136 80403768 80729608 81050504 81377320 81720256 
754.513 82080824 82451160 82816512 83164760 83493560 83811888 84134952 
757.888 84475160 84833840 85199752 85554672 85882952 86181464 86462096 
761.262 86746760 87054560 87394312 87759792 88137272 88515648 88897680 
764.637 89302488 89762336 90310248 90967880 91742728 92629424 93617984 
768.012 94700216 95873992 97145000 98531504 100075048 101857664 104027768 
771.387 106783896 110348504 114898432 120457864 126804160 133386448 
774.279 139412208 143898336 145918224 144913216 140822192 134158280 
777.172 125800552 116831480 108227168 100656272 94493160 89787592 86373760 
780.547 83968160 82281896 81084376 80209752 79566128 79104856 78797784 
783.922 78630056 78597624 78709528 78984584 79445800 80111240 80986936 
787.297 82070984 83362872 84873800 86635224 88696584 91112120 93934648 
790.671 97203472 100945664 105184032 109944992 115259216 121152344 127622736 
794.046 134615616 141988656 149516944 156882960 163678752 169473168 
796.939 173813344 176273968 176542704 174443376 169996512 163419440 
799.832 155114960 145607904 135439824 125159112 115235408 106018152 97769576 
803.206 90634512 84660424 79825400 76053208 73239248 71262064 70007024 
806.581 69370680 69261192 69604448 70329752 71357968 72600112 73942968 
809.956 75253384 76401528 77262288 77738680 77775976 77357936 76507376 
813.331 75275760 73740072 71990696 70119936 68223240 66382960 64662488 
816.706 63107716 61741096 60568504 59584504 58780076 58147192 57681920 
820.081 57382860 57249736 57281380 57476044 57834220 58362600 59075248 
823.455 59995052 61148624 62557996 64234136 66166744 68319744 70620800 
826.830 72963184 75210472 77190008 78724336 79652136 79849488 79268872 
830.205 77947656 76010216 73633168 71023656 68386720 65880948 63622600 
833.580 61676820 60062508 58768888 57764840 57010848 56459960 56063968 
836.955 55779808 55568008 55401224 55265620 55158160 55083072 55045648 
840.329 55046740 55081648 55141908 55218432 55306072 55404084 55514996 
843.704 55640960 55781688 55933548 56092056 56254808 56424116 56606012 
847.079 56808652 57037788 57294460 57574848 57873476 58187084 58517600 
850.454 58872124 59260388 59691504 60170120 60695904 61266696 61880992 
853.829 62541620 63256248 64034684 64886616 65818788 66835740 67941280 
857.204 69143336 70454400 71893368 73482600 75243328 77195512 79355584 
860.578 81736608 84348432 87192568 90254288 93487984 96810208 100094872 
863.953 103167720 105836984 107908288 109203552 109599936 109035928 
866.846 107524816 105151240 102068184 98482288 94611800 90684400 86903568 
870.221 83420640 80346400 77740112 75615648 73955304 72716880 71845520 
873.596 71271784 70921352 70717456 70579048 70435776 70232992 69936920 
876.970 69540240 69058144 68523736 67976184 67457232 67007208 66660324 
880.345 66450104 66408516 66562668 66934416 67533600 68354456 69371656 
883.720 70542520 71813336 73119920 74399888 75601008 76684016 77633800 
887.095 78461840 79208744 79934800 80711176 81607600 82672312 83925752 
890.470 85356240 86925944 88578784 90252000 91890744 93445952 94876624 
893.844 96148888 97228552 98082512 98681320 98997080 99007400 98696416 
897.219 98052488 97071984 95762896 94150328 92278640 90212032 88033784 
900.594 85830224 83686200 81677624 79859728 78271856 76937848 75867904 
903.969 75063816 74519376 74222288 74152760 74286568 74599272 75068504 
907.344 75679616 76426848 77310776 78334480 79499560 80803280 82239840 
910.719 83802480 85485888 87286704 89200632 91217288 93318064 95475408 
914.093 97657416 99839272 102010008 104179448 106376704 108648192 111049872 
917.468 113636840 116464272 119580184 123018168 126792136 130880680 
920.361 135219008 139682608 144103248 148289808 152048816 155243184 
923.254 157816640 159818944 161397600 162786336 164280944 166172160 
926.146 168735632 172186176 176633360 182061872 188290064 194978528 
929.039 201581408 207394672 211666528 213621344 212654912 208461568 
931.932 201087632 190961136 178795600 165511168 152015040 139097984 
934.824 127392144 117273040 108918480 102346744 97463288 94120904 92157152 
938.199 91428512 91797944 93119792 95227000 97882840 100779232 103571912 
941.574 105876568 107351648 107763880 107008056 105141784 102356136 98950888 
944.949 95252872 91562352 88128496 85103456 82555856 80487272 78855192 
948.324 77596832 76646056 75948488 75458640 75139248 74960992 74896496 
951.698 74921304 75016872 75169144 75369672 75614456 75900744 76225472 
955.073 76583728 76969456 77376936 77802888 78246504 78709208 79193080 
958.448 79699032 80226008 80771360 81332528 81908064 82499592 83109792 
961.823 83741848 84397288 85075392 85773344 86488296 87218816 87965368 
965.198 88730520 89516608 90323832 91149600 91989512 92839536 93698144 
968.573 94567880 95454144 96363976 97302120 98270016 99265968 100286912 
971.947 101331776 102402728 103504752 104644408 105826456 107052392 
974.840 108320024 109625776 110967304 112344864 113762288 115224048 
977.733 116733536 118291136 119894744 121541856 123232640 124970944 
980.625 126764016 128619448 130541328 132528304 134573648 136667296 
983.518 138797936 140955376 143126832 145293104 147426640 149486208 
986.411 151421584 153183584 154728272 156027504 157072672 157873056 
989.304 158452128 158842384 159086048 159230496 159326272 159428720 
992.196 159586640 159838528 160209040 160705184 161320944 162042752 
995.089 162858176 163758592 164740960 165804816 166948080 168164288 
997.982 169444336 170777872 172158304 173583360 175052720 176562592 
1000.874 178101504 179645680 181163904 182623824 183997584 185270928 
1003.767 186442576 187523760 188531808 189488672 190420512 191356736 
1006.660 192332576 193388112 194559328 195875056 197350016 198982768 
1009.552 200760048 202663936 204680512 206802784 209030352 211363840 
1012.445 213799536 216325808 218926736 221585552 224292144 227043584 
1015.338 229839008 232670992 235515456 238325264 241037376 243580112 
1018.231 245885200 247904560 249611936 251005344 252103472 252945872 
1021.123 253593680 254123456 254634144 255233024 256015840 257060880 
1024.016 258409120 260061584 261983488 264116144 266392224 268736832 
1026.909 271076768 273335456 275424256 277252544 278732256 279789376 
1029.802 280381920 280502368 280176416 279450176 278383136 277040288 
1032.695 275483968 273780576 271992800 270168032 268328848 266455024 
1035.588 264480976 262292112 259747120 256706896 253043856 248673952 
1038.481 243560432 237711280 231177552 224047008 216445728 208520832 
1041.374 200439184 192375504 184480704 176883984 169681440 162928656 
1044.267 156656400 150874736 145579984 140761248 136401184 132476064 
1047.160 128955512 125803992 122985928 120465824 118213704 116205792 
1050.053 114420600 112838896 111439936 110200248 109096792 108108280 
1052.947 107216544 106408880 105673616 104997912 104365008 103751792 
1055.840 103130240 102473248 101755336 100957704 100070208 99089816 98021264 
1059.215 96876008 95674624 94446128 93226176 92058552 90986960 90050800 
1062.590 89284128 88709344 88340424 88183216 88237744 88499192 88956688 
1065.965 89594264 90387024 91302816 92307320 93364480 94442416 95517800 
1069.341 96571968 97591240 98563440 99475024 100312928 101066496 101730328 
1072.716 102306896 102806008 103244120 103640776 104016864 104394120 
1075.609 104792376 105227728 105709504 106235216 106787712 107333320 
1078.502 107829704 108229464 108491376 108591008 108520552 108289584 
1081.395 107917544 107430104 106854152 106217064 105553568 104907624 
1084.288 104333576 103900720 103683552 103757008 104194608 105055128 
1087.181 106380848 108189848 110467920 113158848 116151280 119289440 
1090.074 122362336 125123624 127340600 128802728 129368824 128992304 
1092.967 127722192 125699576 123122992 120240960 117302904 114526128 
1095.860 112094696 110125520 108669088 107713384 107190584 106989104 
1098.753 106961808 106956128 106819448 106413488 105638336 104431712 
1101.646 102779008 100712336 98305992 95665128 92900640 90126064 87437184 
1105.022 84901560 82565912 80453816 78572240 76919448 75488608 74271000 
1108.397 73256312 72434136 71792816 71319304 71000872 70823144 70769320 
1111.772 70819984 70949680 71126336 71315784 71480832 71587136 71609720 
1115.147 71531456 71346088 71056200 70671208 70205496 69676096 69103712 
1118.523 68510576 67918104 67348216 66819584 66347248 65943420 65615952 
1121.898 65368644 65198900 65096496 65040304 64997168 64928092 64790332 
1125.273 64547800 64181396 63693120 63108324 62468380 61826704 61236020 
1128.648 60737784 60361404 60119432 60010312 60020960 60131076 60315680 
1132.024 60545688 60792664 61030512 61238540 61406020 61533360 61632136 
1135.399 61721388 61824216 61963724 62157056 62415736 62742940 63134192 
1138.774 63576608 64050548 64531960 64992352 65403812 65743996 65995724 
1142.149 66150880 66208532 66172996 66051424 65852448 65586360 65264432 
1145.525 64899624 64505896 64094780 63674360 63246212 62805848 62343636 
1148.900 61848288 61310500 60725324 60092796 59417648 58708196 57974412 
1152.275 57226560 56475924 55733580 55009620 54313144 53650288 53023784 
1155.650 52432948 51874948 51346680 50846016 50373204 49930456 49521024 
1159.026 49147860 48812824 48516544 48259196 48040824 47861548 47720768 
1162.401 47615564 47539336 47481892 47428780 47363964 47272776 47141936 
1165.776 46961484 46724500 46426168 46064016 45637964 45151632 44611900 
1169.151 44029604 43418320 42790996 42159684 41533956 40920740 40325916 
1172.527 39756196 39218992 38723996 38281128 37899084 37584684 37342180 
1175.902 37173800 37081552 37067840 37135904 37289752 37533092 37868500 
1179.277 38298244 38824636 39451444 40184472 41030780 41997708 43091332 
1182.652 44315536 45672896 47167016 48804004 50594544 52553496 54696568 
1186.028 57038128 59585488 62335832 65270596 68352592 71525568 74704728 
1189.403 77784848 80647376 83162992 85220112 86738344 87679296 88055000 
1192.778 87921272 87368216 86494528 85398272 84162176 82839528 81459728 
1196.153 80028448 78536472 76968504 75312920 73568400 71747784 69876984 
1199.529 67989704 66124528 64316040 62590488 60966260 59452680 58052728 
1202.904 56767224 55596064 54539920 53599080 52771720 52052604 51431636 
1206.279 50895932 50429764 50017668 49646936 49306808 48988672 48686268 
1209.654 48394484 48109996 47832764 47566468 47319028 47101128 46926152 
1213.030 46807080 46755640 46783092 46899352 47114532 47439388 47883708 
1216.405 48456008 49162032 50004104 50982220 52095000 53342000 54723252 
1219.780 56240212 57893088 59680672 61600332 63649304 65827504 68139656 
1223.155 70594880 73206504 75987328 78946112 82084752 85395648 88861256 
1226.531 92449464 96115112 99794696 103400360 106831232 109969448 112690128 
1229.906 114882976 116451752 117328424 117482696 116923672 115707704 
1232.799 113932608 111746768 109332752 106883688 104607816 102695104 
1235.692 101303864 100570936 100595784 101447904 103175664 105802912 
1238.585 109331952 113734080 118948952 124870928 131339416 138158704 
1241.478 145081840 151822256 158091776 163584896 168015264 171156224 
1244.371 172846176 173024688 171734736 169120384 165400352 160831504 
1247.264 155708992 150321472 144932784 139785088 135053568 130836976 
1250.157 127146112 123898376 120929312 118012480 114922088 111457544 
1253.050 107489552 102989304 98024248 92744848 87338280 82012552 76953152 
1256.426 72291184 68109656 64432368 61236556 58465548 56045456 53899488 
1259.801 51951496 50139820 48418672 46756120 45136264 43553640 42009500 
1263.176 40507928 39053468 37649904 36300564 35009776 33782976 32626140 
1266.551 31544842 30542402 29618352 28769048 27989036 27273358 26618746 
1269.927 26024074 25489208 25013152 24592736 24222788 23896738 23609486 
1273.302 23358260 23142580 22962986 22819400 22709306 22628490 22571562 
1276.677 22534742 22517086 22520818 22549748 22607582 22696214 22815560 
1280.052 22964104 23139086 23337000 23552008 23772862 23983078 24160676 
1283.427 24280844 24323174 24275762 24139588 23927548 23662630 23373226 
1286.803 23085618 22822334 22601020 22432954 22326098 22285464 22312878 
1290.178 22406858 22562244 22771072 23023214 23308716 23618756 23944492 
1293.553 24275974 24601678 24907378 25179234 25406818 25585422 25718572 
1296.928 25816208 25892624 25961456 26033960 26118016 26218136 26338206 
1300.304 26481762 26651544 26847896 27065988 27296188 27523436 27730778 
1303.679 27903238 28028652 28099592 28112282 28065092 27958220 27794358 
1307.054 27580312 27327908 27053506 26776704 26515396 26282972 26086980 
1310.429 25928852 25807312 25721524 25672274 25663098 25697444 25776336 
1313.805 25897198 26054224 26241330 26454084 26691850 26957104 27252896 
1317.180 27580946 27939420 28323902 28729752 29154086 29597176 30061134 
1320.555 30547698 31055486 31579118 32109700 32637570 33155750 33661336 
1323.930 34156972 34649836 35151808 35679292 36251288 36891268 37622044 
1327.306 38459348 39405796 40442788 41529872 42603600 43592064 44427872 
1330.681 45057564 45456224 45628248 45606904 45442904 45198180 44938272 
1334.056 44719980 44593248 44597032 44755716 45081712 45574628 46225080 
1337.431 47018524 47940724 48981512 50134764 51395644 52757128 54206184 
1340.807 55722960 57282436 58853264 60400012 61880800 63241036 64419492 
1344.182 65349272 65964244 66215440 66074184 65537000 64622000 63364544 
1347.557 61810884 60009624 58016144 55889984 53692020 51490912 49356876 
1350.932 47353616 45539780 43957008 42627764 41557472 40736524 40146816 
1354.308 39764620 39564812 39519444 39594756 39754492 39960056 40174256 
1357.683 40369440 40527244 40640056 40708244 40737760 40738196 40722148 
1361.058 40710428 40733060 40827072 41035988 41398528 41939536 42670164 
1364.433 43588036 44684576 45950040 47374864 48943944 50623880 52358592 
1367.809 54061648 55617720 56908472 57821764 58271460 58214284 57647376 
1371.184 56610320 55172908 53438184 51531428 49582860 47730012 46090432 
1374.559 44743048 43724916 43029096 42622500 42463312 42521556 42787520 
1377.934 43274032 44010980 45040548 46412492 48174668 50368704 53014652 
1381.310 56090812 59506064 63077792 66555640 69619616 71939152 73241488 
1384.685 73321544 72092984 69601688 66051884 61787544 57227624 52814560 
1388.060 48885240 45623208 43067844 41147152 39737860 38703672 37931484 
1391.435 37333692 36846796 36431056 36060864 35722712 35413440 35137476 
1394.811 34903444 34719244 34588760 34510188 34477440 34481384 34512020 
1398.186 34559592 34614132 34666920 34711240 34742932 34760448 34763500 
1401.561 34752660 34728648 34694120 34655148 34622276 34611224 34640432 
1404.936 34724664 34872348 35082264 35345216 35648288 35979792 36333492 
1408.312 36708460 37106812 37530208 37976428 38439112 38909396 39379420 
1411.687 39845240 40307448 40768728 41230756 41691852 42146868 42590776 
1415.062 43020536 43437836 43847800 44256024 44665516 45076200 45487164 
1418.437 45903708 46339644 46819332 47366804 47993196 48694276 49452032 
1421.813 50244816 51055148 51880512 52736440 53654900 54673456 55823324 
1425.188 57122888 58574852 60175376 61920464 63810728 65843924 68002344 
1428.563 70246232 72502496 74674312 76665624 78396744 79826632 80959920 
1431.938 81842856 82549680 83162864 83769816 84452656 85293456 86387744 
1435.313 87840176 89752232 92196728 95175104 98612632 102384232 106353848 
1438.689 110391568 114361832 118119536 121472912 124194304 126071992 
1441.582 126923664 126649696 125246016 122791360 119422112 115294776 
1444.475 110581040 105438112 99996920 94381848 88710936 83119016 77783024 
1447.850 72897384 68643864 65149316 62450172 60504284 59221388 58507400 
1451.225 58284304 58497316 59108920 60080124 61364268 62919504 64711520 
1454.601 66731444 69000920 71551816 74395208 77477448 80664936 83776848 
1457.976 86653752 89208240 91418744 93301912 94886800 96207064 97297480 
1461.351 98193080 98924880 99511648 99954328 100238840 100347072 100275688 
1464.726 100048680 99718232 99343224 98962248 98582896 98182024 97722184 
1468.102 97162440 96468432 95608760 94543000 93211936 91538096 89443328 
1471.477 86894464 83949064 80777984 77613832 74671048 72072640 69833976 
1474.852 67904816 66223196 64759596 63531964 62595652 62010996 61825940 
1478.227 62059844 62710516 63772628 65252496 67172904 69567304 72462872 
1481.603 75864712 79747680 84064048 88758608 93780216 99098800 104695640 
1484.978 110544416 116597520 122748976 128810856 134528560 139567040 
1487.871 143548064 146114752 146963440 145929248 143045216 138568160 
1490.764 132933112 126628504 120109256 113686424 107510776 101627608 
1493.657 96004904 90592464 85373384 80378248 75694320 71444984 67743296 
1497.032 64652996 62170440 60245676 58804968 57779600 57121300 56797660 
1500.407 56786900 57069300 57621044 58411380 59405716 60557648 61809700 
1503.783 63091280 64291880 65259008 65792264 65658152 64676716 62815688 
1507.158 60229648 57182492 53918772 50589068 47253304 43928960 40633904 
1510.533 37398836 34283700 31361386 28691274 26313880 24237820 22444434 
1513.908 20900376 19567416 18409134 17390828 16483575 15667105 14931514 
1517.284 14279785 13721491 13263348 12901148 12615923 12374452 12141498 
1520.659 11891028 11621917 11360046 11143918 10999870 10926947 10899629 
1524.034 10881792 10842723 10766157 10657446 10537255 10432504 10360253 
1527.409 10321332 10303180 10290457 10274511 10257480 10248998 10258158 
1530.785 10285605 10320179 10340979 10325404 10262094 10159648 10046240 
1534.160 9953881 9903844 9895843 9913675 9934082 9937201 9912420 9857812 
1538.017 9778302 9680410 9567702 9440328 9299890 9157062 9032413 8947947 
1541.875 8915849 8931441 8976461 9026730 9064519 9084887 9098083 9122547 
1545.732 9174896 9260388 9370882 9488652 9595444 9680342 9742687 9791621 
1549.590 9839442 9894284 9953949 10007313 10038611 10036542 9998261 9931506 
1553.447 9850694 9772033 9706498 9655948 9614008 9570683 9516186 9442224 
1557.304 9341496 9208908 9045100 8864004 8693869 8568069 8507581 8512988 
1561.162 8570333 8657632 8752523 8834888 8891803 8920415 8928363 8930832 
1565.019 8943752 8976969 9029199 9090875 9148399 9192223 9219975 9237507 
1568.877 9255548 9285436 9333574 9400304 9482353 9577491 9685661 9808227 
1572.734 9944761 10091342 10238651 10375592 10494076 10595174 10693138 
1576.109 10812183 10977407 11201000 11481384 11809579 12178367 12588124 
1579.485 13048115 13572552 14176216 14868179 15649792 16513828 17446910 
1582.860 18432468 19447228 20459502 21429616 22306984 23040860 23591782 
1586.235 23938436 24086350 24066912 23937596 23769398 23641148 23633940 
1589.610 23815492 24238730 24935696 25909472 27129046 28521968 29983910 
1592.986 31374882 32539814 33340324 33661548 33440944 32678936 31438890 
1596.361 29835392 28004692 26092996 24222684 22482676 20933892 19605130 
1599.736 18503000 17617782 16930488 16418258 16059916 15841335 15756255 
1603.111 15804531 15989060 16311254 16768150 17350756 18042272 18816336 
1606.487 19637196 20452590 21197392 21802870 22198974 22332658 22176446 
1609.862 21731978 21031364 20131510 19110270 18046140 17009008 16051149 
1613.237 15197949 14454349 13810825 13251085 12758221 12320625 11935879 
1616.612 11609324 11350114 11165845 11056457 11014212 11025019 11070834 
1619.988 11132699 11193996 11241870 11270569 11282301 11286790 11296278 
1623.363 11320322 11361746 11416714 11478152 11539225 11596597 11649961 
1626.738 11700199 11747720 11791739 11830859 11864978 11896817 11931690 
1630.113 11974877 12029854 12095671 12167190 12235210 12289436 12320284 
1633.489 12320284 12285653 12217625 12124155 12019532 11922359 11849723 
1636.864 11811758 11809682 11837362 11884184 11938025 11987105 12024165 
1640.239 12046887 12059559 12070427 12088176 12118022 12158569 12202391 
1643.614 12237562 12252421 12237323 12188556 12109845 12012174 11911223 
1646.990 11823675 11763924 11740843 11756808 11808864 11889461 11985708 
1650.365 12078876 12145518 12156729 12086950 11929613 11717150 11516530 
1653.740 11390045 11361474 11411374 11504417 11607112 11698667 11769881 
1657.115 11818875 11848259 11861539 11860722 11845841 11815061 11766511 
1660.490 11699381 11613885 11512277 11398175 11276349 11153743 11038308 
1663.866 10938126 10859131 10802706 10765580 10739394 10713174 10674289 
1667.241 10612286 10521571 10403895 10267895 10127258 9996464 9885912 
1670.616 9800229 9739027 9698333 9671702 9650019 9622071 9575155 9497830 
1674.474 9385983 9246950 9101195 8972030 8877532 8821261 8794312 8780112 
1678.331 8762361 8731528 8686601 8635088 8587906 8553538 8531099 8509676 
1682.188 8469333 8389098 8255415 8074514 7874928 7697288 7572214 7504920 
1686.046 7481121 7479300 7481997 7477817 7462109 7434368 7396416 7350313 
1689.903 7299092 7246766 7199297 7162377 7139842 7130849 7128289 7118656 
1693.761 7086559 7018431 6911294 6777629 6645115 6544528 6492091 6483750 
1697.618 6498515 6509211 6489199 6420829 6303316 6158747 6024809 5934309 
1701.476 5900351 5913181 5953657 6001528 6042079 6066337 6070638 6057299 
1705.333 6033141 6008112 5991046 5988056 6000788 6027027 6062507 6102257 
1709.190 6143154 6184088 6226303 6271985 6323253 6380511 6442250 6505545 
1713.048 6567470 6626644 6682698 6736235 6786379 6829629 6859991 6871436 
1716.905 6861977 6836799 6809535 6796611 6808997 6849287 6910924 6983008 
1720.763 7053992 7115456 7163758 7199601 7226956 7250237 7273485 7298115 
1724.620 7324197 7351257 7379329 7409291 7441008 7473199 7502628 7524541 
1728.478 7535498 7534520 7524271 7509573 7494268 7478323 7455502 7413774 
1732.335 7338316 7219073 7057798 6875172 6704570 6579008 6513751 6502988 
1736.192 6527273 6564846 6598183 6614937 6609823 6583415 6541703 6493706 
1740.050 6448639 6413128 6390061 6379065 6378225 6384243 6394432 6406571 
1743.907 6419854 6434953 6453718 6477730 6508101 6543654 6581934 6618536 
1747.765 6649792 6673311 6688418 6696157 6698277 6696090 6690908 6684212 
1751.622 6678391 6676507 6680578 6690975 6703729 6712040 6706319 6677651 
1755.479 6620892 6537633 6436668 6331859 6236622 6157907 6094663 6038988 
1759.337 5980666 5910394 5823544 5722509 5614919 5511517 5422063 5352988 
1763.194 5305826 5278391 5266619 5265612 5269738 5272823 5269570 5255920 
1767.052 5231941 5201425 5172118 5151966 5145160 5149988 5159041 5163131 
1770.909 5153877 5129234 5095473 5066206 5055345 5071436 5113979 5176175 
1774.767 5248508 5323939 5398813 5473129 5548398 5624788 5700015 5768977 
1778.624 5826297 5868175 5894372 5908345 5916137 5923460 5933536 5945931 
1782.481 5958091 5967127 5971696 5972905 5973409 5976567 5984529 5997529 
1786.339 6014764 6034788 6057198 6081525 6107096 6131694 6150950 6158781 
1790.196 6149539 6119328 6068824 6003946 5934511 5870056 5816794 5775995 
1794.054 5744232 5716567 5688500 5657750 5623814 5587095 5547962 5506551 
1797.911 5462191 5414715 5364729 5313776 5264103 5217957 5177013 5142008 
1801.769 5113309 5091618 5077705 5072207 5075257 5085147 5098926 5113074 
1805.626 5124909 5133458 5139997 5147473 5158538 5174666 5194785 5215844 
1809.483 5234960 5250051 5261554 5271850 5283723 5299554 5319545 5342254 
1813.341 5365702 5389017 5413105 5440415 5474371 5517423 5570716 5632642 
1817.198 5700183 5769951 5838017 5901728 5958864 6007541 6046379 6074603 
1821.056 6092378 6100846 6101215 6094260 6080147 6058341 6028606 5992692 
1824.913 5954732 5921108 5897362 5886782 5888159 5896589 5904247 5903709 
1828.771 5891551 5868948 5842719 5821529 5813133 5820420 5841409 5871164 
1832.628 5905087 5940825 5979019 6022357 6073326 6133072 6200187 6271817 
1836.485 6345812 6421569 6501509 6589403 6688990 6801727 6926276 7059414 
1840.343 7196164 7332924 7467199 7597705 7724371 7847937 7970188 8094296 
1844.200 8224855 8367445 8526199 8701644 8890112 9084785 9276533 9456311 
1848.058 9617565 9756648 9872590 9966390 10038780 10089341 10116438 10118066 
1851.915 10093410 10043561 9971985 9882759 9779624 9664384 9537625 9399391 
1855.772 9251046 9095477 8937258 8781295 8630289 8484470 8341740 8199327 
1859.630 8056083 7913697 7776114 7648185 7533306 7431671 7341248 7259030 
1863.487 7183195 7114850 7057124 7012909 6983446 6966038 6954658 6942167 
1867.345 6923650 6898905 6873119 6854403 6850229 6863357 6891533 6928632 
1871.202 6967419 7002672 7031867 7054969 7072650 7085178 7091813 7091611 
1875.060 7083629 7068642 7047930 7023583 6996106 6964859 6927488 6882040 
1878.917 6827711 6766153 6700969 6635728 6573087 6513079 6453617 6392044 
1882.774 6326883 6259245 6192524 6130787 6077862 6034250 5998437 5967228 
1886.632 5937601 5908916 5881945 5859880 5845439 5840267 5845070 5859276 
1890.489 5882046 5913282 5952381 5998034 6047387 6096477 6140869 6178576 
1894.347 6210069 6239379 6271851 6311754 6360774 6416861 6475982 6533933 
1898.204 6589403 6644072 6700868 6762855 6830202 6899613 6966678 7026446 
1902.062 7077230 7120711 7161299 7203273 7249091 7297543 7345561 7388732 
1905.919 7424492 7453008 7475930 7495346 7511629 7522855 7525957 7518237 
1909.776 7499864 7473469 7442963 7411954 7381722 7350818 7316817 7278235 
1913.634 7236053 7194278 7157358 7128256 7106093 7086424 7062715 7030049 
1917.491 6987553 6940079 6895303 6859486 6834241 6815358 6795467 6766691 
1921.349 6725029 6671561 6612682 6555864 6507125 6468246 6436836 6409328 
1925.206 6383605 6360438 6343324 6335826 6339020 6350217 6363699 6373887 
1929.063 6377518 6375232 6371029 6369651 6373584 6381755 6389993 6393255 
1932.921 6389085 6378090 6363497 6349174 6336600 6324900 6310914 6292390 
1936.778 6270472 6249160 6235379 6234639 6248018 6271952 6300022 6324799 
1940.636 6342988 6355562 6367700 6385084 6410875 6443427 6477562 6508404 
1944.493 6533126 6553274 6572919 6596703 6626140 6659986 6693667 6723515 
1948.351 6748485 6771201 6796005 6826735 6863626 6903248 6939877 6968631 
1952.208 6987823 6999810 7008632 7016916 7023920 7025435 7015333 6990921 
1956.065 6954557 6913550 6878472 6858914 6858005 6873254 6897424 6924155 
1959.923 6950247 6978900 7015165 7063422 7123136 7187776 7248619 7298048 
1963.780 7333969 7360726 7385463 7414886 7450480 7488773 7522080 7545342 
1967.638 7557648 7564156 7572248 7587319 7608697 7629604 7641845 7639518 
1971.495 7623871 7603774 7592950 7602628 7638911 7700829 7784075 7885455 
1975.353 8007851 8158878 8346570 8571313 8820382 9067463 9279208 9427223 
1979.210 9493935 9478086 9392315 9257274 9095274 8924068 8757357 8604399 
1983.067 8470381 8360284 8276860 8219654 8184437 8164550 8151551 8139668 
1986.925 8127919 8119074 8117724 8126467 8143753 8163875 8179541 8185855 
1990.782 8182445 8175726 8174072 8184943 8212091 8252849 8301007 8350522 
1994.640 8397070 8439669 8480483 8520658 8559790 8595071 8623022 8641071 
1998.497 8650703 8655638 8660709 8668382 8678252 8685384 8684303 8670207 
2002.354 8642997 8605548 8563878 8522889 8486159 8454535 8428792 8410312 
2006.212 8403083 8410481 8433960 8469739 8508223 8536472 8543164 8524307 
2010.069 8484335 8434636 8389536 8360588 8352278 8360689 8377747 8394840 
2013.927 8406731 8413657 8419704 8430244 8449130 8479063 8520523 8575267 
2017.784 8645803 8734537 8841144 8960902 9083026 9194254 9282762 9340649 
2021.642 9368140 9371323 9359439 9340683 9320540 9300602 9280934 9261809 
2025.499 9244514 9230603 9219501 9207283 9186707 9150463 9094834 9022535 
2029.356 8943448 8872594 8822986 8803476 8815378 8853385 8909457 8976799 
2033.214 9052813 9136759 9228606 9325042 9417912 9498676 9559539 9597681 
2037.071 9617361 9626644 9634977 9650256 9674819 9706837 9743195 9779048 
2040.929 9811040 9838222 9858523 9870421 9871980 9862320 9843170 9819683 
2044.786 9799178 9788333 9791621 9809481 9838900 9874726 9912183 9946151 
2048.644 9971578 9980359 9961814 9904251 9798975 9645412 9454483 9248000 
2052.501 9052712 8895759 8794921 8753639 8760367 8793400 8829242 8849429 
2056.358 8846115 8821295 8782749 8738899 8695018 8653171 8612544 8574016 
2060.216 8540257 8516232 8506534 8513191 8533769 8562392 8592232 8617681 
2064.073 8636947 8650095 8659153 8664934 8666861 8663750 8655097 8643301 
2067.931 8633195 8630491 8638874 8658004 8682545 8705193 8717938 8716451 
2071.788 8700528 8673722 8640935 8605210 8568508 8530897 8491869 8452609 
2075.646 8415818 8384402 8359642 8339848 8320259 8294759 8259130 8212968 
2079.503 8160397 8107764 8061079 8023782 7995296 7972144 7950412 7928578 
2083.360 7907826 7890921 7881203 7878504 7879584 7879382 7871520 7852255 
2087.218 7821824 7782557 7738166 7690947 7641271 7587252 7527778 7463423 
2091.075 7397765 7336732 7287569 7255290 7242757 7249361 7272676 7309909 
2094.933 7357895 7413571 7472727 7529767 7578485 7613249 7631222 7632976 
2098.790 7623298 7608596 7593996 7582768 7575148 7569921 7566246 7565943 
2102.647 7572551 7590624 7623500 7669903 7725416 7783265 7836533 7881203 
2106.505 7916869 7945654 7970458 7993136 8013556 8030768 8044135 8055173 
2110.362 8067965 8086768 8114888 8151923 8193891 8233803 8264973 8283547 
2114.220 8288917 8284087 8273787 8262609 8253457 8247750 8246501 8250215 
2118.077 8260312 8277772 8302324 8331843 8362614 8389976 8410852 8424399 
2121.935 8432271 8437170 8441527 8445176 8445751 8439872 8425143 8400651 
2125.792 8368289 8330729 8290099 8245724 8194905 8132713 8056185 7964686 
2129.649 7861432 7753311 7648016 7553434 7474986 7416942 7381992 7372555 
2133.507 7389609 7432379 7496594 7573023 7649837 7716040 7763363 7790282 
2137.364 7800065 7800098 7796657 7793419 7790788 7786605 7779487 7770345 
2141.222 7762891 7762182 7771324 7789607 7812614 7834273 7849388 7857417 
2145.079 7861196 7866257 7876683 7892642 7909749 7921559 7921695 7908130 
2148.937 7882452 7850433 7816089 7782388 7748285 7711285 7668081 7618813 
2152.794 7564190 7506303 7445794 7382531 7316850 7254886 7212065 7214963 
2156.651 7296060 7486750 7803235 8236808 8750528 9289295 9795620 10221892 
2160.509 10543264 10757904 10880365 10932282 10937004 10914817 10879549 
2163.884 10841126 10805627 10774649 10747205 10719355 10684919 10639008 
2167.259 10579522 10506940 10425818 10341149 10256733 10173894 10092665 
2170.635 10012569 9935371 9865846 9810125 9774880 9763460 9775422 9804770 
2174.492 9844458 9885709 9920726 9945032 9953745 9943710 9912726 9860863 
2178.349 9792333 9716596 9646157 9595207 9573088 9583115 9620004 9673870 
2182.207 9732014 9785724 9830324 9865846 9893403 9913369 9923166 9919777 
2186.064 9901708 9872354 9839204 9813887 9806329 9821004 9855948 9903233 
2189.922 9952389 9995548 10030066 10057871 10084152 10113047 10144182 
2193.297 10173623 10195739 10205575 10201743 10187292 10166533 10144792 
2196.672 10123492 10102059 10077234 10046918 10010500 9970222 9930896 
2200.047 9896318 9868387 9846966 9830121 9815683 9802533 9791180 9782775 
2203.905 9777794 9775049 9773185 9770880 9768102 9767187 9771389 9783860 
2207.762 9805550 9835104 9868625 9901166 9928827 9949338 9961611 9966018 
2211.620 9962763 9951677 9933370 9909979 9884827 9863270 9850559 9848457 
2215.477 9855744 9867744 9878184 9881980 9877370 9866320 9853100 9842187 
2219.334 9835646 9832494 9830053 9824902 9815242 9802804 9790096 9779828 
2223.192 9772778 9767120 9759088 9746109 9727235 9704771 9682544 9664282 
2227.049 9650629 9639958 9627694 9610214 9586061 9557778 9530343 9509582 
2230.907 9499659 9500133 9507786 9516965 9522181 9521063 9513171 9500099 
2234.764 9484487 9468096 9451232 9434639 9419097 9406162 9398307 9397190 
2238.622 9403183 9415101 9430508 9446559 9461289 9474496 9486316 9497492 
2242.479 9507922 9516694 9522587 9525567 9526211 9526821 9528988 9533290 
2246.336 9537998 9539589 9533662 9517811 9492411 9460950 9428713 9400813 
2250.194 9380227 9367937 9362757 9363231 9368952 9381378 9401896 9431220 
2254.051 9467622 9506432 9540910 9565060 9574884 9569599 9551275 9524348 
2257.909 9492174 9457497 9422043 9386761 9352973 9323587 9300500 9286249 
2261.766 9281036 9283574 9291225 9302057 9314887 9330696 9351619 9379482 
2265.624 9414560 9455160 9497492 9537151 9571157 9597511 9616549 9629693 
2269.481 9638332 9643380 9645886 9645886 9644667 9643277 9642939 9643955 
2273.338 9645784 9646530 9644464 9638839 9630438 9621258 9614584 9612890 
2277.196 9617226 9626441 9638094 9649139 9658014 9664317 9669093 9674683 
2281.053 9683188 9695893 9713445 9735977 9762646 9792231 9822801 9851915 
2284.911 9876251 9892996 9900250 9897708 9887742 9873574 9859507 9848423 
2288.768 9841814 9839204 9838900 9839442 9840018 9841102 9844255 9850898 
2292.625 9861642 9875879 9892182 9908623 9923810 9936930 9948253 9957813 
2296.483 9966187 9973205 9978731 9982699 9985444 9987614 9989954 9992768 
2300.340 9995786 9997888 9997752 9994531 9987614 9977511 9965204 9952186 
2304.198 9939133 9926793 9915098 9903912 9893166 9882285 9871031 9858659 
2308.055 9845068 9829986 9814260 9799415 9787961 9782132 9783488 9791655 
2311.913 9805075 9820665 9834900 9845373 9850694 9851305 9848864 9845034 
2315.770 9841814 9840628 9842221 9846932 9855643 9868658 9886352 9909471 
2319.627 9938625 9974562 10017757 10067400 10120779 10172130 10212564 
2323.003 10231153 10217992 10165990 10073877 9947778 9799653 9643955 9495899 
2326.860 9367598 9265093 9189380 9136927 9102245 9080150 9066854 9060797 
2330.718 9061373 9067936 9079169 9093245 9108504 9123934 9139838 9156960 
2334.575 9176486 9198552 9222886 9248846 9275823 9304156 9334827 9369054 
2338.432 9406907 9447405 9487806 9525161 9556931 9582505 9602117 9617464 
2342.290 9630167 9640432 9647851 9651442 9651748 9651544 9656287 9673024 
2346.147 9708735 9767729 9850863 9955305 10075098 10203337 10332021 10454532 
2350.005 10564991 10659280 10735385 10793773 10837423 10870410 10897862 
2353.380 10924636 10953858 10987772 11027568 11073894 11127329 11188149 
2356.755 11256797 11331816 11411306 11492816 11574001 11654861 11736111 
2360.130 11820304 11909759 12004714 12102759 12199836 12290663 12371418 
2363.506 12441005 12501429 12556472 12610328 12665420 12722020 12777671 
2366.881 12829132 12873023 12907292 12931049 12943782 12945489 12936477 
2370.256 12917259 12889986 12858654 12828451 12805278 12794665 12799921 
2373.631 12822819 12863500 12921799 12998130 13093872 13210811 13350367 
2377.007 13512970 13697281 13900484 14119563 14351766 14595401 14849973 
2380.382 15115055 15389911 15672361 15958708 16243901 16522294 16788330 
2383.757 17036404 17262312 17462086 17632860 17773018 17882040 17961216 
2387.132 18012604 18039096 18043932 18029354 17997304 17949062 17885388 
2390.508 17807018 17715032 17610466 17494374 17367100 17229592 17082788 
2393.883 16928146 16768735 16608797 16453084 16306370 16173255 16056718 
2397.258 15959119 15882093 15826559 15793398 15782919 15795426 15829822 
2400.633 15884843 15958501 16048880 16154787 16275650 16411548 16562842 
2404.009 16729821 16912298 17110086 17322512 17549328 17790518 18045900 
2407.384 18315220 18598060 18893920 19202172 19522706 19855372 20199608 
2410.759 20554436 20916890 21282430 21645388 21998854 22335588 22649748 
2414.134 22935600 23188258 23404416 23581150 23716974 23812446 23869958 
2417.510 23893482 23887882 23858580 23809366 23743184 23661232 23563902 
2420.885 23451520 23324834 23185182 23035164 22877828 22716462 22555160 
2424.260 22397996 22249574 22114732 21998088 21903536 21834160 21791758 
2427.635 21776916 21790086 21831406 21901200 22000040 22127806 22284382 
2431.010 22468476 22679038 22914256 23173126 23454808 23758688 24084004 
2434.386 24429682 24794158 25175968 25574352 25989458 26422568 26875884 
2437.761 27351656 27851550 28377238 28929630 29509784 30119338 30760046 
2441.136 31433440 32140452 32881000 33654100 34458464 35293028 36157256 
2444.511 37050876 37972848 38921100 39891364 40878400 41876404 42880040 
2447.887 43885300 44889916 45891596 46887764 47874940 48847792 49800860 
2451.262 50728584 51626276 52490116 53316148 54099700 54835152 55515556 
2454.637 56132516 56678232 57144620 57523288 57806892 57987212 58056668 
2458.012 58008724 57838576 57544244 57125948 56586424 55929104 55158648 
2461.388 54280404 53299968 52224908 51064540 49829364 48531032 47182344 
2464.763 45794936 44380528 42951688 41520028 40098592 38700780 37339256 
2468.138 36026588 34773728 33588620 32477148 31443060 30487412 29610230 
2471.513 28809870 28083616 27426968 26834256 26298462 25811602 25365964 
2474.889 24954858 24572152 24213294 23874718 23553234 23246526 22952682 
2478.264 22670660 22400264 22142030 21896984 21665692 21448554 21244606 
2481.639 21053032 20872248 20702002 20542312 20393828 20257442 20133072 
2485.014 20020186 19917392 19823532 19738226 19661426 19594140 19537886 
2488.390 19493284 19460570 19438808 19426334 19421344 19422384 19428240 
2491.765 19438740 19453778 19473148 19497510 19527420 19563742 19607312 
2495.140 19658688 19717942 19783720 19854436 19927728 20001104 20072964 
2498.515 20141784 20206934 20267892 20323756 20374104 20418590 20457660 
2501.891 20492638 20525880 20559648 20596300 20636952 20681880 20730290 
2505.266 20780790 20832374 20883860 20934518 20983198 21028790 21069796 
2508.641 21104300 21130632 21147540 21153626 21148166 21130216 21099084 
2512.016 21054076 20995406 20923984 20841518 20749926 20651476 20547384 
2515.392 20437830 20322748 20201518 20074422 19943062 19809488 19676786 
2518.767 19548284 19426126 19312282 19208096 19114840 19033410 18964872 
2522.142 18909390 18866340 18834020 18809624 18790318 18773952 18759458 
2525.517 18747244 18738596 18734964 18737386 18746448 18762016 18783882 
2528.893 18812150 18846994 18888382 18936178 18989620 19047432 19108436 
2532.268 19172254 19239230 19310032 19385658 19466600 19552062 19640730 
2535.643 19731014 19822076 19914200 20008424 20106592 20210196 20319346 
2539.018 20433108 20549608 20666730 20783502 20899610 21015854 21132930 
2542.394 21251844 21372464 21494160 21616344 21738108 21859036 21978674 
2545.769 22096044 22209992 22319088 22421860 22517678 22607130 22691536 
2549.144 22773444 22854812 22936856 23019512 23101938 23182386 23259670 
2552.519 23332946 23402282 23468238 23532000 23594092 23654688 23713580 
2555.895 23769326 23820076 23863866 23898208 23920824 23930418 23926322 
2559.270 23909202 23880460 23841848 23794946 23740490 23679112 23610254 
2562.645 23534414 23452150 23364832 23274422 23183016 23091664 23001728 
2566.020 22913630 22828062 22745966 22668670 22597984 22535126 22480932 
2569.396 22435364 22397718 22367296 22343888 22327946 22320518 22322750 
2572.771 22335448 22358436 22390740 22431072 22478350 22531880 22591596 
2576.146 22657290 22728928 22805536 22885896 22968854 23053088 23137722 
2579.521 23222686 23308054 23394030 23480724 23568206 23656858 23747278 
2582.896 23840590 23937386 24038510 24143546 24251624 24361302 24471394 
2586.272 24580884 24689736 24797806 24905062 25011220 25115336 25216348 
2589.647 25313662 25407100 25497322 25585598 25672976 25760196 25847190 
2593.022 25933460 26018376 26102040 26185088 26268504 26353134 26439576 
2596.397 26527618 26616738 26706684 26798236 26892732 26992574 27100196 
2599.773 27217266 27344422 27481216 27626636 27779522 27939316 28106026 
2603.148 28280368 28462776 28653542 28851934 29057008 29267564 29482266 
2606.523 29700090 29920186 30141356 30362494 30582182 30798638 31010112 
2609.898 31214568 31409930 31593908 31764132 31918156 32054118 32170746 
2613.274 32267206 32343730 32400742 32438834 32458224 32458902 32441012 
2616.649 32404952 32351974 32284088 32203968 32114838 32019734 31921406 
2620.024 31822242 31724208 31628832 31537324 31450682 31369540 31294398 
2623.399 31225534 31163268 31108022 31060292 31021000 30990718 30970116 
2626.775 30959758 30959652 30970434 30992390 31025734 31070720 31127064 
2630.150 31193884 31269934 31353764 31444232 31541172 31644724 31755574 
2633.525 31874478 32001540 32136064 32276698 32421946 32570172 32720662 
2636.900 32873422 33028562 33186756 33347946 33511736 33677052 33843184 
2640.276 34009100 34173892 34337020 34497672 34654968 34807868 34955764 
2643.651 35098320 35235996 35370052 35502208 35634080 35767468 35903344 
2647.026 36042536 36185304 36332048 36483128 36639020 36800124 36966880 
2650.401 37139548 37318636 37504228 37696588 37895976 38102216 38315544 
2653.777 38535600 38762216 38995400 39235312 39482068 39736156 39997548 
2657.152 40266476 40542704 40826128 41116588 41413656 41716872 42025048 
2660.527 42336872 42650240 42963212 43273956 43581480 43885480 44187128 
2663.902 44487184 44786900 45087300 45389160 45693140 46000136 46311440 
2667.278 46628240 46951700 47282304 47619744 47962924 48310740 48661880 
2670.653 49016048 49373436 49734276 50098764 50466312 50835848 51205104 
2674.028 51571836 51933980 52289220 52635552 52971528 53295284 53605940 
2677.403 53903464 54188956 54465508 54736856 55007852 55283344 55567448 
2680.779 55864016 56176328 56507168 56859636 57236920 57641360 58075076 
2684.154 58538492 59030948 59550640 60095420 60662948 61251360 61858948 
2687.529 62484524 63126452 63783296 64453856 65137148 65833016 66541700 
2690.904 67263728 67999632 68749240 69512552 70289200 71079032 71882344 
2694.280 72699752 73531512 74377824 75237896 76110016 76992632 77884024 
2697.655 78782896 79688600 80600272 81517248 82438376 83361944 84286520 
2701.030 85210352 86132128 87050112 87962368 88865688 89755984 90628672 
2704.405 91477920 92298224 93083984 93829472 94528424 95174528 95761168 
2707.781 96281792 96731168 97105712 97403408 97624312 97769448 97840584 
2711.156 97839920 97769616 97632192 97429408 97163312 96834640 96443656 
2714.531 95989568 95471648 94889728 94244952 93539272 92776312 91959984 
2717.906 91094384 90183808 89232568 88245696 87229304 86190712 85137712 
2721.281 84078896 83021600 81973168 80940112 79928944 78945992 77998336 
2724.657 77091864 76232264 75423520 74667696 73965712 73317232 72722552 
2728.032 72181976 71696472 71266784 70893464 70576008 70312616 70101280 
2731.407 69939680 69826000 69759192 69738688 69763936 69833632 69945952 
2734.782 70098520 70288112 70511888 70766280 71047384 71351048 71671728 
2738.158 72003216 72339288 72673792 73001368 73318216 73620720 73906320 
2741.533 74172528 74417152 74638936 74838032 75016512 75177808 75326400 
2744.908 75467272 75604128 75739848 75876152 76014048 76154120 76297912 
2748.283 76446288 76600520 76761104 76928120 77101400 77280848 77467272 
2751.659 77662792 77870344 78093744 78337336 78605120 78901208 79229424 
2755.034 79593664 79996544 80440776 80926856 81454016 82019232 82617888 
2758.409 83244616 83891984 84553328 85220032 85882832 86532008 87156680 
2761.784 87746328 88291576 88784336 89218088 89588000 89889992 90121336 
2765.160 90279456 90363568 90374992 90316816 90194904 90016392 89788896 
2768.535 89520808 89219472 88891952 88545464 88186792 87822896 87460648 
2771.910 87105464 86761888 86433152 86120848 85826224 85549552 85290832 
2775.285 85049848 84825064 84614480 84414184 84219176 84023480 83819288 
2778.661 83598584 83352632 83072872 82751640 82383416 81965328 81498304 
2782.036 80986424 80436944 79858488 79260248 78651192 78038464 77428616 
2785.411 76826624 76236808 75662384 75105568 74567760 74049168 73549480 
2788.786 73068520 72606144 72162736 71739384 71336408 70954200 70591984 
2792.162 70248304 69921160 69608496 69308176 69018752 68738248 68464608 
2795.537 68194856 67925576 67652520 67371944 67079976 66773520 66450216 
2798.912 66107980 65744848 65359676 64951524 64520232 64066364 63590764 
2802.287 63094804 62579544 62045664 61494192 60925656 60341684 59744768 
2805.663 59138304 58526548 57913832 57305420 56706168 56120860 55554792 
2809.038 55013268 54501192 54023108 53582100 53180108 52817180 52492396 
2812.413 52204056 51950340 51729692 51540904 51382888 51254536 51154400 
2815.788 51081052 51032716 51008528 51008344 51032452 51082056 51158764 
2819.164 51263820 51398144 51562508 51757164 51982084 52236828 52520216 
2822.539 52830616 53165804 53522952 53898476 54289116 54690856 55099400 
2825.914 55510020 55917796 56316104 56699108 57059856 57391784 57688544 
2829.289 57944240 58153252 58311288 58414980 58462632 58454480 58392544 
2832.665 58280632 58123596 57927160 57697592 57440948 57163628 56871756 
2836.040 56570648 56264580 55956688 55647888 55338104 55026128 54710512 
2839.415 54390576 54066188 53737880 53406704 53073280 52738012 52400648 
2842.790 52061120 51720136 51379420 51041548 50709968 50387792 50077420 
2846.166 49780240 49496220 49224520 48963716 48712324 48468904 48232464 
2849.541 48002188 47777616 47558888 47346964 47143116 46949484 46768184 
2852.916 46601164 46449880 46315236 46198028 46099052 46019108 45959400 
2856.291 45920356 45901684 45901204 45915384 45939028 45966100 45990336 
2859.667 46006212 46008904 45995016 45962012 45909012 45836468 45745896 
2863.042 45640948 45525464 45404608 45283308 45165384 45054296 44952420 
2866.417 44861256 44782676 44718216 44669628 44638744 44627324 44636432 
2869.792 44666468 44717556 44788628 44878048 44983468 45102192 45231052 
2873.167 45368084 45511672 45662776 45823652 45998148 46190692 46404600 
2876.543 46642076 46902900 47185740 47487620 47805540 48137056 48480164 
2879.918 48833368 49195576 49565224 49940752 50320408 50702408 51084588 
2883.293 51464948 51840712 52208768 52565464 52906960 53229736 53531608 
2886.668 53811044 54068328 54304284 54520760 54719492 54903312 55074912 
2890.044 55237664 55395464 55552572 55713088 55881204 56060956 56256280 
2893.419 56471584 56711944 56982364 57288260 57633188 58018532 58441328 
2896.794 58894472 59365372 59835836 60285300 60690688 61028988 61281768 
2900.169 61436056 61486444 61435752 61294968 61080772 60811680 60507788 
2903.545 60187056 59863676 59549384 59252300 58978072 58730460 58511572 
2906.920 58322468 58162800 58031632 57927916 57850764 57799812 57775400 
2910.295 57778048 57807080 57860908 57936284 58028796 58133176 58244180 
2913.670 58357448 58469152 58576448 58676676 58767220 58845144 58907488 
2917.046 58951472 58975116 58977736 58960200 58925208 58876600 58819760 
2920.421 58760352 58703832 58655020 58617288 58592144 58579404 58576900 
2923.796 58580392 58584144 58581944 58566172 58529808 58466684 58372948 
2927.171 58247172 58091552 57911600 57715412 57512052 57311624 57123112 
2930.547 56953540 56809140 56694276 56612696 56567480 56561436 56596312 
2933.922 56673248 56792260 56952444 57152140 57389024 57660544 57963548 
2937.297 58294348 58648380 59020812 59406440 59800436 60198744 60598524 
2940.672 60997644 61394036 61785560 62167724 62534616 62877528 63185044 
2944.048 63444108 63640788 63760728 63792424 63728036 63565752 63310488 
2947.423 62974772 62577092 62138516 61681860 61227364 60789500 60378156 
2950.798 59996804 59644332 59316180 59006580 58709672 58419872 58132840 
2954.173 57845352 57554836 57259600 56958712 56651952 56339340 56021672 
2957.549 55699940 55375592 55049976 54724528 54400456 54078536 53759212 
2960.924 53442488 53128356 52817032 52509372 52207308 51913520 51631612 
2964.299 51365772 51120072 50898132 50703188 50537776 50403344 50300544 
2967.674 50228340 50184300 50163804 50160684 50167192 50175000 50176452 
2971.050 50165184 50136624 50089056 50022948 49941016 49847540 49748208 
2974.425 49649052 49555492 49471192 49396676 49328556 49257848 49170976 
2977.800 49050916 48877232 48631752 48299076 47869612 47341828 46722212 
2981.175 46025920 45272864 44488032 43697468 42924440 42189988 41509932 
2984.551 40894380 40349480 39877892 39480580 39158612 38913488 38746744 
2987.926 38657928 38642064 38686976 38769676 38858628 38914904 38895008 
2991.301 38761704 38487332 38060404 37488376 36797056 36026412 35220328 
2994.676 34423704 33673076 32991488 32390282 31868630 31418622 31027798 
2998.052 30684012 30377240 30099626 29845932 29612392 29395712 29192854 
3001.427 29000930 28817376 28640164 28467976 28300100 28136072 27975888 
3004.802 27819650 27667774 27520788 27379640 27245452 27119170 27001600 
3008.177 26893192 26794042 26703690 26621176 26545370 26474474 26406968 
3011.552 26341410 26277304 26214934 26155596 26101126 26053662 26014750 
3014.928 25985342 25965328 25954176 25951256 25956004 25968316 25988120 
3018.303 26014716 26046872 26081878 26116644 26147186 26170236 26182872 
3021.678 26183012 26169216 26140642 26096902 26037864 25964482 25878734 
3025.053 25783754 25683768 25583384 25486924 25397790 25318088 25248268 
3028.429 25187802 25135522 25089252 25046708 25005394 24962402 24915414 
3031.804 24862254 24802016 24734664 24661538 24584426 24505820 24428210 
3035.179 24353802 24284734 24222998 24170380 24128520 24098012 24079100 
3038.554 24070834 24071814 24080292 24094826 24114370 24138818 24168138 
3041.930 24202714 24242058 24285608 24331900 24379316 24426246 24471324 
3045.305 24513288 24551362 24584812 24613390 24637410 24657716 24675286 
3048.680 24691628 24707798 24723968 24739752 24753606 24763708 24768374 
3052.055 24765988 24755886 24737682 24711516 24677460 24635868 24587196 
3055.431 24532464 24473498 24412858 24352962 24296368 24245002 24199666 
3058.806 24160360 24126068 24095772 24067752 24040612 24013122 23984198 
3062.181 23953560 23921210 23888090 23855080 23824068 23796522 23773316 
3065.556 23755082 23741784 23733034 23728590 23728136 23731566 23738844 
3068.932 23749344 23762676 23777728 23794212 23811396 23829702 23849620 
3072.307 23872024 23897298 23925446 23956256 23989170 24023908 24060328 
3075.682 24098924 24139904 24183516 24229340 24276604 24323876 24370064 
3079.057 24413804 24454604 24492112 24526152 24556902 24584426 24609040 
3082.433 24631134 24651332 24669884 24687246 24703484 24718670 24733052 
3085.808 24747012 24761534 24777950 24797490 24820750 24847590 24877166 
3089.183 24907764 24938014 24966930 24994726 25022418 25051166 25082230 
3092.558 25115932 25151988 25189558 25227550 25265512 25303374 25341726 
3095.934 25381350 25422872 25466580 25512186 25559310 25607354 25656280 
3099.309 25705634 25755486 25805624 25855840 25905532 25954106 26001208 
3102.684 26046238 26088952 26129450 26167634 26204164 26239886 26275896 
3106.059 26313386 26353486 26396686 26442886 26491624 26541742 26592572 
3109.435 26643336 26693894 26744318 26794746 26845394 26896012 26946492 
3112.810 26996734 27046592 27096670 27147282 27198534 27250322 27302078 
3116.185 27353280 27403428 27452450 27501266 27551080 27603084 27658206 
3119.560 27716510 27777330 27839538 27901544 27962108 28019960 28074850 
3122.936 28126634 28175882 28223294 28269864 28316582 28364364 28413320 
3126.311 28463164 28513122 28562270 28610116 28656904 28703414 28751062 
3129.686 28801336 28854874 28911674 28970894 29031146 29091656 29151784 
3133.061 29212096 29273446 29336438 29401136 29466520 29531346 29593948 
3136.437 29653720 29710698 29765766 29820628 29876350 29933782 29992962 
3139.812 30053250 30114046 30174990 30235978 30297402 30359546 30422800 
3143.187 30487022 30551752 30616952 30682342 30748168 30814466 30881700 
3146.562 30949724 31018652 31088446 31159102 31230662 31303584 31377732 
3149.938 31453494 31530376 31608128 31686246 31764202 31841922 31919050 
3153.313 31995658 32071668 32147162 32222488 32298576 32376252 32457116 
3156.688 32541636 32630142 32721844 32815174 32908630 33000852 33091630 
3160.063 33181642 33272244 33365190 33461522 33561524 33664272 33768260 
3163.438 33872132 33974700 34075612 34175360 34274416 34373280 34472132 
3166.814 34570532 34667848 34763212 34855544 34944200 35028488 35108160 
3170.189 35182996 35252744 35317396 35376988 35431308 35480132 35522740 
3173.564 35558916 35587792 35609120 35622748 35629044 35629152 35623976 
3176.939 35615592 35605632 35595672 35587324 35581932 35579952 35581752 
3180.315 35586824 35594156 35602680 35611496 35619912 35627640 35635160 
3183.690 35642928 35651600 35661848 35674260 35688824 35706060 35726060 
3187.065 35748580 35773800 35801648 35831764 35863756 35897372 35931848 
3190.440 35966868 36001896 36036348 36070152 36103276 36136404 36170328 
3193.816 36206016 36243976 36284100 36325564 36366852 36406268 36442732 
3197.191 36475776 36505976 36534700 36562960 36591940 36621932 36652464 
3200.566 36683112 36713432 36743792 36774768 36806612 36839832 36873628 
3203.941 36907104 36939208 36969152 36996968 37023780 37050480 37078088 
3207.317 37106704 37135828 37164524 37191992 37218380 37244552 37271664 
3210.692 37300980 37332716 37366192 37399744 37431740 37461140 37487868 
3214.067 37512648 37537176 37561996 37587540 37613192 37637724 37660164 
3217.442 37680404 37699156 37717912 37738476 37762188 37789912 37821108 
3220.818 37855088 37890552 37926492 37962072 37996864 38030856 38064020 
3224.193 38096900 38129816 38163392 38197836 38233364 38269804 38306168 
3227.568 38341892 38376056 38408236 38438608 38467460 38495480 38523180 
3230.943 38551024 38579052 38607588 38636596 38666224 38696756 38728340 
3234.319 38760728 38793660 38826520 38859240 38891604 38923564 38955420 
3237.694 38987352 39018852 39049952 39080480 39110608 39141316 39173588 
3241.069 39208508 39245976 39285252 39324356 39361176 39393644 39421220 
3244.444 39444692 39466176 39488528 39514000 39544016 39578892 39617480 
3247.820 39658208 39699628 39740548 39780384 39818908 39856352 39892452 
3251.195 39926816 39959256 39989336 40016948 40042272 40066032 40088892 
3254.570 40111604 40134864 40159104 40184036 40209480 40234344 40257532 
3257.945 40277964 40295268 40309592 40321808 40333336 40345548 40359152 
3261.321 40374312 40390204 40405876 40419952 40431844 40441512 40449116 
3264.696 40455592 40461228 40466320 40470320 40472936 40473592 40471772 
3268.071 40467592 40461120 40452788 40442932 40432348 40421588 40411292 
3271.446 40401800 40393260 40384712 40375260 40363444 40348388 40329660 
3274.822 40307884 40284400 40260840 40239064 40220092 40204244 40191524 
3278.197 40181676 40174368 40169604 40167316 40167316 40169168 40172224 
3281.572 40175276 40177856 40179420 40179964 40179748 40178840 40177060 
3284.947 40173896 40168552 40160844 40150924 40139692 40128100 40117492 
3288.323 40108480 40100808 40093944 40087112 40079372 40070688 40061348 
3291.698 40052192 40044196 40038276 40035260 40035656 40039836 40047976 
3295.073 40059824 40074720 40091872 40109788 40127412 40143692 40158628 
3298.448 40172440 40185888 40199736 40214568 40230340 40246408 40262332 
3301.823 40277456 40291848 40305668 40319556 40333952 40349512 40366532 
3305.199 40384892 40404676 40425184 40445588 40464972 40482028 40495672 
3308.574 40505308 40511204 40514364 40516328 40519204 40524512 40533316 
3311.949 40546048 40562128 40581008 40601632 40623280 40645256 40666944 
3315.324 40687432 40706316 40722804 40736776 40748568 40759120 40769200 
3318.700 40779868 40791660 40804872 40818884 40833336 40847568 40860964 
3322.075 40873340 40884952 40895732 40906288 40916556 40926532 40936252 
3325.450 40945064 40952272 40956932 40958024 40954968 40947976 40937928 
3328.825 40925984 40913532 40902284 40892816 40885248 40878948 40872944 
3332.201 40865916 40856412 40843420 40826020 40803596 40776152 40744416 
3335.576 40709808 40674076 40639472 40607348 40578424 40551724 40525788 
3338.951 40498544 40468064 40433148 40393260 40348932 40300612 40249028 
3342.326 40194320 40136644 40076464 40014152 39950540 39886608 39822940 
3345.702 39759540 39695964 39631672 39565936 39498760 39430616 39362592 
3349.077 39295484 39229908 39165936 39103320 39041292 38979668 38918636 
3352.452 38858120 38798224 38739244 38680348 38621276 38561920 38502396 
3355.827 38443532 38386552 38332408 38281488 38233256 38186472 38140128 
3359.203 38093356 38046084 37998960 37952960 37908704 37866256 37825516 
3362.578 37785572 37745632 37705412 37664828 37624248 37584140 37544544 
3365.953 37505604 37467208 37429428 37392520 37356552 37322140 37288848 
3369.328 37256392 37223576 37189428 37153116 37114032 37071880 37026700 
3372.704 36978352 36926728 36871860 36813540 36752088 36687908 36621640 
3376.079 36553948 36484856 36414196 36341560 36266448 36188368 36107164 
3379.454 36022668 35934548 35842128 35744660 35641348 35531800 35416136 
3382.829 35295148 35169772 35041240 34909832 34775780 34638928 34499176 
3386.205 34356996 34213644 34070556 33929412 33790856 33655000 33520684 
3389.580 33386338 33250458 33112406 32971896 32830182 32688476 32548532 
3392.955 32411024 32276378 32144308 32013704 31883140 31751190 31616752 
3396.330 31479500 31339768 31198618 31058192 30920194 30786188 30656988 
3399.706 30531950 30410112 30289266 30167886 30044942 29920542 29795362 
3403.081 29670500 29546634 29423936 29301910 29179848 29056830 28932606 
3406.456 28807390 28681680 28556398 28432350 28309756 28189104 28070712 
3409.831 27954898 27842152 27733074 27627448 27524850 27424392 27324590 
3413.207 27224214 27122664 27019796 26916104 26812508 26710102 26609304 
3416.582 26510642 26413694 26318070 26223240 26128326 26033150 25937538 
3419.957 25841738 25746240 25651816 25559064 25468864 25381316 25296488 
3423.332 25214102 25134012 25055764 24979460 24905132 24832434 24760866 
3426.708 24689420 24616616 24540984 24461650 24378264 24291358 24202260 
3430.083 24112618 24024012 23937386 23853226 23771286 23691078 23611900 
3433.458 23533258 23454492 23375462 23295992 23215976 23135520 23054834 
3436.833 22974548 22894908 22816398 22738808 22661862 22584582 22506372 
3440.208 22426534 22345108 22262862 22181048 22101134 22024056 21950548 
3443.584 21879666 21809526 21737864 21662036 21580684 21493430 21402014 
3446.959 21309122 21218372 21132930 21054840 20984278 20919776 20859212 
3450.334 20799804 20740056 20679310 20617840 20556416 20495834 20435988 
3453.709 20376362 20315526 20252444 20186732 20118426 20048640 19978482 
3457.085 19908996 19840736 19773942 19707988 19642360 19576706 19510750 
3460.460 19444178 19376892 19308678 19239820 19170762 19102652 19036664 
3463.835 18973906 18914822 18859488 18806754 18755166 18703310 18650284 
3467.210 18595776 18540030 18483428 18426212 18367896 18308378 18246898 
3470.586 18183632 18119026 18054016 17989500 17926132 17863878 17802082 
3473.961 17740398 17678102 17615472 17553090 17491924 17432974 17376722 
3477.336 17323410 17272448 17223320 17174954 17126732 17077516 17026686 
3480.711 16973622 16918464 16862004 16805756 16751964 16701827 16656274 
3484.087 16614581 16574787 16534720 16492248 16446615 16398164 16348515 
3487.462 16299454 16252810 16208714 16167030 16126521 16086254 16045442 
3490.837 16004290 15962901 15921963 15881406 15841059 15800958 15761547 
3494.212 15723960 15689606 15659926 15635125 15614414 15595866 15577354 
3497.588 15557401 15535457 15512621 15490748 15471210 15454901 15440481 
3500.963 15426198 15409754 15389808 15366499 15342024 15319370 15301385 
3504.338 15290025 15285459 15286524 15291192 15297300 15303581 15309039 
3507.713 15313741 15318443 15323833 15330731 15340514 15353627 15370653 
3511.089 15391422 15414937 15439897 15464206 15485975 15504276 15518837 
3514.464 15530477 15540574 15550292 15560286 15570486 15579896 15587349 
3517.839 15591711 15592879 15591092 15586628 15580343 15571791 15560355 
3521.214 15544386 15522099 15492293 15453906 15407316 15353112 15292427 
3524.590 15225951 15154305 15077044 14993726 14903806 14807494 14705445 
3527.965 14599479 14491997 14384747 14279407 14176113 14074520 13972986 
3531.340 13869729 13763317 13652213 13535428 13412386 13283128 13148478 
3534.715 13009841 12869644 12730584 12595866 12468044 12348475 12237289 
3538.091 12133184 12034282 11938740 11845092 11752690 11661123 11569816 
3541.466 11478527 11385896 11291449 11194030 11093676 10990797 10886175 
3544.841 10781204 10677074 10574871 10475916 10381394 10292322 10209782 
3548.216 10133836 10063432 9996329 9929607 9859676 9784741 9704025 9618819 
3552.074 9532172 9447338 9367768 9295355 9231009 9174286 9124035 9078932 
3555.931 9037014 8996453 8954982 8909998 8859439 8802190 8738966 8672168 
3559.789 8605515 8543264 8488828 8444298 8408927 8380382 8354643 8326237 
3563.646 8289930 8240624 8174274 8088692 7984598 7866257 7741303 7620600 
3567.503 7514966 7432177 7375790 7343303 7328914 7324466 7321939 7315435 
3571.361 7300406 7275169 7239455 7194447 7141729 7083292 7021361 6958496 
3575.218 6896953 6838650 6784663 6735629 6690807 6649321 6610025 6572414 
3579.076 6536523 6502753 6471811 6443965 6419315 6397021 6376644 6356840 
3582.933 6336331 6313368 6285600 6250068 6203582 6143457 6069160 5982379 
3586.791 5888495 5795269 5712269 5647646 5606092 5587799 5588672 5602131 
3590.648 5620055 5634723 5639792 5630729 5605756 5565548 5513262 5453836 
3594.505 5392506 5334337 5282818 5239219 5203336 5173392 5147071 5121321 
3598.363 5093763 5062586 5026718 4987100 4946077 4907035 4874197 4851009 
3602.220 4839752 4840355 4850541 4866322 4882842 4894570 4896748 4885489 
3606.078 4858013 4813618 4753718 4682238 4605880 4532516 4469340 4420869 
3609.935 4387598 4365575 4348239 4328861 4302558 4267857 4227772 4188160 
3613.792 4155341 4133497 4122893 4119983 4118211 4109848 4088977 4051851 
3617.650 3998477 3932236 3859922 3789658 3729164 3684617 3658754 3651102 
3621.507 3657885 3674325 3695277 3716832 3737051 3756636 3777023 3799485 
3625.365 3822683 3841268 3846149 3824989 3766696 3666974 3533468 3387614 
3629.222 3258267 3171045 3136801 3149617 3192874 3246750 3294557 3324973 
3633.080 3334789 3326842 3308546 3288013 3271254 3260003 3253193 3246984 
3636.937 3238071 3224685 3206859 3186098 3164369 3143309 3123752 3105931 
3640.794 3090380 3078434 3071960 3073662 3084874 3106232 3135533 3169109 
3644.652 3201419 3226354 3238371 3232930 3207527 3161799 3097755 3020074 
3648.509 2934367 2848043 2768973 2704987 2663246 2648177 2660412 2695918 
3652.367 2747265 2804721 2857382 2895873 2913418 2908048 2883165 2848477 
3656.224 2817894 2803754 2814059 2848811 2901877 2962590 3019340 3062817 
3660.082 3086743 3089179 3072027 3041128 3003892 2967660 2938203 2919790 
3663.939 2913652 2919623 2936335 2961956 2994317 3031018 3069291 3106198 
3667.796 3140306 3173682 3215405 3281703 3395829 3581340 3852467 4209371 
3671.654 4637628 5114314 5611059 6097082 6541602 6905672 7147354 7230965 
3675.511 7137956 6879986 6493773 6026960 5520141 5002283 4494984 4016468 
3679.369 3585282 3219811 2931532 2722458 2583342 2498221 2449303 2422147 
3683.226 2408953 2406553 2414283 2430143 2448470 2460232 2455601 2426178 
3687.083 2368339 2285992 2189706 2093975 2011813 1951033 1913059 1894822 
3690.941 1891527 1899414 1916487 1941049 1971470 2005255 2039210 2070570 
3694.798 2097005 2117615 2133098 2145185 2155740 2165996 2176253 2185344 
3698.656 2191072 2190173 2180282 2159403 2128003 2089114 2048098 2012379 
3702.513 1988279 1980423 1990176 2015508 2052126 2094308 2137759 2178584 
3706.371 2214783 2245457 2270470 2289623 2301980 2305844 2299116 2280196 
3710.228 2248388 2204959 2154009 2101899 2056388 2024662 2012212 2020701 
3714.085 2047965 2089014 2137193 2185344 2227272 2259745 2281662 2294985 
3717.943 2302747 2307910 2312040 2314472 2313206 2305944 2292187 2273235 
3721.800 2253051 2235632 2224008 2218946 2218014 2216815 2211220 2199264 
3725.658 2182380 2164764 2153176 2154009 2170725 2202927 2246090 2293320 
3729.515 2336258 2367406 2381466 2376735 2355347 2322900 2286092 2249687 
3733.373 2214683 2178384 2136161 2085851 2029256 1974033 1930864 1909864 
3737.230 1915255 1945109 1992506 2049230 2109058 2168927 2228105 2286891 
3741.087 2342421 2388429 2412817 2400923 2340688 2230736 2088615 1948304 
3744.945 1849864 1817888 1851694 1930365 2025261 2109890 2164598 2179017 
3748.802 2154475 2101167 2034815 1970638 1919282 1884505 1866802 1865936 
3752.660 1882608 1917785 1969406 2032751 2098869 2158804 2204659 2231668 
3756.517 2239429 2231802 2213984 2191571 2167628 2143686 2120312 2099802 
3760.375 2086018 2083221 2094308 2118147 2149746 2181248 2204293 2213118 
3764.232 2206857 2190173 2171291 2159437 2160635 2175221 2198365 2222510 
3768.089 2239928 2245390 2237930 2220178 2198232 2178484 2166130 2163632 
3771.947 2171025 2186110 2205758 2226773 2246589 2263642 2277465 2288657 
3775.804 2297817 2305212 2309708 2308942 2300415 2282261 2255249 2223009 
3779.662 2192304 2169659 2159836 2163199 2176186 2193037 2207456 2215216 
3783.519 2214916 2208855 2200463 2193436 2190040 2190139 2192204 2193969 
3787.376 2194569 2193869 2193103 2193536 2195867 2200163 2205758 2212852 
3791.234 2221910 2234366 2251019 2271403 2293053 2311674 2321967 2320535 
3795.091 2306777 2284560 2261411 2246423 2246656 2264442 2295285 2330361 
3798.949 2357345 2363775 2341222 2287691 2211087 2128336 2061614 2028557 
3802.806 2035814 2078327 2141489 2207923 2259879 2284093 2274867 2235931 
3806.664 2180182 2125939 2090945 2084087 2104796 2144752 2193736 2242859 
3810.521 2287357 2326730 2363209 2399057 2434108 2464764 2484658 2485858 
3814.378 2463098 2416083 2352515 2287024 2236431 2212419 2217881 2245823 
3818.236 2283394 2314505 2325465 2307177 2258246 2186709 2109857 2048697 
3822.093 2018837 2025794 2064111 2121777 2184312 2238962 2278131 2299349 
3825.951 2305844 2304812 2304945 2312507 2329462 2353314 2378867 2400090 
3829.808 2412551 2414650 2407753 2395859 2383498 2374902 2372404 2376235 
3833.666 2385164 2396558 2406853 2412251 2408819 2393760 2365807 2327197 
3837.523 2282628 2239795 2206657 2187542 2184112 2193370 2210687 2230103 
3841.380 2247156 2259112 2265441 2267473 2267606 2268505 2272402 2280729 
3845.238 2293620 2311074 2331594 2354147 2378101 2402989 2429610 2459166 
3849.095 2492490 2528582 2563777 2590209 2596842 2571543 2504087 2392660 
3852.953 2249154 2100468 1978160 1905837 1890229 1922378 1985416 2062813 
3856.810 2142354 2216482 2281095 2335525 2379300 2412451 2435108 2447370 
3860.667 2450736 2446704 2437940 2426145 2411984 2394592 2373337 2348984 
3864.525 2325298 2308576 2305012 2318502 2347318 2384298 2417049 2433109 
3868.382 2422113 2380966 2316437 2244358 2184711 2151744 2149147 2170225 
3872.240 2202062 2230636 2246189 2246356 2235798 2224641 2223242 2239162 
3876.097 2273401 2321034 2372903 2418948 2449936 2459433 2445704 2412218 
3879.955 2367773 2323166 2289623 2275000 2280862 2302980 2332260 2357945 
3883.812 2369039 2358478 2325298 2276932 2227439 2192537 2184345 2206424 
3887.669 2253317 2313739 2374336 2423213 2451202 2455634 2439073 2409785 
3891.527 2378234 2353714 2342421 2346019 2362776 2389295 2422213 2458300 
3895.384 2494222 2527482 2554378 2571643 2577109 2569743 2550912 2524516 
3899.242 2495955 2470596 2452135 2441472 2436075 2431676 2423246 2407553 
3903.099 2384064 2355213 2326131 2302880 2290422 2291021 2304512 2328063 
3906.957 2358012 2390195 2421380 2449403 2473328 2493189 2509286 2522650 
3910.814 2534248 2544946 2556078 2568643 2582942 2598642 2614075 2627276 
3914.671 2635009 2635110 2626276 2609142 2586275 2561211 2537814 2519084 
3918.529 2506453 2499854 2499188 2503687 2512985 2526782 2544146 2562910 
3922.386 2580243 2592575 2597242 2593109 2581509 2565910 2551278 2541913 
3926.244 2540113 2545679 2556145 2568277 2578843 2585675 2588542 2587709 
3930.101 2584009 2578143 2570643 2561877 2552878 2545212 2541046 2541913 
3933.958 2548545 2559644 2572943 2584976 2593342 2596742 2595775 2592809 
3937.816 2590142 2589842 2592342 2596442 2599442 2599275 2594109 2583709 
3941.673 2569476 2553912 2539947 2530515 2527449 2531681 2543146 2560211 
3945.531 2580876 2602442 2621909 2636510 2644777 2646144 2641543 2633309 
3949.388 2623942 2615642 2609542 2606409 2605409 2606175 2608075 2610809 
3953.246 2613742 2616509 2618309 2618542 2616875 2614075 2611242 2610308 
3957.103 2612742 2619509 2630309 2643310 2656145 2666446 2672481 2673547 
3960.960 2670380 2664313 2657145 2650611 2645844 2644077 2645477 2650344 
3964.818 2658378 2669247 2681782 2694751 2706987 2717290 2725125 2730694 
3968.675 2734661 2738029 2741730 2746198 2751233 2756735 2761937 2766239 
3972.533 2769273 2770774 2770840 2769907 2768573 2767606 2767873 2770274 
3976.390 2775375 2783646 2795184 2809290 2825165 2841873 2857649 2871191 
3980.248 2881330 2886934 2887434 2882965 2874392 2862785 2850145 2837471 
3984.105 2826232 2816827 2809657 2804455 2801353 2800586 2801820 2805689 
3987.962 2811558 2818795 2826599 2833769 2839472 2843574 2845642 2846109 
3991.820 2844808 2841840 2836704 2829467 2820496 2810524 2801120 2793416 
3995.677 2788614 2786780 2787280 2788714 2789581 2788814 2786213 2781811 
3999.535 2776776 2771674 2767406 
##END=
