##TITLE=1111a_3_a
##JCAMP-DX=5.01  $$ Nicolet v. 1
##DATATYPE=INFRARED SPECTRUM
##ORIGIN=UniL
##OWNER=Nicolet
##LONGDATE=2011/09/28
##TIME=15:25:06
##SPECTROMETER/DATA SYSTEM=Nicolet iS5
##DATA PROCESSING=
Ratio against background
%Transmittance->Absorbance
Truncated
ElementMultiply or ElementDivide
##COMMENTS=
Number of sample scans: 32
Collection length: 51.19 sec
Sample gain: 2.0
Background collected on: Mer Sep 28 15:23:28 2011 (GMT+02:00);
Number of background scans: 32
Background gain: 2.0
Sample spacing:  1.000
Number of scan points: 12415
Resolution points: 8192
Number of FFT points: 65536
Apodization: N-B fort;
Phase correction: Mertz;
Laser frequency: 15798.0 cm-1
Number of rejected sample scans: 0
Number of rejected background scans: 0
Bench serial number: ASB1000141;
##RESOLUTION=4.000
##XUNITS=1/CM
##YUNITS=ABSORBANCE
##FIRSTX=649.893372
##LASTX=4000.122314
##FIRSTY=0.058774
##MAXX=4000.122314
##MINX=649.893372
##MAXY=0.193592
##MINY=0.000051
##XFACTOR=1.000000
##YFACTOR=1.000000E-009
##NPOINTS=6950
##DELTAX=0.482117
##ZPD=6100
##XYDATA=(X++(Y..Y))
649.893 58774428 58628512 58507592 58438860 58433404 58487044 58586872 
653.268 58718928 58877624 59066480 59294456 59569568 59893796 60261356 
656.643 60662488 61089772 61541112 62018832 62526384 63061616 63617004 
660.018 64180776 64746940 65319696 65917036 66564292 67286744 68097296 
663.393 68989616 69938944 70911176 71869792 72773760 73579152 74229840 
666.767 74656368 74800680 74651680 74277840 73797560 73321040 72901384 
670.142 72531472 72170944 71774248 71311688 70777696 70192296 69588072 
673.517 69000072 68447616 67932208 67442216 66964528 66495240 66041776 
676.892 65619388 65240756 64908968 64614736 64341368 64071244 63795380 
680.267 63515164 63239044 62975160 62725028 62481732 62232456 61964980 
683.642 61674296 61364496 61047288 60735384 60437028 60153948 59882844 
687.016 59619584 59363624 59119588 58894852 58694960 58519872 58362524 
690.391 58210460 58052504 57881580 57697552 57505696 57312684 57122964 
693.766 56936840 56751892 56566044 56381216 56204836 56047948 55921412 
697.141 55833308 55785908 55777096 55801920 55856332 55938408 56047948 
700.516 56184512 56344996 56523092 56710172 56897444 57079012 57253136 
703.890 57420976 57584720 57744328 57896076 58034172 58152952 58250204 
707.265 58329364 58397848 58465436 58540084 58624644 58718132 58818244 
710.640 58925172 59047764 59203656 59416620 59711956 60104440 60589876 
714.015 61137412 61692744 62180912 62519924 62643988 62512992 62127272 
717.390 61527712 60794836 60034164 59352040 58850684 58607236 58663328 
720.765 59026052 59661700 60500740 61433004 62326232 63041120 63444488 
724.139 63446788 63019172 62205196 61110828 59884744 58685400 57633376 
727.514 56800416 56200652 55802936 55552496 55394560 55292564 55228104 
730.889 55197664 55202068 55237132 55292904 55356620 55419028 55479336 
734.264 55544212 55623820 55724540 55845328 55977608 56111024 56237724 
737.639 56357484 56476108 56601260 56737468 56882596 57029136 57169184 
741.013 57299864 57426236 57559716 57712348 57892104 58098332 58323604 
744.388 58557828 58793772 59030792 59273796 59528408 59796364 60072820 
747.763 60347544 60609916 60854292 61082832 61303672 61526680 61757560 
751.138 61995288 62234180 62468496 62697424 62927088 63167148 63426772 
754.513 63707428 64002128 64297176 64579628 64842760 65089224 65328360 
757.888 65569328 65816624 66066428 66310236 66540852 66759264 66975236 
761.262 67204968 67461568 67749720 68062376 68385792 68706736 69021400 
764.637 69338384 69677376 70060944 70505928 71021080 71607144 72261216 
768.012 72980944 73767136 74624304 75563320 76608632 77809904 79259056 
771.387 81081456 83419200 86385240 89993240 94096544 98337328 102206048 
774.762 105075056 106352656 105676280 102987960 98590920 93030336 87002088 
778.136 81157184 75960368 71688496 68397816 65990748 64281000 63072464 
781.511 62204776 61561616 61079096 60724180 60478764 60333876 60286212 
784.886 60339740 60504740 60794948 61222100 61791748 62505148 63364432 
788.261 64378292 65567480 66962444 68595744 70498448 72693024 75193568 
791.636 78012448 81163656 84663800 88525640 92743656 97279200 102038888 
795.010 106879456 111602104 115954552 119671616 122474256 124097368 
797.903 124341320 123083352 120316528 116153440 110825080 104647488 97958680 
801.278 91114608 84432696 78158912 72486712 67531696 63341580 59913876 
804.653 57205620 55150976 53671212 52691100 52142780 51965872 52111176 
808.028 52530796 53169740 53965400 54838048 55694820 56445812 57005032 
811.402 57306028 57310944 57007296 56408304 55546548 54471664 53244192 
814.777 51927336 50588436 49287392 48071616 46975732 46017336 45200460 
818.152 44520004 43967236 43534448 43217004 43014060 42926084 42954252 
821.527 43098760 43360760 43744268 44257528 44913908 45729328 46717524 
824.902 47885224 49226340 50718308 52315160 53947844 55527344 56939108 
828.277 58062764 58786188 59018420 58717716 57898236 56634176 55039332 
831.651 53254156 51423544 49665472 48070656 46694536 45556748 44652956 
835.026 43960120 43446988 43075492 42807668 42610036 42454068 42321132 
838.401 42203352 42101412 42020996 41968332 41946472 41953768 41984788 
841.776 42032892 42093528 42164796 42247428 42342280 42449500 42567200 
845.151 42692900 42825548 42966980 43121008 43292848 43486392 43702232 
848.525 43937940 44189768 44454852 44733276 45028420 45344836 45686848 
851.900 46056684 46454120 46878388 47330520 47814304 48337040 48906748 
855.275 49530384 50212456 50954128 51757052 52624968 53565944 54593232 
858.650 55723184 56971332 58351836 59875196 61548596 63375704 65354400 
862.025 67472944 69700680 71983304 74240608 76360632 78219448 79688912 
865.400 80648496 81011456 80728456 79798480 78269008 76235704 73833576 
868.774 71210296 68522912 65916112 63500136 61358620 59539620 58058712 
872.149 56908320 56062160 55482616 55120352 54920876 54826732 54776848 
875.524 54717352 54605856 54414800 54136816 53781492 53373248 52942516 
878.899 52523168 52149244 51850004 51654152 51587132 51669268 51915872 
882.274 52332092 52911864 53634956 54468700 55374160 56304940 57217644 
885.648 58076512 58855844 59546956 60159008 60719988 61270208 61855816 
889.023 62521220 63296192 64192644 65201828 66299120 67448528 68610456 
892.398 69750048 70835304 71839224 72738344 73509096 74128784 74577360 
895.773 74836344 74890632 74728536 74339960 73718984 72866272 71793360 
899.148 70524984 69100520 67574288 66004820 64452664 62974772 61615868 
902.523 60410792 59383988 58549296 57913192 57474604 57226260 57154520 
905.897 57241460 57468744 57819116 58280516 58847120 59517352 60291508 
909.272 61169112 62147156 63220992 64385904 65638384 66976240 68396264 
912.647 69890024 71443064 73033200 74634808 76227448 77799512 79354856 
916.022 80911168 82498872 84156184 85920432 87829424 89915304 92199888 
919.397 94690656 97371320 100196808 103083944 105921896 108586920 110955408 
922.771 112941032 114510216 115696416 116595824 117359600 118178688 
925.664 119241168 120725896 122772936 125455232 128767656 132601592 
928.557 136751776 140888080 144584480 147384848 148809232 148466256 
931.450 146127456 141758656 135556384 127905816 119349800 110461672 
934.342 101775312 93748544 86682352 80747968 76003744 72420160 69920808 
937.717 68408328 67789928 67970832 68847576 70300304 72161712 74216192 
941.092 76224328 77918872 79060416 79480144 79093960 77927040 76098128 
944.467 73804712 71269872 68705416 66293404 64150588 62335944 60859784 
947.841 59698800 58812780 58156892 57692860 57387324 57211896 57143296 
951.216 57159284 57239984 57370496 57539856 57742132 57975096 58237776 
954.591 58528900 58845372 59183072 59537984 59907452 60291084 60690076 
957.966 61106024 61539736 61990396 62455792 62933752 63423440 63925728 
961.341 64443128 64978116 65531836 66103152 66689604 67287752 67895520 
964.716 68512912 69141504 69783400 70439552 71109320 71790280 72480176 
968.090 73178112 73885304 74605488 75342480 76098848 76875040 77668784 
971.465 78477920 79301288 80140288 80998528 81880576 82789688 83726456 
974.840 84689416 85676144 86685264 87717944 88777144 89866320 90987528 
978.215 92139904 93320856 94526976 95756992 97013280 98300720 99625120 
981.590 100990448 102396608 103840072 105314288 106811696 108325088 
984.482 109844616 111355664 112837392 114259264 115584808 116779272 
987.375 117812216 118664984 119333224 119825456 120160152 120362296 
990.268 120463288 120497656 120502120 120515936 120573888 120703016 
993.160 120920376 121230912 121630328 122109320 122659104 123273480 
996.053 123949904 124686856 125481592 126328352 127219440 128146800 
998.946 129105000 130092384 131108120 132149432 133207736 134266416 
1001.839 135303264 136295904 137225152 138080880 138862448 139576800 
1004.731 140235664 140852976 141445984 142034240 142641408 143295104 
1007.624 144020560 144838608 145760416 146786480 147909232 149117072 
1010.517 150400576 151753744 153173904 154659056 156203424 157797088 
1013.409 159427904 161084592 162761264 164457472 166174400 167907616 
1016.302 169641648 171344032 172971632 174475328 175808224 176937616 
1019.195 177846544 178535328 179019424 179329360 179510112 179616272 
1022.087 179715296 179878064 180165440 180626080 181284048 182138208 
1024.980 183165776 184330704 185592320 186906128 188228880 189514656 
1027.873 190709504 191758240 192606736 193209120 193539552 193591872 
1030.766 193379632 192927824 192268960 191438800 190472240 189407984 
1033.659 188285136 187135424 185977664 184805776 183585472 182251072 
1036.552 180717744 178897952 176707216 174083872 170992976 167424912 
1039.446 163397536 158953312 154161664 149109648 143901296 138650688 
1042.339 133459840 128419800 123601384 119048968 114790392 110839104 
1045.232 107198392 103865784 100834192 98091808 95621560 93403008 91415016 
1048.607 89636176 88048064 86635952 85386008 84285144 83319192 82471632 
1051.982 81726336 81068200 80484240 79965312 79502776 79086656 78704328 
1055.357 78338128 77966688 77568984 77124192 76616536 76035248 75375432 
1058.733 74637640 73828552 72962400 72061296 71153384 70274240 69459744 
1062.108 68742760 68151784 67706272 67417952 67292200 67329032 67524464 
1065.483 67870064 68353176 68955216 69651816 70416920 71222752 72043848 
1068.858 72860664 73657312 74421520 75143072 75811688 76418272 76955728 
1072.234 77421408 77817432 78151016 78433776 78679024 78901648 79117664 
1075.609 79342376 79589528 79868728 80181696 80519736 80862552 81182864 
1078.984 81449384 81633920 81718736 81696336 81570056 81349104 81045920 
1082.359 80673512 80245896 79783152 79312704 78871608 78509160 78279792 
1085.735 78239048 78442984 78937248 79755832 80916120 82412424 84209440 
1089.110 86234072 88382096 90510544 92452216 94047496 95149160 95654104 
1092.485 95521224 94771232 93486840 91791800 89846920 87818440 85856264 
1095.860 84091392 82612872 81465168 80650696 80132040 79839928 79678448 
1099.236 79545392 79336248 78953936 78326736 77407632 76182232 74669080 
1102.611 72916904 70997128 68987488 66969088 65012404 63168408 61474076 
1105.986 59949252 58600864 57428504 56427132 55589812 54908276 54373716 
1109.361 53977220 53708440 53556572 53510060 53554660 53674248 53848848 
1112.737 54053540 54262532 54448112 54584628 54652936 54639788 54539132 
1116.112 54351748 54083336 53743988 53346008 52905612 52440348 51967780 
1119.487 51505984 51070316 50673100 50324056 50029308 49791312 49608416 
1122.862 49473496 49372692 49284240 49182480 49039452 48831624 48546000 
1126.238 48183700 47761264 47306208 46854656 46442692 46099200 45845380 
1129.613 45690932 45635536 45670356 45780832 45948388 46150564 46364708 
1132.988 46569964 46748700 46891568 46997512 47075132 47139132 47208532 
1136.363 47302956 47437984 47624812 47868316 48166340 48509876 48883312 
1139.739 49266608 49635532 49965252 50235368 50429840 50539972 50564388 
1143.114 50506660 50373576 50173180 49914736 49607376 49261152 48886648 
1146.489 48493576 48089380 47678352 47260656 46833028 46390296 45927940 
1149.864 45443384 44936912 44411612 43872652 43326308 42778344 42235012 
1153.240 41702136 41184924 40688448 40216712 39772100 39355624 38966656 
1156.615 38604112 38266652 37953972 37666740 37406060 37173332 36969836 
1159.990 36796300 36653224 36541152 36460244 36409832 36387280 36387064 
1163.365 36400864 36417364 36423704 36408248 36359644 36269372 36131112 
1166.740 35940308 35694076 35391944 35035816 34630744 34184928 33709028 
1170.116 33214048 32710622 32207716 31712410 31230092 30766378 30326678 
1173.491 29917986 29547484 29221844 28946772 28726564 28564076 28461466 
1176.866 28420926 28444876 28535838 28695770 28925806 29226662 29598844 
1180.241 30044090 30565900 31169106 31859248 32641572 33519178 34494192 
1183.617 35568264 36744048 38026660 39423648 40943496 42593548 44377260 
1186.992 46291020 48320740 50440076 52610044 54773392 56859672 58790660 
1190.367 60481396 61858832 62870404 63490240 63725540 63612400 63210756 
1193.742 62587000 61809284 60936296 60007872 59047272 58060832 57043380 
1197.118 55984052 54872932 53706192 52488804 51234704 49962912 48696612 
1200.493 47457056 46260832 45120680 44044088 43035388 42097800 41234400 
1203.868 40448568 39742944 39118656 38573656 38102184 37695832 37344240 
1207.243 37036840 36764348 36519384 36295880 36089488 35896436 35714332 
1210.619 35542300 35382128 35238156 35116924 35027232 34977992 34977596 
1213.994 35034236 35155404 35348124 35619548 35975976 36422340 36961576 
1217.369 37593896 38318220 39132288 40035004 41025536 42104112 43270624 
1220.744 44523492 45859996 47277316 48774012 50351696 52015584 53773952 
1224.120 55635196 57605760 59687852 61877516 64164220 66527912 68940296 
1227.495 71361128 73735128 75999048 78078872 79895928 81379800 82467744 
1230.870 83113392 83293056 83007168 82286496 81189616 79809512 78264128 
1234.245 76681048 75200112 73950984 73042960 72570352 72601600 73183016 
1237.621 74344752 76099360 78443664 81354424 84788168 88673624 92906344 
1240.996 97361656 101885360 106300304 110429592 114085200 117088952 
1243.889 119296632 120599040 120944720 120344240 118869088 116640040 
1246.782 113806896 110550648 107056376 103500888 100054064 96845984 93958784 
1250.157 91415920 89175040 87134048 85143272 83046872 80700200 78002688 
1253.532 74921264 71489816 67803832 63989960 60196116 56559136 53180448 
1256.908 50128884 47430108 45074544 43026356 41235276 39647136 38206804 
1260.283 36868220 35596244 34365532 33162578 31982530 30826632 29698918 
1263.658 28604100 27546842 26530438 25558292 24634184 23762222 22946288 
1267.033 22188790 21490122 20848020 20258866 19719016 19225930 18778658 
1270.409 18377400 18021652 17709646 17437458 17199912 16992228 16811234 
1273.784 16655549 16525151 16420357 16340051 16282048 16243385 16221613 
1277.159 16215697 16226530 16256111 16306233 16377622 16469913 16582223 
1280.534 16712982 16860592 17021586 17189156 17351514 17492682 17593558 
1283.910 17637486 17614090 17522212 17370790 17176952 16962872 16749518 
1287.285 16555682 16395342 16277818 16208852 16192067 16228663 16317517 
1290.660 16454943 16634893 16849912 17092094 17354548 17629962 17910248 
1294.035 18186570 18447472 18681448 18879490 19036732 19154696 19240270 
1297.411 19304592 19359362 19414692 19478728 19556430 19651512 19767180 
1300.786 19905424 20065990 20245186 20434984 20623436 20796362 20941368 
1304.161 21047712 21108406 21119954 21081170 20993040 20858412 20683550 
1307.536 20478258 20255394 20030700 19818052 19628598 19468678 19340100 
1310.912 19242106 19173776 19135340 19128898 19156704 19219732 19316196 
1314.287 19441962 19592408 19763816 19954960 20166912 20401572 20660024 
1317.662 20941888 21245130 21567626 21908832 22269838 22652576 23057734 
1321.037 23482718 23921946 24366348 24806472 25234856 25647878 26045922 
1324.413 26433764 26819982 27217336 27641256 28110410 28644056 29255690 
1327.788 29949438 30712890 31517300 32315854 33055376 33685680 34166936 
1331.163 34480844 34630924 34641508 34549796 34400968 34242360 34115212 
1334.538 34055864 34093136 34245408 34521816 34921360 35435332 36049916 
1337.914 36750936 37528216 38375372 39289244 40266548 41300096 42377568 
1341.289 43480972 44586972 45668148 46693392 47623332 48416080 49026988 
1344.664 49412824 49541972 49395896 48972464 48283784 47353356 46212620 
1348.039 44895388 43440324 41889324 40285272 38677160 37115836 35648072 
1351.415 34318304 33159182 32189086 31413992 30827806 30417680 30166216 
1354.790 30055026 30063476 30166572 30337054 30544784 30759940 30958976 
1358.165 31125000 31249212 31329758 31369432 31374600 31354834 31326376 
1361.540 31313736 31347886 31466178 31702462 32079484 32607104 33282082 
1364.916 34093636 35028380 36073320 37213000 38421808 39661220 40873924 
1368.291 41983840 42912260 43582908 43934568 43933064 43570088 42865152 
1371.666 41859876 40620808 39234404 37795116 36408068 35168232 34143244 
1375.041 33369232 32846368 32550280 32446724 32508392 32723092 33096496 
1378.417 33649200 34411220 35418904 36705500 38299152 40211588 42425720 
1381.792 44876800 47437024 49931980 52137512 53819480 54780568 54866280 
1385.167 54002656 52209772 49623572 46487460 43108420 39818256 36876548 
1388.542 34430160 32516818 31087876 30052754 29308858 28768836 28362844 
1391.917 28038268 27760236 27505256 27260940 27025896 26807716 26619132 
1395.293 26471868 26371830 26316696 26298284 26304656 26323948 26347466 
1398.668 26369118 26387356 26402672 26416688 26430138 26442286 26450914 
1402.043 26453168 26447920 26437568 26429046 26434400 26468486 26544384 
1405.418 26670464 26847332 27069092 27325790 27607534 27907796 28223366 
1408.794 28553814 28899068 29257178 29623816 29993886 30362850 30729318 
1412.169 31094850 31462614 31834472 32210354 32587066 32960530 33327586 
1415.544 33686076 34035184 34373100 34695808 34998892 35281240 35552480 
1418.919 35834032 36158584 36555676 37037924 37599096 38216792 38864244 
1422.295 39517956 40169096 40826636 41516784 42272884 43124520 44089048 
1425.670 45167700 46351916 47630208 48994756 50437580 51943992 53487196 
1429.045 55020792 56483428 57815068 58967372 59920040 60683636 61296804 
1432.420 61813180 62285804 62762812 63281892 63876860 64590396 65479972 
1435.796 66617020 68074656 69890952 72052568 74496640 77130920 79853032 
1439.171 82551680 85115016 87408688 89283232 90605480 91262248 91189656 
1442.546 90379640 88871304 86737816 84065784 80953448 77493608 73766104 
1445.921 69851536 65833016 61813100 57933332 54353624 51226128 48659844 
1449.297 46689516 45284520 44373736 43883024 43753024 43946004 44439876 
1452.672 45210352 46222020 47434804 48804852 50299908 51908924 53633156 
1456.047 55477268 57424872 59429500 61414992 63302016 65034724 66584112 
1459.422 67941544 69109264 70098360 70923928 71600968 72141328 72546816 
1462.798 72808120 72911648 72850752 72641944 72327592 71970944 71631368 
1466.173 71341056 71100264 70882352 70650192 70364392 69991576 69499720 
1469.548 68848432 67982736 66835700 65343924 63485064 61312792 58971812 
1472.923 56651124 54519296 52666300 51094580 49754004 48587948 47568760 
1476.299 46708444 46050492 45642272 45519728 45693584 46155652 46893412 
1479.674 47903796 49199512 50805604 52746764 55033692 57654488 60577380 
1483.049 63760804 67163040 70756248 74523072 78444976 82494304 86608448 
1486.424 90672888 94528376 97959768 100718776 102566264 103292992 102777080 
1489.800 101026112 98196648 94566848 90455248 86161904 81892256 77743480 
1493.175 73740432 69855696 66051728 62318584 58686272 55232620 52067092 
1496.550 49291772 46969900 45108180 43673324 42610292 41866960 41406948 
1499.925 41207440 41254072 41533372 42027492 42711036 43553860 44512920 
1503.301 45534812 46553364 47469620 48154492 48448936 48185148 47256036 
1506.676 45681104 43617492 41280380 38845508 36402160 33970760 31545342 
1510.051 29127582 26736142 24417098 22229136 20221512 18428494 16858490 
1513.426 15497478 14320157 13296930 12400533 11606364 10894668 10253713 
1516.802 9679190 9175844 8751475 8409704 8144259 7935361 7752266 7563414 
1520.659 7347313 7106295 6867868 6670753 6541871 6482237 6470062 6472686 
1524.516 6462428 6423485 6358656 6284557 6222909 6188188 6180929 6190541 
1528.374 6203850 6213665 6221060 6233664 6258337 6294508 6331490 6350755 
1532.231 6333540 6272187 6178207 6081189 6012715 5992927 6020543 6078366 
1536.089 6142314 6191045 6211615 6198809 6154009 6080987 5983958 5865556 
1539.946 5732111 5597801 5484102 5411293 5389386 5413139 5464406 5519638 
1543.803 5561218 5583268 5594411 5611294 5650668 5719219 5810984 5910562 
1547.661 6000923 6071142 6119899 6155891 6191381 6236689 6292222 6348939 
1551.518 6392515 6410942 6399812 6364607 6318411 6276893 6251917 6245900 
1555.376 6252723 6259782 6253295 6218438 6140398 6008045 5820924 5600419 
1559.233 5387910 5229862 5152905 5155252 5217488 5313239 5417399 5508464 
1563.091 5573468 5609347 5623479 5630427 5646169 5680511 5733051 5794362 
1566.948 5850745 5891753 5913148 5919295 5921041 5931622 5961182 6014025 
1570.805 6089253 6184525 6297836 6427554 6569790 6718333 6861910 6987654 
1574.663 7086222 7157897 7217152 7290399 7406662 7581958 7816831 8101385 
1578.520 8424602 8781430 9174659 9612788 10106365 10662302 11281281 11956995 
1582.378 12677497 13427526 14187513 14932851 15634336 16256560 16765153 
1585.753 17134108 17350858 17421834 17372170 17245934 17096436 16982650 
1589.128 16964044 17089854 17398416 17912458 18634408 19542252 20583618 
1592.503 21681958 22733222 23619876 24236066 24491622 24336280 23767122 
1595.879 22830540 21612548 20216860 18755270 17321754 15984695 14791244 
1599.254 13764001 12908828 12219192 11681478 11278594 10994297 10817890 
1602.629 10743978 10772441 10904998 11142558 11482065 11916263 12432139 
1606.004 13010217 13624928 14239312 14806877 15277360 15598202 15727086 
1609.380 15639728 15332791 14827036 14163447 13401143 12601085 11818125 
1612.755 11093200 10445300 9876218 9375351 8927213 8516772 8135718 7787110 
1616.612 7482975 7239321 7068069 6971257 6940584 6961021 7013481 7078577 
1620.470 7140112 7185385 7208629 7212267 7205765 7201993 7211493 7238882 
1624.327 7281470 7332351 7383845 7431402 7473334 7510078 7542746 7572483 
1628.185 7600200 7627243 7657054 7694623 7744440 7809578 7889605 7979907 
1632.042 8071577 8153612 8213982 8240827 8225564 8164685 8064759 7943224 
1635.899 7825197 7736142 7690543 7690239 7726529 7785087 7850602 7909749 
1639.757 7954832 7984564 8004172 8022634 8048995 8087679 8137000 8188522 
1643.614 8230055 8248966 8234850 8183256 8097604 7990503 7880933 7790349 
1647.472 7737795 7733511 7779791 7870103 7993170 8131802 8263081 8360013 
1651.329 8389301 8321373 8147230 7901111 7658167 7491166 7432008 7464165 
1655.187 7550096 7653614 7750747 7830225 7888728 7928679 7953584 7966576 
1659.044 7967960 7956047 7927937 7880866 7813457 7726361 7622657 7509202 
1662.901 7395574 7292791 7211122 7156853 7130849 7127818 7137821 7148364 
1666.759 7145434 7117140 7056888 6964658 6848546 6722034 6601311 6499289 
1670.616 6423788 6376308 6353175 6346585 6345341 6335826 6303552 6236824 
1674.474 6132366 6000486 5863809 5747220 5668157 5628950 5618578 5619451 
1678.331 5615456 5598439 5569609 5538632 5517692 5514437 5526216 5538766 
1682.188 5527927 5468901 5345508 5164205 4957372 4772378 4645698 4585487 
1686.046 4576279 4593390 4615458 4627715 4623060 4600355 4562081 4512427 
1689.903 4457490 4404568 4362061 4336592 4331940 4345595 4368721 4385757 
1693.761 4379130 4334149 4246877 4130821 4015064 3932805 3901343 3916622 
1697.618 3955341 3987542 3982292 3918428 3793468 3631455 3476985 3369950 
1701.476 3328679 3344172 3394327 3454941 3507647 3541085 3550104 3536809 
1705.333 3508616 3477051 3452002 3440012 3442684 3457613 3480625 3507346 
1709.190 3535005 3563634 3595071 3632023 3676698 3729531 3789123 3852467 
1713.048 3916188 3978179 4037169 4092288 4141660 4180398 4201943 4199534 
1716.905 4171968 4125503 4075665 4041249 4034828 4060146 4110651 4174711 
1720.763 4239583 4295765 4338466 4368119 4388769 4405773 4423680 4444635 
1724.620 4468571 4494817 4522806 4553041 4585655 4619878 4653368 4682071 
1728.478 4703005 4715197 4721192 4725480 4731811 4739850 4742463 4726284 
1732.335 4674033 4572026 4419095 4234999 4055229 3918695 3846282 3835118 
1736.192 3866039 3914917 3961226 3989348 3991856 3968649 3926753 3876737 
1740.050 3829334 3792064 3766997 3752926 3746943 3746208 3749183 3755934 
1743.907 3766829 3783006 3805635 3834582 3869549 3908732 3949356 3988178 
1747.765 4021886 4047604 4063490 4068775 4063523 4049276 4029243 4008476 
1751.622 3993193 3989248 3999414 4022287 4052152 4079444 4092555 4081819 
1755.479 4041383 3972862 3885496 3793635 3711552 3646959 3599949 3563300 
1759.337 3527155 3481727 3421710 3347511 3265211 3184162 3114208 3062016 
1763.194 3030317 3017705 3020041 3031952 3046967 3058379 3060448 3050204 
1767.052 3028616 3001590 2978103 2966659 2970629 2987010 3006628 3018139 
1770.909 3011833 2984742 2943541 2902911 2878962 2881130 2909949 2957652 
1774.767 3014135 3070759 3123986 3174282 3224217 3275660 3327844 3376661 
1778.624 3416467 3443385 3456744 3460351 3461354 3466597 3479790 3499965 
1782.481 3522478 3541719 3553044 3555416 3550873 3544191 3540149 3542053 
1786.339 3551975 3570081 3595706 3627980 3665003 3703164 3736550 3757705 
1790.196 3758708 3733943 3682679 3610807 3530261 3453839 3392156 3349514 
1794.054 3324171 3310349 3302135 3294824 3285476 3272823 3256264 3234766 
1797.911 3207527 3173615 3133431 3088345 3041562 2996452 2956017 2922458 
1801.769 2896373 2877828 2866321 2861551 2863019 2869923 2880530 2893238 
1805.626 2906380 2919256 2932232 2946176 2962089 2979537 2997153 3012834 
1809.483 3025079 3033787 3041261 3051405 3067822 3092683 3125688 3163635 
1813.341 3202754 3239139 3271320 3299932 3326776 3354790 3385844 3420976 
1817.198 3459617 3500432 3541920 3582743 3621766 3658153 3690967 3719272 
1821.056 3742599 3760412 3772378 3777491 3774550 3762284 3740861 3712321 
1824.913 3682011 3656749 3642782 3643116 3655947 3674860 3690298 3693072 
1828.771 3678035 3646391 3606931 3571986 3554413 3560794 3590962 3638405 
1832.628 3694241 3750587 3802326 3848188 3889508 3929394 3970287 4013827 
1836.485 4060982 4112190 4168990 4233594 4308314 4394962 4493344 4601761 
1840.343 4716603 4833419 4947652 5054943 5152168 5238045 5314849 5388547 
1844.200 5468130 5563400 5680712 5821092 5979725 6147590 6314242 6469289 
1848.058 6606190 6721563 6815560 6889917 6946644 6985903 7006309 7005804 
1851.915 6983277 6939406 6877159 6801020 6714967 6621598 6521757 6415179 
1855.772 6302005 6183382 6061936 5940657 5821629 5705320 5590887 5476720 
1859.630 5363018 5251728 5146568 5051725 4969504 4899731 4839752 4786180 
1863.487 4736802 4691918 4653971 4625739 4608392 4599685 4594461 4585922 
1867.345 4568945 4542527 4510887 4481359 4461842 4456988 4466729 4487251 
1871.202 4512729 4538878 4562985 4584014 4601694 4615324 4623227 4623864 
1875.060 4615927 4600154 4578790 4554782 4530206 4505464 4478547 4446644 
1878.917 4407078 4359049 4303963 4244435 4183409 4122325 4061818 4001186 
1882.774 3941030 3882755 3830170 3786716 3755366 3735814 3724986 3717434 
1886.632 3707642 3691334 3667442 3637470 3604927 3574424 3550572 3536441 
1890.489 3534170 3544659 3566874 3598479 3635331 3672721 3706372 3734010 
1894.347 3756435 3777391 3802259 3835184 3877606 3927689 3980453 4031350 
1898.204 4077504 4119515 4160460 4204720 4255042 4311928 4373340 4435363 
1902.062 4494315 4548353 4596738 4639871 4677884 4710440 4736333 4755561 
1905.919 4769296 4779949 4790904 4804003 4819113 4833721 4843940 4846888 
1909.776 4841728 4831040 4818476 4807923 4800753 4795962 4791038 4783131 
1913.634 4771440 4757403 4743301 4730638 4718479 4703005 4678855 4642082 
1917.491 4592519 4534525 4475668 4422542 4378394 4341244 4305871 4266017 
1921.349 4218437 4164240 4109046 4060213 4023993 4002825 3994999 3996036 
1925.206 4002055 4009981 4019177 4029411 4039778 4047637 4049644 4043490 
1929.063 4029411 4011318 3994531 3984399 3983094 3988846 3996805 4001754 
1932.921 4000717 3994598 3987174 3982058 3981322 3983730 3985067 3981122 
1936.778 3970622 3955642 3941565 3933540 3934209 3941264 3949289 3951696 
1940.636 3944039 3926987 3905422 3886633 3876771 3878008 3888672 3904854 
1944.493 3922975 3942033 3962898 3986773 4013291 4040012 4062219 4075932 
1948.351 4080949 4080581 4081451 4090247 4111019 4142697 4181234 4220378 
1952.208 4256213 4287868 4317349 4347636 4379398 4409522 4433087 4443832 
1956.065 4439078 4419764 4390778 4358747 4328727 4303060 4281175 4261600 
1959.923 4244334 4232222 4229612 4240186 4264243 4297773 4332476 4361191 
1963.780 4379565 4387464 4389539 4391079 4395999 4404267 4413538 4420668 
1967.638 4424082 4426860 4433388 4448284 4473760 4507138 4543498 4577350 
1971.495 4605177 4626944 4645297 4663549 4683879 4707593 4736132 4773182 
1975.353 4825948 4902277 5007478 5140231 5288251 5431625 5547526 5619316 
1979.210 5639758 5614315 5555211 5479203 5401363 5330346 5270509 5221780 
1983.067 5184156 5156761 5139359 5130340 5126350 5122495 5114817 5101641 
1986.925 5086455 5075794 5077236 5095674 5129770 5173560 5217622 5253438 
1990.782 5277351 5291437 5302573 5318304 5343965 5379422 5420754 5462358 
1994.640 5499403 5529806 5554002 5573468 5588773 5599278 5604178 5603038 
1998.497 5598237 5593707 5594814 5604749 5623076 5646102 5666008 5675811 
2002.354 5670775 5649896 5615993 5574609 5532424 5495678 5469170 5456923 
2006.212 5460916 5481350 5513665 5550311 5580483 5593203 5581959 5545915 
2010.069 5492289 5432430 5378450 5339772 5319512 5315319 5321826 5334975 
2013.927 5354330 5382542 5423975 5481585 5553768 5635327 5718480 5796679 
2017.784 5866160 5926953 5980531 6028136 6068790 6100174 6119933 6128905 
2021.642 6130552 6131291 6137307 6152194 6175249 6201733 6226841 6245732 
2025.499 6257295 6262371 6261766 6254807 6237530 6204725 6153606 6085725 
2029.356 6009591 5938340 5885539 5862197 5872004 5911939 5974081 6049302 
2033.214 6130182 6211212 6289835 6362892 6427184 6479109 6516509 6540391 
2037.071 6554249 6563971 6574937 6590883 6611943 6635661 6659582 6681756 
2040.929 6702113 6721697 6741047 6758917 6772513 6777865 6773254 6759388 
2044.786 6739869 6719948 6704031 6694542 6691278 6691278 6691985 6691581 
2048.644 6688990 6681991 6668095 6642154 6599159 6536153 6454929 6362388 
2052.501 6269464 6188155 6127259 6089287 6070100 6061129 6053468 6040567 
2056.358 6021248 5998873 5978583 5964373 5957486 5956210 5958125 5961215 
2060.216 5965649 5972771 5983958 5998370 6012547 6021886 6021954 6011875 
2064.073 5994204 5974417 5958595 5951003 5952481 5960678 5972166 5983588 
2067.931 5994036 6004081 6014831 6026053 6036300 6042280 6041709 6033612 
2071.788 6019367 6001998 5984462 5968438 5952717 5934913 5912274 5883289 
2075.646 5848999 5811589 5773779 5736946 5700787 5663390 5623411 5580516 
2079.503 5536384 5494202 5456655 5425854 5401598 5382341 5366876 5354598 
2083.360 5346112 5342489 5344066 5348829 5352586 5351076 5340073 5318438 
2087.218 5288050 5252868 5217085 5183954 5154112 5126585 5099931 5073179 
2091.075 5047132 5023701 5004965 4992328 4985458 4983647 4986329 4993937 
2094.933 5008216 5030338 5060239 5094601 5128597 5156224 5173090 5178422 
2098.790 5175370 5168966 5163803 5163232 5166988 5173157 5179093 5183954 
2102.647 5188951 5196797 5210043 5229091 5251895 5274802 5294590 5309684 
2106.505 5321323 5333533 5350472 5374659 5406395 5443133 5481418 5518363 
2110.362 5552459 5583973 5613476 5641269 5666579 5687862 5703775 5714619 
2114.220 5722173 5729593 5740203 5756655 5779890 5809507 5844062 5882516 
2118.077 5923325 5965414 6006231 6042112 6069597 6085591 6089791 6085086 
2121.935 6076888 6071377 6073326 6083911 6100073 6116371 6126217 6125041 
2125.792 6111364 6086733 6054611 6018124 5979086 5937970 5893936 5846581 
2129.649 5796847 5746750 5699176 5656576 5620525 5591256 5568534 5552090 
2133.507 5541586 5536652 5536518 5538901 5541082 5540277 5535276 5526585 
2137.364 5516584 5507658 5502289 5499940 5499336 5498631 5496752 5494068 
2141.222 5492390 5493263 5496115 5498631 5496953 5487692 5470814 5449877 
2145.079 5431121 5421492 5424545 5439677 5461654 5482290 5495041 5496819 
2148.937 5488061 5472291 5453131 5432497 5409247 5382073 5349399 5311495 
2152.794 5270878 5230030 5188850 5145562 5096780 5040730 4982609 4935286 
2156.651 4918027 4952613 5055211 5228588 5460849 5727041 5998336 6248186 
2160.509 6460679 6628226 6751681 6835318 6885844 6910453 6916715 6913415 
2164.366 6908466 6907053 6910419 6914257 6911867 6895741 6861809 6811050 
2168.224 6749528 6686197 6628697 6582204 6547320 6521588 6501172 6483851 
2172.081 6468549 6456038 6447395 6442822 6441578 6442351 6444268 6447765 
2175.938 6453146 6459906 6465287 6465051 6454693 6432228 6400451 6366692 
2179.796 6342080 6335961 6354184 6395541 6452675 6513953 6568546 6609890 
2183.653 6635156 6647201 6648984 6645149 6638285 6630446 6624188 6622641 
2187.511 6629975 6648580 6678997 6717962 6759557 6798025 6828619 6850296 
2191.368 6864468 6874600 6883487 6892476 6899983 6904157 6903585 6898232 
2195.226 6889244 6878875 6867801 6855447 6839559 6818219 6790688 6759052 
2199.083 6727183 6699186 6678189 6664966 6657867 6654637 6652954 6652147 
2202.940 6652820 6655747 6660525 6665538 6667860 6664798 6656353 6644173 
2206.798 6633003 6627216 6630009 6641381 6658472 6676877 6692187 6701979 
2210.655 6705882 6704973 6701642 6697537 6694071 6692725 6695114 6703257 
2214.513 6718198 6740307 6766994 6794221 6817411 6832154 6837910 6836058 
2218.370 6830976 6826835 6826432 6830101 6835755 6840165 6840804 6836631 
2222.228 6828418 6817377 6804554 6790048 6772917 6752456 6729236 6704940 
2226.085 6682261 6663418 6649590 6639126 6628764 6614970 6594987 6567974 
2229.942 6535581 6499760 6463370 6428294 6395508 6365616 6339525 6318209 
2233.800 6302812 6293500 6289432 6288087 6287113 6284490 6280120 6275683 
2237.657 6273666 6276658 6285902 6300795 6318882 6338617 6358555 6378998 
2241.515 6400955 6425301 6451633 6478268 6502148 6520546 6532184 6537734 
2245.372 6538911 6538138 6536758 6534841 6531006 6523506 6511599 6495993 
2249.229 6478840 6462563 6450086 6442788 6440703 6443797 6451498 6463773 
2253.087 6480858 6502551 6527879 6554754 6580252 6600908 6614196 6618604 
2256.944 6613523 6599461 6577831 6550045 6518494 6486071 6455937 6431388 
2260.802 6414708 6406873 6407210 6413901 6424091 6436129 6449077 6463639 
2264.659 6481161 6502417 6527643 6555629 6584357 6611640 6635964 6656420 
2268.517 6672671 6685087 6693937 6699489 6702685 6704570 6706488 6709449 
2272.374 6713756 6718534 6722101 6722371 6718333 6710357 6700431 6691514 
2276.231 6685861 6684582 6686837 6690336 6692691 6692288 6689596 6686265 
2280.089 6684582 6686635 6692624 6702315 6714395 6727688 6741956 6757975 
2283.946 6775980 6796375 6817445 6837135 6852956 6863324 6867868 6868104 
2287.804 6866050 6863997 6863155 6864064 6866286 6869450 6874028 6880357 
2291.661 6889884 6903215 6920014 6939406 6959607 6979270 6997184 7013178 
2295.519 7027355 7039950 7051029 7060223 7067463 7073222 7078408 7084471 
2299.376 7092352 7102355 7113334 7123304 7129805 7131354 7127245 7118623 
2303.233 7107575 7095854 7084808 7075041 7066318 7057865 7049311 7041027 
2307.091 7033450 7027187 7022539 7019441 7017455 7016343 7016108 7017118 
2310.948 7019610 7023550 7028231 7032844 7036312 7038400 7039310 7040051 
2314.806 7041936 7045607 7051130 7057057 7062344 7065544 7066386 7065914 
2318.663 7065678 7068069 7075377 7088950 7109899 7137350 7170091 7204788 
2322.521 7236861 7260917 7271160 7263039 7234806 7187709 7126369 7057629 
2326.378 6989035 6927555 6877091 6839256 6812969 6795803 6784865 6778369 
2330.235 6775980 6778033 6785134 6797755 6815459 6837102 6861438 6887089 
2334.093 6912944 6938598 6963614 6987621 7011023 7033787 7056114 7078442 
2337.950 7100906 7122934 7143649 7162007 7176929 7188113 7196030 7201083 
2341.808 7204216 7205429 7204250 7199668 7191381 7180803 7171169 7167969 
2345.665 7177435 7205496 7255661 7328982 7423380 7534655 7657357 7785154 
2349.522 7912516 8034144 8145408 8243934 8328669 8400414 8461630 8514880 
2353.380 8562966 8607171 8648270 8686230 8721556 8755566 8790492 8829140 
2357.237 8874217 8927586 8989857 9061068 9139838 9224917 9313702 9403759 
2361.095 9491869 9575188 9651612 9720256 9782233 9839543 9894826 9949575 
2364.952 10003245 10053734 10097175 10130750 10152627 10163243 10164397 
2368.327 10158630 10147641 10131632 10109893 10082050 10048647 10011823 
2371.703 9976222 9946456 9927336 9922217 9932760 9959509 10003008 10063399 
2375.560 10141638 10238278 10353229 10485861 10634220 10795878 10968572 
2378.935 11151262 11342972 11543138 11751226 11965306 12182660 12399919 
2382.311 12613569 12820362 13018138 13204766 13378830 13538162 13680867 
2385.686 13804600 13907087 13987357 14044574 14079312 14092523 14085438 
2389.061 14059838 14017573 13961112 13892958 13815648 13730896 13640006 
2392.436 13543256 13440341 13331437 13217232 13099574 12981266 12865617 
2395.812 12755594 12654094 12562952 12484037 12419080 12370055 12338964 
2399.187 12327374 12335896 12363748 12409568 12471044 12546445 12634411 
2402.562 12734508 12846709 12970819 13106404 13252554 13408832 13575082 
2405.937 13752202 13941540 14144517 14361801 14593002 14836670 15090629 
2409.313 15352700 15621214 15895016 16172877 16453393 16733781 17010974 
2412.688 17280516 17538288 17780128 18002002 18200250 18370868 18510466 
2416.063 18616666 18688712 18728286 18738768 18725760 18694592 18649834 
2419.438 18594462 18529346 18454732 18369866 18275064 18171366 18060718 
2422.813 17945400 17827940 17710750 17595906 17486508 17385448 17296342 
2426.189 17222594 17167060 17131798 17117734 17125766 17156166 17209840 
2429.564 17287584 17390138 17517382 17668232 17840746 18032464 18241544 
2432.939 18466418 18706978 18963002 19234522 19521526 19823222 20139458 
2436.314 20469958 20815516 21177422 21557388 21956682 22376402 22816990 
2439.690 23279178 23763448 24270648 24802016 25357780 25937644 26540404 
2443.065 27164070 27806896 28467480 29145122 29839332 30549476 31273778 
2446.440 32009530 32753036 33500138 34246880 34989880 35726384 36454080 
2449.815 37170876 37874248 38561888 39231500 39880104 40504764 41101800 
2453.191 41665956 42191524 42672248 43101212 43473100 43782888 44025940 
2456.566 44198132 44294696 44310548 44240912 44081276 43829144 43483572 
2459.941 43045524 42518268 41905672 41213488 40447844 39615808 38724576 
2463.316 37782064 36795796 35773656 34723660 33654068 32573886 31492684 
2466.692 30420204 29366428 28340562 27351196 26405702 25509832 24668588 
2470.067 23885466 23162640 22500998 21899562 21356174 20866582 20425362 
2473.442 20026468 19663646 19330712 19022678 18734998 18464310 18208268 
2476.817 17965084 17733668 17513932 17306308 17111394 16929384 16759953 
2480.193 16601466 16451845 16308537 16169369 16033614 15901718 15774878 
2483.568 15655220 15543940 15441682 15348409 15263735 15187415 15119789 
2486.943 15061676 15013448 14975137 14945746 14923044 14904870 14889850 
2490.318 14877472 14868968 14866293 14871368 14885770 14909327 14941254 
2493.694 14979768 15023155 15070320 15120029 15171598 15224339 15277051 
2497.069 15328878 15378857 15426439 15471828 15515471 15557230 15597207 
2500.444 15634816 15669681 15701458 15730763 15758215 15785152 15812332 
2503.819 15840098 15867969 15895532 15922340 15948499 15974727 16001746 
2507.195 16030073 16059607 16089143 16116995 16141100 16159637 16171124 
2510.570 16174287 16168337 16152242 16125180 16086426 16035885 15974037 
2513.945 15901925 15820958 15732618 15637873 15538204 15434919 15329839 
2517.320 15225539 15124730 15030050 14943482 14865437 14795803 14733243 
2520.696 14676757 14625145 14577857 14535268 14497478 14464968 14437667 
2524.071 14416019 14400160 14390330 14386460 14388035 14393927 14402558 
2527.446 14412217 14422150 14432460 14444894 14461851 14485934 14518548 
2530.821 14559731 14608285 14662295 14719293 14778285 14838556 14900377 
2534.197 14964060 15029981 15097799 15167342 15238408 15311201 15386478 
2537.572 15465064 15547373 15632790 15720593 15809411 15898282 15987033 
2540.947 16076041 16165931 16257556 16350888 16445374 16540123 16634032 
2544.322 16726550 16817502 16906854 16994572 17080376 17163648 17243692 
2547.698 17319960 17392450 17461224 17526558 17588730 17647458 17703124 
2551.073 17756070 17807536 17859184 17912666 17969160 18028456 18089146 
2554.448 18148322 18203464 18252014 18292550 18325036 18349852 18367654 
2557.823 18378646 18382552 18378508 18366168 18345290 18316016 18279002 
2561.198 18234666 18183390 18125796 18062340 17993920 17922162 17848826 
2564.574 17775676 17703744 17634070 17566820 17502306 17441492 17385654 
2567.949 17336374 17295306 17262966 17239384 17223422 17213664 17209288 
2571.324 17209528 17214804 17225594 17242522 17265760 17295444 17330720 
2574.699 17371620 17417660 17468606 17524040 17582932 17643836 17705402 
2578.075 17766112 17825764 17884628 17943882 18004938 18068626 18135472 
2581.450 18205330 18278034 18353620 18432504 18515308 18602590 18694004 
2584.825 18788554 18884438 18980032 19074020 19165880 19255682 19343944 
2588.200 19430666 19515602 19597746 19676162 19749946 19819268 19884300 
2591.576 19946080 20005372 20062764 20118426 20172880 20226928 20281814 
2594.951 20338964 20400078 20465894 20536824 20612386 20691750 20774710 
2598.326 20860916 20950966 21045728 21145452 21250522 21360976 21476682 
2601.701 21597502 21723828 21855656 21993000 22135476 22282080 22431664 
2605.077 22583360 22736748 22892358 23050608 23212132 23376652 23543158 
2608.452 23709626 23873564 24033362 24187230 24334352 24474094 24605640 
2611.827 24727580 24837976 24934574 25014908 25077632 25121866 25147600 
2615.202 25155746 25147986 25126254 25093008 25050780 25001992 24948856 
2618.578 24892956 24834994 24775286 24713586 24649754 24584250 24517704 
2621.953 24451484 24387202 24326328 24269912 24218934 24174232 24136226 
2625.328 24106034 24084040 24071046 24067262 24072164 24085440 24106314 
2628.703 24134510 24170064 24213644 24265566 24326398 24396244 24474340 
2632.079 24559426 24650036 24744346 24841028 24938890 25037616 25137278 
2635.454 25239140 25343868 25453228 25567780 25688058 25813502 25942638 
2638.829 26073928 26205536 26335918 26464154 26590070 26713484 26834326 
2642.204 26952592 27068104 27181072 27291742 27400920 27509810 27618832 
2645.580 27729118 27840352 27952000 28063608 28174750 28285780 28397792 
2648.955 28512520 28631526 28756372 28887772 29026116 29171166 29322116 
2652.330 29478614 29640204 29806752 29978158 30154780 30336592 30524096 
2655.705 30717228 30916282 31121014 31331398 31546910 31767588 31992838 
2659.081 32222274 32455544 32692012 32930896 33171092 33411420 33650988 
2662.456 33888932 34125032 34359040 34591240 34821764 35050648 35278472 
2665.831 35505804 35733616 35963308 36196324 36433832 36676656 36924744 
2669.206 37177880 37434916 37695432 37958712 38224752 38493524 38764424 
2672.582 39036760 39309736 39581760 39851196 40116872 40377112 40630668 
2675.957 40875996 41111708 41336720 41550944 41755540 41952932 42146536 
2679.332 42340384 42538656 42744484 42960652 43189332 43432120 43690728 
2682.707 43966940 44262188 44577168 44912328 45266832 45639916 46030268 
2686.083 46437380 46860300 47298744 47751948 48218876 48698056 49187744 
2689.458 49686612 50193524 50708068 51230044 51759516 52296624 52841092 
2692.833 53393220 53953472 54522452 55101092 55689584 56288000 56894952 
2696.208 57508648 58127232 58748936 59372856 59998780 60627060 61257464 
2699.583 61890316 62524280 63158408 63791008 64421104 65047076 65667792 
2702.959 66281012 66884316 67474648 68048576 68602224 69132416 69635288 
2706.334 70106776 70542328 70937080 71286040 71585064 71831360 72023752 
2709.709 72162416 72249000 72285160 72273032 72213832 72108704 71958512 
2713.084 71763584 71524624 71241608 70915072 70544280 70129480 69670920 
2716.460 69169448 68626832 68045584 67428792 66779980 66103384 65403044 
2719.835 64683408 63949032 63204624 62454836 61704240 60957796 60220400 
2723.210 59497360 58793808 58115036 57465488 56848832 56267860 55723940 
2726.585 55217832 54750012 54320916 53930924 53580600 53270448 53000200 
2729.961 52769660 52577844 52423636 52306004 52224160 52177488 52165536 
2733.336 52187576 52242320 52327832 52441920 52581956 52745232 52929004 
2736.711 53130080 53345444 53571492 53804516 54041008 54277664 54511484 
2740.086 54740164 54961220 55172496 55371600 55556524 55725856 55879168 
2743.462 56017300 56142352 56256960 56364240 56466788 56566912 56666452 
2746.837 56766696 56869228 56975148 57085700 57201088 57321568 57446280 
2750.212 57575036 57707392 57843948 57986340 58136624 58297872 58473016 
2753.587 58665184 58877244 59111920 59371756 59658620 59973636 60316592 
2756.963 60686344 61080088 61494500 61925544 62368760 62819824 63273616 
2760.338 63724352 64165644 64590700 64991964 65363028 65697932 65991320 
2763.713 66239448 66439212 66588128 66685276 66730708 66725916 66674152 
2767.088 66579664 66447364 66282168 66089264 65873348 65639116 65392144 
2770.464 65137148 64879656 64624308 64374796 64133920 63902928 63682644 
2773.839 63473560 63275920 63090124 62916212 62753624 62601044 62456292 
2777.214 62315672 62175292 62029840 61873540 61699924 61502628 61275700 
2780.589 61014876 60718160 60386156 60022140 59631520 59220248 58794832 
2783.965 58361008 57923452 57486708 57054792 56631044 56218868 55820456 
2787.340 55436908 55068144 54713332 54371200 54040968 53722580 53416784 
2790.715 53124576 52846780 52583600 52334336 52097800 51872448 51656728 
2794.090 51449504 51249280 51054144 50861808 50669416 50473572 50271340 
2797.466 50060244 49838392 49604332 49356840 49094952 48817164 48522180 
2800.841 48209544 47878788 47530868 47166684 46787708 46395236 45990372 
2804.216 45573892 45147148 44711824 44270700 43826832 43384192 42946456 
2807.591 42517244 42099732 41696632 41310588 40943860 40598868 40277852 
2810.967 39982436 39714260 39474012 39262148 39077980 38920736 38788984 
2814.342 38680964 38594660 38528356 38480276 38449540 38435820 38439220 
2817.717 38460328 38499792 38558376 38636740 38735588 38855760 38998152 
2821.092 39163364 39351704 39562380 39794108 40044340 40310356 40589156 
2824.468 40878108 41175052 41477444 41782752 42087176 42386296 42674660 
2827.843 42946608 43195992 43417840 43607084 43759988 43873460 43945456 
2831.218 43974936 43962360 43909420 43819136 43695452 43542580 43365920 
2834.593 43169752 42959040 42738380 42511252 42280920 42048920 41816244 
2837.969 41581904 41344956 41104024 40858304 40608256 40355004 40100556 
2841.344 39846800 39594976 39345576 39098460 38853444 38610084 38368856 
2844.719 38130724 37896880 37668800 37447848 37234552 37029264 36832368 
2848.094 36643276 36462048 36287992 36120632 35959348 35803628 35653180 
2851.469 35508788 35371488 35242824 35124616 35018324 34924988 34845168 
2854.845 34779332 34726780 34687444 34660568 34645348 34640220 34643088 
2858.220 34651808 34663220 34674416 34682420 34684360 34677288 34658880 
2861.595 34626760 34579540 34516788 34439308 34349392 34250608 34147616 
2864.970 34045184 33948040 33860488 33785844 33726288 33683212 33656824 
2868.346 33646980 33652704 33673364 33707776 33755256 33815212 33886744 
2871.721 33969360 34061776 34162920 34271832 34387948 34511876 34644704 
2875.096 34788232 34944200 35113836 35297628 35495196 35705628 35927888 
2878.471 36161144 36404896 36658560 36921532 37192676 37470424 37753116 
2881.847 38038920 38326472 38614468 38901712 39186572 39466828 39739676 
2885.222 40001688 40249684 40481376 40695108 40890672 41068728 41230576 
2888.597 41378336 41514448 41641960 41763744 41883340 42003840 42128140 
2891.972 42258752 42398320 42549292 42715236 42899900 43107652 43342964 
2895.348 43609100 43907588 44236800 44591892 44963736 45338988 45701720 
2898.723 46033068 46313836 46527324 46661076 46708556 46671332 46557680 
2902.098 46381632 46159116 45907504 45641644 45372644 45108952 44856444 
2905.473 44618732 44399500 44201252 44026268 43875620 43749540 43646908 
2908.849 43566312 43506464 43466616 43446696 43447064 43467788 43507564 
2912.224 43564484 43634708 43713848 43797804 43882148 43963496 44038956 
2915.599 44106288 44163104 44207560 44237976 44253016 44252468 44237128 
2918.974 44208916 44171024 44127228 44081604 44038000 43999904 43969396 
2922.350 43947656 43934788 43929400 43929252 43930828 43930388 43923020 
2925.725 43904216 43869756 43816388 43742432 43648044 43535656 43409236 
2929.100 43274140 43136452 43002720 42878976 42771140 42684200 42622316 
2932.475 42588724 42584924 42611828 42668556 42753992 42866396 43004256 
2935.851 43166640 43352628 43561260 43791136 44039728 44303724 44579336 
2939.226 44862504 45149796 45438600 45726824 46012512 46293596 46566712 
2942.601 46827304 47069592 47286076 47468620 47608208 47695660 47723136 
2945.976 47684604 47577412 47403096 47168492 46884956 46565832 46227180 
2949.352 45883604 45546512 45223956 44919784 44633932 44364196 44107168 
2952.727 43859380 43618112 43381264 43147756 42916540 42686904 42457868 
2956.102 42227964 41996248 41761520 41523492 41282384 41039228 40795480 
2959.477 40552452 40311304 40072428 39835724 39600708 39367016 39134900 
2962.853 38905516 38680964 38464128 38258764 38067892 37895036 37742596 
2966.228 37612576 37506288 37424084 37365544 37329036 37311524 37309032 
2969.603 37316364 37327592 37337340 37340480 37333044 37312500 37278164 
2972.978 37230688 37172716 37107820 37040628 36975356 36915468 36862232 
2976.354 36813540 36763808 36703844 36622040 36504316 36337884 36111632 
2979.729 35818020 35454604 35024324 34535840 34001464 33437294 32860986 
2983.104 32289084 31737074 31217738 30739846 30309978 29932042 29608774 
2986.479 29342250 29134456 28986974 28899528 28868434 28884868 28932926 
2989.854 28990552 29030402 29021936 28937492 28755912 28466172 28070432 
2993.230 27583808 27032242 26445950 25857036 25293082 24772688 24306424 
2996.605 23896074 23537386 23222862 22944402 22695446 22470708 22266524 
2999.980 22080216 21908694 21749290 21598722 21453880 21312670 21173630 
3003.355 21036512 20901802 20770608 20644352 20524318 20411470 20306464 
3006.731 20209190 20119154 20035456 19956938 19882774 19812262 19745022 
3010.106 19681050 19620348 19563222 19509190 19458178 19410050 19364800 
3013.481 19322916 19285090 19252046 19225032 19204530 19191298 19185688 
3016.856 19187836 19197498 19213880 19235732 19260948 19287098 19311416 
3020.232 19331716 19346058 19353160 19352396 19342976 19324026 19294754 
3023.607 19254610 19203386 19142472 19074124 19002046 18930086 18861980 
3026.982 18800316 18746484 18700198 18660210 18624862 18592178 18560468 
3030.357 18528136 18494044 18456876 18415736 18369832 18318782 18262968 
3033.733 18202980 18140100 18076054 18013156 17953688 17899890 17853762 
3037.108 17816338 17788344 17769220 17758348 17754620 17757380 17766286 
3040.483 17781510 17803394 17831806 17866088 17904896 17946264 17988188 
3043.858 18028768 18066866 18101546 18132638 18160034 18183596 18203878 
3047.234 18221154 18236566 18251286 18266320 18282562 18299532 18316154 
3050.609 18330636 18341142 18346086 18344876 18337584 18324830 18307100 
3053.984 18284878 18258026 18226994 18191856 18154092 18115088 18076884 
3057.359 18040994 18008288 17978932 17952168 17927132 17902996 17879036 
3060.735 17855110 17831010 17806536 17781372 17755172 17727972 17700052 
3064.110 17672408 17646180 17622648 17602532 17586694 17575306 17568372 
3067.485 17566302 17568926 17576204 17587728 17602670 17619680 17637348 
3070.860 17654740 17671372 17687662 17704540 17723142 17744748 17769876 
3074.236 17798732 17831116 17866156 17903136 17941084 17978966 18015436 
3077.611 18049906 18081684 18110736 18137682 18163490 18189022 18214936 
3080.986 18241370 18267840 18293484 18317570 18339240 18358424 18375120 
3084.361 18389950 18403534 18416636 18429842 18443982 18459676 18477448 
3087.737 18497500 18519872 18543800 18568940 18594842 18621368 18648484 
3091.112 18676468 18705074 18734028 18762812 18790596 18817306 18843536 
3094.487 18870354 18899458 18932164 18969196 19010010 19053488 19097978 
3097.862 19141986 19184858 19226104 19266386 19305910 19344430 19381812 
3101.238 19417394 19451074 19482886 19513592 19544056 19574972 19606724 
3104.613 19638964 19671170 19703032 19734446 19766278 19799256 19834214 
3107.988 19871604 19911216 19952358 19994372 20037016 20080252 20124360 
3111.363 20169376 20214812 20259698 20302784 20342958 20379902 20414388 
3114.739 20447730 20481386 20516570 20553950 20593138 20633270 20673924 
3118.114 20715070 20757260 20801474 20848436 20898324 20950304 21003092 
3121.489 21055188 21105310 21153106 21198646 21242902 21286468 21329724 
3124.864 21372812 21415102 21456214 21495902 21534792 21573510 21613280 
3128.240 21655036 21699026 21745214 21792768 21840536 21887506 21932704 
3131.615 21975678 22016632 22056300 22095520 22135720 22177842 22222652 
3134.990 22270396 22320622 22372634 22425000 22476746 22526506 22573482 
3138.365 22617566 22658896 22697994 22736050 22773900 22812766 22853800 
3141.740 22897736 22945172 22996070 23049838 23105398 23161592 23217096 
3145.116 23270578 23321828 23371232 23419732 23468728 23519652 23573382 
3148.491 23630056 23689294 23750324 23812168 23874228 23936228 23998590 
3151.866 24061448 24125156 24189648 24254426 24318724 24382366 24444754 
3155.241 24506556 24567840 24629274 24690646 24751992 24812892 24873306 
3158.617 24933696 24995146 25059170 25127096 25199950 25277630 25359150 
3161.992 25442970 25527472 25611466 25694350 25776582 25858476 25940740 
3165.367 26022984 26104644 26185158 26263154 26338136 26409962 26478664 
3168.742 26544524 26607296 26666800 26722188 26772896 26818184 26857554 
3172.118 26891322 26919700 26943072 26961724 26976074 26985980 26991516 
3175.493 26992890 26990668 26985698 26979458 26973254 26968776 26967012 
3178.868 26968670 26973498 26980658 26989188 26998004 27006676 27015034 
3182.243 27023674 27033122 27043844 27056008 27069480 27083480 27097552 
3185.619 27111482 27125238 27139274 27153948 27169610 27186364 27203930 
3188.994 27222274 27241254 27261118 27282180 27304762 27328720 27353738 
3192.369 27379252 27404592 27429650 27454074 27478428 27502750 27527214 
3195.744 27551678 27575652 27598672 27620316 27640478 27659264 27677028 
3199.120 27694048 27710930 27728094 27746142 27765922 27788140 27813114 
3202.495 27840494 27868896 27896384 27921472 27942814 27960976 27977054 
3205.870 27993558 28012324 28034590 28060108 28087326 28114050 28138618 
3209.245 28160150 28179062 28196706 28214384 28232914 28252150 28271316 
3212.621 28289420 28306184 28321780 28337414 28354354 28373560 28394854 
3215.996 28416928 28438472 28457432 28472716 28484180 28492848 28500242 
3219.371 28508168 28518394 28532052 28549674 28571578 28597022 28625370 
3222.746 28655452 28686248 28716796 28746710 28775810 28804416 28832742 
3226.122 28860646 28887558 28912526 28934554 28952864 28967776 28980244 
3229.497 28991862 29004578 29019774 29038090 29059770 29083932 29109726 
3232.872 29136442 29163620 29190834 29218158 29245730 29273164 29300670 
3236.247 29327716 29354268 29379866 29404044 29426702 29447480 29467088 
3239.623 29486272 29506380 29528580 29553974 29582314 29612818 29644000 
3242.998 29673836 29701330 29725990 29748590 29770272 29792450 29815626 
3246.373 29839296 29862686 29885010 29905882 29926222 29947556 29971554 
3249.748 29999460 30031414 30065928 30100978 30133756 30162346 30186036 
3253.124 30205004 30220668 30234664 30248304 30262728 30277756 30293352 
3256.499 30308842 30323588 30336982 30348816 30358444 30366226 30372516 
3259.874 30377952 30383602 30390602 30399912 30411782 30426210 30442096 
3263.249 30457450 30470706 30480268 30484924 30484748 30480376 30472910 
3266.625 30464240 30455850 30449098 30444656 30442522 30442096 30442452 
3270.000 30442522 30441386 30437974 30431684 30421946 30408762 30392450 
3273.375 30373936 30354394 30335384 30318400 30304686 30294524 30287668 
3276.750 30283014 30279248 30275340 30270650 30265570 30260738 30257080 
3280.125 30255482 30255872 30258216 30261484 30264930 30267668 30269160 
3283.501 30269230 30267240 30263224 30257044 30248270 30237434 30225110 
3286.876 30212534 30201060 30191932 30186072 30183550 30183834 30185646 
3290.251 30187740 30188736 30187564 30183868 30178044 30171084 30164264 
3293.626 30159540 30157978 30160462 30167246 30177618 30190298 30203904 
3297.002 30217116 30229158 30239992 30249868 30259354 30268944 30278858 
3300.377 30288982 30299144 30309198 30319252 30329698 30341140 30353896 
3303.752 30368464 30384420 30401476 30418748 30435984 30452652 30468824 
3307.127 30484854 30501416 30519190 30538740 30559892 30582608 30606038 
3310.503 30629326 30651158 30671034 30688530 30704000 30718010 30731524 
3313.878 30744896 30758588 30772458 30786580 30800806 30815356 30830758 
3317.253 30847690 30866046 30885790 30906070 30925746 30943856 30960008 
3320.628 30974490 30988226 31002176 31016944 31032354 31047658 31061572 
3324.004 31072962 31081042 31086168 31089048 31090794 31092358 31094530 
3327.379 31097164 31100332 31103358 31105992 31108058 31109374 31109980 
3330.754 31109942 31108874 31106668 31102860 31097022 31088694 31077304 
3334.129 31062570 31044524 31023350 30999790 30974846 30949228 30923574 
3337.505 30897602 30870670 30841890 30810554 30776302 30739454 30700692 
3340.880 30660972 30620722 30580156 30539130 30496832 30453078 30407518 
3344.255 30360290 30311330 30260562 30207456 30151940 30093802 30033864 
3347.630 29973080 29913372 29855446 29799974 29746426 29693420 29639708 
3351.006 29583876 29525920 29466698 29407518 29349696 29293864 29239848 
3354.381 29186476 29132614 29077554 29021050 28964164 28908062 28854236 
3357.756 28803566 28756762 28713574 28673966 28637402 28603604 28572214 
3361.131 28542844 28515032 28487930 28460796 28432704 28402672 28370200 
3364.507 28334654 28295928 28254412 28210954 28166902 28123984 28083650 
3367.882 28047102 28014482 27985006 27957054 27928820 27898858 27866424 
3371.257 27831412 27794286 27755538 27715662 27674908 27632992 27589810 
3374.632 27545252 27499326 27451850 27402438 27350352 27294740 27234728 
3378.008 27169820 27100550 27027586 26951780 26874122 26794534 26712110 
3381.383 26626002 26535086 26438624 26336656 26229928 26119492 26006342 
3384.758 25891218 25774998 25658178 25541212 25424840 25309764 25196334 
3388.133 25084864 24974546 24864536 24753570 24640708 24525312 24407320 
3391.509 24286976 24164986 24042258 23919738 23798166 23678378 23560754 
3394.884 23445646 23332806 23222304 23113680 23006656 22901054 22796630 
3398.259 22693176 22590166 22487074 22383240 22278348 22172368 22065854 
3401.634 21960202 21856668 21756014 21658520 21563308 21468642 21372846 
3405.010 21274670 21173560 21069830 20964422 20858656 20753784 20650190 
3408.385 20548426 20448216 20349762 20253068 20158478 20066476 19977198 
3411.760 19890752 19806712 19724840 19644752 19565926 19488086 19410880 
3415.135 19333482 19255924 19177828 19099294 19020532 18941716 18862948 
3418.510 18784194 18705384 18626454 18547258 18468838 18391678 18317018 
3421.886 18245310 18176548 18109802 18044312 17978656 17912492 17846272 
3425.261 17780644 17716618 17655050 17595664 17537840 17480676 17422800 
3428.636 17363170 17301238 17236420 17168370 17096954 17021724 16943614 
3432.011 16863762 16784542 16708437 16637854 16573995 16516374 16463442 
3435.387 16412409 16360521 16306266 16249370 16190726 16131574 16073085 
3438.762 16015360 15957676 15898591 15836695 15771752 15704755 15636774 
3442.137 15570486 15507402 15448034 15391868 15336944 15281101 15222382 
3445.512 15159794 15093613 15025418 14957852 14893485 14834887 14782982 
3448.888 14737836 14697493 14659792 14621856 14581694 14538146 14491209 
3452.263 14441538 14390570 14339232 14287968 14236573 14184329 14130756 
3455.638 14075513 14018736 13961796 13905514 13850812 13797759 13746182 
3459.013 13695125 13643631 13591047 13537274 13482585 13427799 13373943 
3462.389 13322041 13272811 13226660 13183451 13142706 13103740 13065632 
3465.764 13027356 12988264 12947844 12905892 12862681 12818485 12773611 
3469.139 12728366 12682580 12636287 12589351 12541636 12493244 12444107 
3472.514 12394260 12343873 12293117 12242503 12192475 12143849 12097511 
3475.890 12054075 12014082 11977670 11944223 11912857 11882344 11851051 
3479.265 11817547 11780504 11739039 11693561 11644855 11594930 11546303 
3482.640 11501423 11461788 11427837 11397937 11370113 11341135 11308555 
3486.015 11270739 11227588 11180431 11131272 11082799 11037458 10996744 
3489.391 10961504 10931703 10906866 10885801 10867251 10849958 10832701 
3492.766 10814935 10795980 10776245 10756035 10736099 10717012 10698740 
3496.141 10681523 10665189 10649976 10636359 10624476 10615274 10608585 
3499.516 10603764 10599418 10593578 10584581 10571408 10554704 10536202 
3502.892 10519059 10506907 10502358 10507212 10521266 10542925 10568623 
3506.267 10594699 10617379 10633983 10643185 10645426 10642812 10638465 
3509.642 10635816 10637277 10644407 10657446 10675139 10696228 10719695 
3513.017 10744760 10771286 10799411 10828896 10858384 10886276 10910467 
3516.393 10929495 10942475 10949883 10953247 10954062 10954198 10954232 
3519.768 10954028 10952329 10947606 10938363 10923107 10900784 10870785 
3523.143 10833041 10787182 10733721 10672796 10605020 10531382 10452563 
3526.518 10369890 10284316 10197367 10109995 10023453 9938354 9854660 
3529.894 9771796 9688439 9603439 9515882 9424617 9329512 9230907 9128806 
3533.751 9023719 8915951 8806180 8695931 8586453 8480010 8378457 8283242 
3537.608 8194870 8112761 8036102 7963674 7894464 7827526 7762284 7697861 
3541.466 7632909 7566246 7496290 7422234 7343775 7260950 7174807 7086323 
3545.323 6996510 6906312 6816873 6729976 6647470 6571035 6501879 6439694 
3549.181 6382697 6327993 6272287 6213127 6149371 6081827 6012849 5945293 
3553.038 5881475 5823342 5771126 5724255 5681921 5643417 5608038 5575046 
3556.896 5543566 5512289 5479471 5443905 5405087 5363354 5319646 5276110 
3560.753 5234389 5195959 5161623 5132084 5106738 5084577 5063156 5038450 
3564.610 5005166 4957941 4892291 4807085 4705282 4595834 4489929 4398543 
3568.468 4329597 4285056 4262202 4254205 4253536 4253569 4249186 4238078 
3572.325 4219676 4194918 4165176 4132093 4097338 4062018 4027304 3993795 
3576.183 3961861 3930932 3900574 3870051 3839229 3808543 3778828 3751622 
3580.040 3727693 3707274 3689998 3674860 3660993 3647527 3633995 3619561 
3583.897 3602789 3581039 3551073 3509117 3452336 3380802 3297795 3210164 
3587.755 3127123 3057812 3008196 2980071 2970496 2973866 2982773 2990013 
3591.612 2989980 2979070 2955784 2921524 2879395 2834236 2790182 2751100 
3595.470 2719190 2694918 2677381 2664813 2654845 2645344 2634376 2620809 
3599.327 2603775 2583142 2559811 2535414 2512218 2492523 2478360 2470596 
3603.185 2469263 2473028 2479760 2486324 2489124 2484758 2469763 2441906 
3607.042 2400790 2348284 2289190 2229570 2176586 2134929 2106327 2088815 
3610.899 2077695 2067574 2053691 2034416 2011314 1988379 1970671 1962117 
3614.757 1963282 1971536 1981256 1985183 1976496 1949635 1902509 1837087 
3618.614 1759730 1680325 1609648 1557504 1528908 1524253 1538983 1566217 
3622.472 1598408 1629969 1658140 1683552 1708866 1736277 1765552 1791836 
3626.329 1805976 1795129 1747088 1656211 1528808 1385121 1253146 1158950 
3630.187 1114633 1116228 1148883 1194632 1238126 1268764 1283885 1285912 
3634.044 1281226 1276507 1276274 1280927 1288172 1293356 1292758 1284848 
3637.901 1270160 1251285 1231647 1214136 1200580 1191708 1187290 1187290 
3641.759 1192273 1203437 1221579 1247165 1278999 1314160 1347861 1374751 
3645.616 1388878 1385520 1361688 1316719 1252415 1172804 1083508 991474 
3649.474 904539 831432 780643 758835 768627 807464 867685 938574 1006917 
3653.813 1060788 1090749 1092344 1067763 1026744 984433 955974 951923 974803 
3658.153 1020101 1077595 1135728 1184665 1216894 1228789 1221446 1199051 
3662.010 1168219 1136060 1109650 1093739 1091281 1102874 1127987 1165030 
3665.868 1211677 1265408 1322901 1380169 1433488 1481761 1528908 1585903 
3669.725 1672509 1811666 2021267 2308309 2665446 3075364 3512223 3946447 
3673.583 4347301 4677047 4897217 4976274 4899998 4680597 4350849 3951429 
3677.440 3514762 3063685 2615409 2185844 1792967 1455729 1186957 989979 
3681.297 856597 772046 719139 684359 661029 648552 648088 660034 679945 
3685.637 699061 707158 693950 654293 589722 509038 425052 349605 290351 
3689.977 248742 222485 208396 204352 209755 224309 246554 273508 300895 
3694.316 324702 341912 351992 356834 359885 365025 374940 390196 408867 
3698.656 427573 441636 447009 440873 422598 394208 360183 326857 300696 
3702.995 286604 286770 301127 327089 360681 397790 435068 469796 500347 
3707.335 525890 545795 559065 564307 559663 543108 513417 471023 418983 
3711.675 363367 311969 273276 253449 255041 276260 312400 355806 399183 
3716.014 436263 462963 478818 486348 489068 491456 495338 500844 505356 
3720.354 506019 500678 489433 474473 459547 447938 441105 437589 433808 
3724.693 425450 409862 387310 362140 341116 332627 342011 371293 416893 
3729.033 471886 526487 570777 597950 604951 594201 572436 547951 526852 
3733.373 509569 491025 462731 418286 357298 287698 223612 180783 169115 
3737.712 190264 238630 304277 378190 453278 526155 594599 655355 702047 
3742.052 723653 705964 638066 518923 366716 216684 110781 75485 111079 
3746.391 196993 304177 404954 477060 508507 496698 449032 378290 299038 
3750.731 223082 157415 107036 77109 72503 96961 149891 224607 310179 393479 
3755.553 463129 510895 534250 535577 520947 497195 469398 440840 412913 
3759.892 387708 368540 359387 363367 380114 405849 433443 454571 463361 
3764.232 457391 439745 417225 397956 388007 388173 394872 401471 401836 
3768.572 391953 371657 345427 319695 300895 293633 299104 315650 339922 
3772.911 367877 396298 422863 446047 465716 482268 495736 505754 510862 
3777.251 508839 497759 476961 448700 417623 390627 374410 372752 385022 
3781.590 406877 431685 452515 464655 466313 459248 447175 434372 424455 
3785.930 418518 416694 417756 420740 425251 431221 438286 445483 451387 
3790.270 454770 455401 454505 453908 456130 462034 470161 477259 478918 
3794.609 471587 454604 431155 408171 394407 396298 415965 449098 486580 
3798.949 515706 523435 500778 445151 364793 277652 207203 173557 184463 
3803.288 235315 311041 392882 461072 500214 502635 469597 413411 353020 
3807.628 308023 289820 299900 331068 373216 416661 456031 490428 522373 
3811.968 554852 588992 621774 646130 653629 636474 592476 528245 459381 
3816.307 405186 381142 393213 435500 493546 548283 581726 579868 537435 
3820.647 460741 368606 286405 235149 224905 251958 304177 364395 417424 
3824.986 453112 467275 462631 447142 431188 423294 427473 442598 463759 
3829.326 484855 500114 507180 506185 500579 494873 494276 501872 518923 
3833.666 543672 572104 599244 618688 624528 612583 581825 535477 480311 
3838.005 426445 383496 357464 350036 357829 375073 394938 411985 422498 
3842.345 425483 422067 415334 409497 408734 416064 433277 460044 494376 
3846.684 533421 574659 616166 658076 701649 748048 796974 844612 881829 
3851.024 895575 870939 795016 665343 495404 317208 168187 76877 51460 81616 
3855.846 148167 231469 317739 398188 469033 528876 577910 615702 641816 
3860.185 656151 659271 652733 639394 621309 599709 574493 546160 515938 
3864.525 488604 470692 468569 484955 517132 556046 588162 600638 583849 
3868.865 536207 466943 394308 339193 315185 324768 358592 402234 440840 
3873.204 464456 470824 464522 455069 452084 461669 484424 515606 547221 
3877.544 571573 582057 575289 552198 517762 480908 451288 437788 445218 
3881.883 472715 513881 558203 594168 610990 601733 567061 515706 463593 
3886.223 427307 419347 442631 491025 551700 610326 654061 673673 665841 
3890.563 634217 587764 538729 498655 475733 473312 490296 523103 566862 
3894.902 615834 664547 707922 741509 761623 767166 758935 740182 716152 
3899.242 692888 675598 666571 665377 668131 669591 663717 646993 618389 
3903.581 580797 539591 502536 475833 463726 467142 484391 511891 545662 
3907.921 581394 616498 648486 675764 697633 713265 723587 729494 733344 
3912.260 737626 744397 754288 766370 777954 785290 785224 776129 759267 
3916.600 737825 716551 699193 687910 682567 680907 680775 680874 681339 
3920.940 683463 688640 696970 707457 717380 723885 725246 721761 715455 
3925.279 709714 707391 709813 716352 724416 731519 735601 735801 732415 
3929.619 726773 719571 711141 701118 689768 677788 667434 661594 662423 
3933.958 671018 685952 704138 721629 735137 742937 745758 745791 745625 
3938.298 747517 751898 756976 759532 756412 744895 724649 697036 665941 
3942.638 636142 612516 598979 597121 606444 624395 647358 671084 692158 
3946.977 708386 719438 726275 731121 736000 742273 750239 758835 766735 
3951.317 772743 776294 777290 776294 773938 770618 766569 761856 757010 
3955.656 752662 749774 749376 751699 756180 761623 766602 769656 770021 
3959.996 767797 763548 758669 753790 750006 747650 747384 749442 754155 
3964.336 761823 771946 783896 796244 808095 818286 826486 832528 836943 
3968.675 839964 841524 842122 841325 839732 837839 836213 835383 835781 
3973.015 837009 838702 840362 841790 843450 846106 850455 856895 865162 
3977.354 874890 884850 894645 904041 912807 921208 928878 935585 940732 
3981.694 943887 945049 944584 943289 941728 940234 938242 935419 931401 
3986.034 926653 922170 919381 919348 922403 927218 932265 935452 935552 
3990.373 932597 927848 922635 918452 915297 912076 907362 899360 887838 
3994.713 873562 858688 845774 836943 833125 834254 839267 846471 855202 
3999.052 864399 873794 883323 892819 
##END=
