
##TITLE=1132a_3_a
##JCAMP-DX=5.01  $$ Nicolet v. 1
##DATATYPE=INFRARED SPECTRUM
##ORIGIN=UniL
##OWNER=Nicolet
##LONGDATE=2011/09/21
##TIME=14:23:59
##SPECTROMETER/DATA SYSTEM=Nicolet iS5
##DATA PROCESSING=
Ratio against background
%Transmittance->Absorbance
Truncated
ElementMultiply or ElementDivide
##COMMENTS=
Number of sample scans: 32
Collection length: 51.20 sec
Sample gain: 2.0
Background collected on: Mer Sep 21 14:22:11 2011 (GMT+02:00);
Number of background scans: 32
Background gain: 2.0
Sample spacing:  1.000
Number of scan points: 12415
Resolution points: 8192
Number of FFT points: 65536
Apodization: N-B fort;
Phase correction: Mertz;
Laser frequency: 15798.0 cm-1
Number of rejected sample scans: 0
Number of rejected background scans: 0
Bench serial number: ASB1000141;
##RESOLUTION=4.000
##XUNITS=1/CM
##YUNITS=ABSORBANCE
##FIRSTX=649.893372
##LASTX=4000.122314
##FIRSTY=0.074289
##MAXX=4000.122314
##MINX=649.893372
##MAXY=0.269933
##MINY=0.006002
##XFACTOR=1.000000
##YFACTOR=1.000000E-009
##NPOINTS=6950
##DELTAX=0.482117
##ZPD=6100
##XYDATA=(X++(Y..Y))
649.893 74288568 74914720 75568720 76266432 77022104 77845376 78740984 
653.268 79711128 80759384 81893576 83121784 84448552 85871688 87383568 
656.643 88980352 90671296 92481936 94454240 96638104 99073248 101785408 
660.018 104780568 108045896 111549712 115232384 118997584 122689072 
662.911 126107736 129048544 131320224 132793768 133390144 133045856 
665.803 131688816 129241336 125696792 121232360 116307592 111580264 
668.696 107601736 104610808 102517176 101068424 99991120 99077736 98212064 
672.071 97351920 96512256 95733696 95059944 94516392 94107160 93822520 
675.446 93649472 93582960 93625872 93787248 94074688 94489824 95026376 
678.820 95672728 96417056 97254912 98190872 99241320 100427816 101775856 
682.195 103308208 105045008 107007504 109223160 111727744 114570992 
685.088 117808912 121495656 125682280 130410224 135717008 141643808 
687.981 148230944 155500400 163408256 171787824 180281552 188269408 
690.873 194953792 199407552 200746896 198407840 192245648 182631440 
693.766 170345488 156480816 142230768 128632008 116556352 106561936 98876200 
697.141 93485480 90175240 88637624 88533152 89585840 91621224 94556392 
700.516 98369528 103017952 108335544 113983128 119407768 123874976 126669032 
703.890 127205264 125216264 120834904 114565424 107166456 99415904 92030752 
707.265 85509120 80081240 75773816 72459424 69951240 68053648 66614076 
710.640 65528444 64721136 64136112 63724464 63440344 63251384 63141352 
714.015 63109092 63160516 63297228 63508340 63770936 64055652 64338020 
717.390 64607732 64869224 65137380 65426968 65746540 66094084 66461304 
720.765 66840068 67229144 67636464 68076128 68562688 69104056 69700600 
724.139 70344872 71025728 71729304 72441968 73146664 73820888 74440280 
727.514 74980880 75428400 75788016 76087992 76378808 76717104 77157472 
730.889 77735040 78457784 79311792 80269736 81306872 82409176 83578224 
734.264 84827240 86172008 87621608 89176016 90829688 92579032 94433112 
737.639 96416640 98564520 100915528 103500344 106333568 109417280 112747904 
741.013 116327520 120173136 124319840 128815088 133723352 139127200 
743.906 145133072 151892240 159584112 168374720 178342192 189357056 
746.799 200973664 212294096 222078880 228890064 231399680 228910800 
749.692 221592848 210560304 197483600 184289072 172725824 163970528 
752.584 158671552 156865888 158111952 161600944 166355344 171456240 
755.477 176072576 179621888 181777216 182395008 181465456 179030576 
758.370 175139504 169838784 163197936 155356608 146549328 137125728 
761.262 127544640 118283528 109821112 102570920 96797744 92625776 90008528 
764.637 88758408 88569480 89079360 89947016 90856936 91572048 91944296 
768.012 91892256 91404136 90520872 89331624 87955912 86529064 85191040 
771.387 84052672 83185704 82616440 82330152 82289096 82451000 82787320 
774.762 83284472 83938944 84748128 85700400 86774064 87944920 89192536 
778.136 90507688 91892752 93354000 94891840 96495200 98139576 99795112 
781.511 101436184 103045968 104618992 106155288 107651488 109094456 
784.404 110459840 111715568 112831456 113783640 114557056 115142232 
787.297 115529632 115703680 115644384 115329304 114741976 113879024 
790.189 112751376 111381992 109797000 108021464 106073808 103966640 
793.082 101713328 99331392 96843792 94278624 91660224 89006472 86328728 
796.457 83635064 80939432 78268848 75661712 73165640 70827856 68680968 
799.832 66743268 65017596 63497180 62172732 61035508 60076244 59280024 
803.206 58623848 58077764 57607420 57184528 56791504 56422680 56080932 
806.581 55771404 55496132 55253200 55040084 54861016 54730768 54676424 
809.956 54734228 54938092 55315220 55877396 56619076 57513224 58510168 
813.331 59540148 60504360 61286880 61771464 61850160 61456596 60579704 
816.706 59270984 57633792 55802148 53920684 52106576 50442980 48975652 
820.081 47717552 46663140 45797436 45102628 44557048 44134052 43805616 
823.455 43542248 43321220 43130816 42969616 42842956 42755896 42708364 
826.830 42693376 42700396 42720976 42753080 42802256 42878432 42988672 
830.205 43133780 43306576 43495404 43689960 43885888 44085528 44296088 
833.580 44524008 44770664 45032680 45304088 45581732 45868908 46175032 
836.955 46511244 46886140 47301220 47750616 48225468 48719736 49234356 
840.329 49778528 50365764 51008380 51713604 52481736 53308920 54191732 
843.704 55130624 56130628 57198328 58336412 59539920 60793536 62074024 
847.079 63349476 64582668 65733044 66751688 67585200 68181752 68494400 
850.454 68496768 68191568 67617408 66844204 65961428 65068440 64248272 
853.829 63561648 63042424 62697084 62513412 62466428 62527380 62664620 
857.204 62848008 63053764 63264840 63473560 63683452 63905344 64154236 
860.578 64442976 64781556 65175144 65626784 66139540 66716760 67358056 
863.953 68053064 68775640 69479768 70098448 70558896 70789200 70732464 
867.328 70361744 69682120 68732472 67575256 66293524 64979308 63719168 
870.703 62597224 61682964 61025324 60655936 60586712 60815148 61331640 
874.078 62126664 63196464 64546028 66187812 68139816 70420504 73040528 
877.452 75992536 79235112 82684016 86193744 89551424 92511664 94801560 
880.827 96175056 96474360 95651216 93799048 91127320 87949544 84615328 
884.202 81442144 78710088 76610208 75247752 74663800 74844136 75738192 
887.577 77263992 79317752 81765608 84429760 87105296 89548696 91493872 
890.952 92703872 92983168 92222336 90422888 87698520 84262296 80372904 
894.327 76320776 72367584 68705376 65463640 62694288 60390916 58511116 
897.701 56997248 55792276 54841316 54098200 53521492 53072004 52717844 
901.076 52434104 52204540 52021748 51882416 51782996 51716812 51673744 
904.451 51642844 51616760 51593960 51578736 51577804 51596908 51636908 
907.826 51694272 51762728 51837464 51917104 52004716 52104896 52220236 
911.201 52350256 52491052 52637348 52786536 52940308 53103868 53283784 
914.575 53484128 53704316 53939668 54184600 54435908 54694728 54966524 
917.950 55257868 55573244 55911800 56268048 56634592 57005976 57381576 
921.325 57765256 58164128 58585472 59033984 59512484 60024348 60575284 
924.700 61174260 61831288 62550076 63322336 64121284 64905012 65617992 
928.075 66203364 66618100 66839060 66871568 66746400 66516748 66246352 
931.450 65996952 65826728 65779620 65884144 66155860 66596888 67198472 
934.824 67942056 68801496 69742424 70720616 71688736 72596120 73396832 
938.199 74061072 74580152 74972968 75281832 75570296 75909384 76360864 
941.574 76973768 77773400 78761920 79921656 81220616 82617368 84058264 
944.949 85482656 86822424 87999856 88941192 89581848 89874512 89801128 
948.324 89373512 88633880 87643248 86478672 85222456 83948544 82727064 
951.698 81615608 80654408 79869840 79271016 78852376 78598288 78488752 
955.073 78505824 78634624 78865688 79192648 79608360 80104824 80672432 
958.448 81301920 81987216 82727232 83525248 84387024 85318376 86323152 
961.823 87403552 88562736 89807280 91149192 92607072 94203632 95960064 
965.198 97893680 100012600 102314824 104789600 107421320 110196104 113106520 
968.573 116156992 119364280 122753776 126347720 130151528 134134320 
971.465 138220064 142275136 146108992 149511328 152262064 154176736 
974.358 155153184 155187472 154392336 152969584 151202912 149400960 
977.251 147841104 146763856 146321264 146565872 147446224 148809744 
980.143 150422272 151972688 153139120 153619632 153168160 151654400 
983.036 149069568 145532256 141248976 136489408 131541400 126651464 
985.929 122029920 117826472 114124544 110960248 108326312 106187312 
988.821 104488904 103170576 102175992 101451168 100951520 100640856 
991.714 100485768 100458920 100536184 100696296 100923808 101207568 
994.607 101540576 101917952 102335792 102788960 103271352 103776704 
997.500 104299616 104837048 105387768 105952000 106529840 107120368 
1000.392 107721544 108331416 108948592 109573496 110208272 110855744 
1003.285 111518704 112198848 112897592 113616776 114359888 115132816 
1006.178 115942568 116795840 117696800 118645616 119638440 120668976 
1009.070 121731136 122820112 123934080 125072968 126237808 127428400 
1011.963 128643496 129881544 131141872 132427376 133745384 135106608 
1014.856 136523664 138009904 139575392 141227824 142971984 144810656 
1017.748 146746032 148779600 150912352 153143792 155470144 157883200 
1020.641 160367392 162896064 165431376 167916816 170277856 172430416 
1023.534 174279184 175737104 176743200 177272032 177347344 177037776 
1026.427 176453696 175719872 174956688 174268048 173717584 173327312 
1029.320 173074288 172895808 172690896 172325344 171654880 170523072 
1032.213 168782544 166323712 163077968 159039744 154267952 148887792 
1035.106 143077040 137037952 130997416 125166624 119716872 114780816 
1037.999 110428392 106674344 103489744 100818144 98591624 96740856 95207736 
1041.374 93943160 92905312 92060848 91379968 90837488 90414360 90096552 
1044.750 89873776 89738832 89683840 89700496 89781120 89918688 90109840 
1048.125 90354224 90652184 91002488 91398256 91824840 92260360 92678272 
1051.500 93048112 93342952 93540176 93624104 93589864 93443448 93203472 
1054.875 92897976 92565048 92246304 91978456 91791672 91703768 91719968 
1058.250 91836296 92042952 92327976 92675400 93065144 93469000 93846544 
1061.626 94148680 94322968 94318400 94098888 93648312 92974016 92104224 
1065.001 91084088 89969600 88815152 87673904 86591784 85601640 84726224 
1068.376 83975760 83350024 82842168 82443472 82146680 81948640 81849288 
1071.751 81849016 81946000 82133784 82401968 82737368 83128080 83565168 
1075.127 84043144 84558800 85109128 85690352 86298328 86931368 87592248 
1078.502 88290032 89040672 89864448 90781248 91810304 92968520 94270352 
1081.877 95732416 97374048 99216960 101286008 103604432 106190832 109057184 
1085.252 112204552 115620304 119271960 123107504 127051864 131005304 
1088.146 134861840 138512736 141861568 144842992 147420784 149586544 
1091.039 151346688 152704768 153647856 154143472 154147488 153628736 
1093.932 152595344 151119232 149342448 147458512 145706320 144314304 
1096.825 143470368 143306032 143864512 145099344 146867552 148953952 
1099.718 151075408 152899136 154107376 154404960 153567632 151485488 
1102.611 148163728 143726560 138379248 132393184 126057760 119635040 
1105.504 113368200 107446568 101998616 97107328 92802448 89074272 85884888 
1108.879 83180768 80902512 78988040 77381024 76028184 74877680 73884552 
1112.254 73007752 72212856 71475480 70779216 70114992 69479192 68871688 
1115.630 68293920 67748832 67241760 66779508 66368712 66015200 65721252 
1119.005 65485364 65302864 65168256 65077180 65027528 65019408 65053156 
1122.380 65127872 65240524 65386288 65560192 65760032 65986352 66243344 
1125.755 66536328 66870676 67249952 67676264 68151240 68677976 69260144 
1129.131 69902944 70609960 71381352 72211832 73091384 74005944 74937920 
1132.506 75868896 76779696 77649408 78458504 79189224 79828944 80374744 
1135.881 80836288 81237872 81613720 82006744 82461696 83017032 83705568 
1139.256 84550952 85568520 86767640 88151840 89719352 91461520 93361928 
1142.632 95397424 97535000 99735160 101952016 104129408 106206056 108112664 
1146.007 109770168 111100752 112027184 112480328 112412416 111797384 
1148.900 110636136 108953184 106794920 104223080 101306088 98122504 94753752 
1152.275 91277256 87770496 84301000 80922504 77680472 74608208 71730744 
1155.650 69068904 66637292 64444624 62492868 60776392 59283176 57996416 
1159.026 56898008 55968376 55186340 54530828 53977484 53500728 53077696 
1162.401 52687432 52315684 51954820 51602168 51258264 50924248 50600648 
1165.776 50288156 49988076 49704556 49443608 49212164 49016900 48861364 
1169.151 48746244 48670332 48632416 48632676 48673628 48758624 48890728 
1172.527 49071132 49299120 49572612 49890316 50252628 50662080 51122532 
1175.902 51637172 52208056 52835516 53519992 54262496 55065168 55930608 
1179.277 56859216 57846600 58881644 59946400 61019796 62080256 63109668 
1182.652 64097436 65040036 65941564 66811776 67666192 68524424 69408232 
1186.028 70341056 71343664 72428968 73598384 74837880 76118784 77396224 
1189.403 78616880 79726096 80668880 81401056 81890704 82118056 82076864 
1192.778 81771288 81213424 80418960 79406016 78193904 76801792 75252984 
1196.153 73578880 71819248 70028208 68269104 66602916 65085032 63750288 
1199.529 62608048 61643212 60822580 60106912 59458224 58850912 58273240 
1202.904 57725784 57216584 56756992 56358240 56028872 55775136 55600508 
1206.279 55505464 55487132 55539316 55654064 55823436 56041728 56307124 
1209.654 56621492 56988824 57412772 57895548 58437420 59038048 59698080 
1213.030 60420460 61210424 62074100 63016988 64042136 65150736 66343352 
1216.405 67621784 68990904 70458688 72035712 73733832 75563872 77536344 
1219.780 79661656 81950600 84415792 87070552 89926064 92989208 96258048 
1223.155 99720400 103348608 107100480 110918536 114722688 118416160 
1226.048 121882848 124980440 127559704 129465880 130551040 130706664 
1228.941 129871992 128052104 125317960 121804200 117694632 113187952 
1231.834 108500312 103838264 99374128 95256672 91591112 88437168 85820856 
1235.210 83736144 82156888 81042648 80347272 80022352 80015336 80276512 
1238.585 80758504 81416368 82213736 83119336 84104424 85142512 86201824 
1241.960 87243800 88226984 89105920 89839056 90397224 90764632 90943320 
1245.335 90950024 90815680 90579640 90284792 89979584 89710272 89517264 
1248.711 89433800 89477488 89649912 89935648 90307840 90733152 91177104 
1252.086 91612720 92021288 92393968 92731680 93044248 93349736 93671832 
1255.461 94041648 94492128 95052192 95743816 96574744 97536656 98602808 
1258.836 99731488 100869920 101952728 102910888 103673872 104167992 
1261.729 104328688 104101368 103447656 102351944 100822616 98891432 96605416 
1265.105 94025112 91218752 88253904 85204024 82144272 79143704 76269192 
1268.480 73575624 71100768 68870096 66896072 65183116 63731448 62538208 
1271.855 61596436 60892872 60408732 60120876 60003692 60036256 60201900 
1275.230 60489504 60892416 61404340 62017800 62725068 63517356 64388672 
1278.606 65337336 66365512 67478248 68681192 69979816 71378896 72884096 
1281.981 74503408 76247392 78126864 80149528 82314488 84607672 86998000 
1285.356 89440848 91878872 94244336 96472040 98498048 100265088 101729032 
1288.731 102855672 103622600 104019008 104042592 103695968 102982624 
1291.625 101902992 100453112 98629176 96433232 93883848 91022264 87920208 
1295.000 84671936 81386312 78185288 75182344 72480720 70173208 68327848 
1298.375 66991860 66186772 65905780 66115156 66757800 67764824 69056200 
1301.750 70549264 72168992 73838528 75484264 77038128 78429968 79596456 
1305.125 80486312 81059336 81293048 81180584 80729776 79962360 78916744 
1308.501 77657016 76271008 74874024 73603688 72585392 71919840 71650472 
1311.876 71746896 72099392 72533192 72856864 72883664 72484992 71615856 
1315.251 70313744 68684656 66865884 65008328 63237512 61637828 60256180 
1318.626 59101292 58158748 57403468 56812160 56366464 56053336 55862964 
1322.002 55786248 55812096 55930192 56131080 56407324 56754384 57167524 
1325.377 57640680 58165336 58728904 59317172 59916540 60514532 61101560 
1328.752 61671512 62219956 62744320 63243716 63719092 64173400 64612156 
1332.127 65042808 65472656 65908244 66353740 66811428 67281560 67764912 
1335.503 68262544 68777072 69311488 69868032 70448288 71052264 71680064 
1338.878 72333032 73014576 73729592 74484568 75284232 76130904 77024088 
1342.253 77961536 78940984 79962048 81027552 82143480 83318104 84559328 
1345.628 85873424 87263208 88728648 90267296 91876088 93553080 95297312 
1349.004 97107952 98983016 100916744 102899896 104921416 106970752 109043176 
1352.379 111141624 113279336 115475776 117754504 120140280 122654752 
1355.272 125316728 128141240 131135776 134294848 137590384 140969856 
1358.165 144348816 147617712 150667920 153399744 155749504 157700704 
1361.058 159282480 160559024 161604208 162495456 163294048 164041184 
1363.951 164765376 165480912 166192272 166894752 167577872 168230064 
1366.844 168847408 169443120 170053552 170737264 171558576 172576816 
1369.737 173833216 175344256 177109264 179119744 181371328 183864640 
1372.630 186602496 189581040 192780240 196164176 199692880 203338496 
1375.523 207098320 210990288 215036912 219236432 223539088 227825760 
1378.417 231926352 235632080 238713136 240960000 242173552 242168720 
1381.310 240804304 238001408 233793600 228338592 221907152 214808048 
1384.203 207282512 199474192 191397552 182986336 174167744 164944656 
1387.096 155435984 145859328 136465728 127468600 119017112 111189688 
1389.989 104027392 97564696 91822088 86810688 82519912 78908992 75916248 
1393.364 73471072 71514424 69995232 68867256 68082288 67573664 67264928 
1396.739 67088136 66995456 66978596 67070888 67343192 67878552 68745824 
1400.115 69987712 71612376 73605688 75940952 78585264 81488072 84559936 
1403.490 87671144 90635040 93222160 95211616 96412752 96708520 96074352 
1406.865 94568664 92317688 89480864 86248056 82814224 79359160 76058384 
1410.240 73053080 70438888 68269296 66552476 65268868 64387672 63881928 
1413.615 63732372 63921772 64429140 65221772 66254532 67485216 68878752 
1416.991 70419024 72111640 73973576 76016416 78226672 80563928 82972064 
1420.366 85401296 87826832 90247232 92671344 95095168 97488128 99786936 
1423.741 101892520 103699672 105118736 106087640 106576544 106568504 
1426.634 106043480 104976776 103349400 101172600 98501496 95446920 92157472 
1430.010 88782512 85461680 82306320 79396864 76797208 74549072 72667520 
1433.385 71142336 69936688 69001200 68286672 67766064 67445544 67360216 
1436.760 67550008 68029504 68771056 69714024 70785504 71918120 73064208 
1440.135 74188136 75263976 76274128 77202048 78034416 78762712 79383384 
1443.510 79898592 80313664 80633656 80860080 80989256 81015848 80939112 
1446.886 80771480 80545496 80308448 80111480 79994744 79973392 80039640 
1450.261 80173760 80359792 80595440 80895960 81283896 81777608 82376568 
1453.636 83059832 83785040 84500480 85158912 85723088 86180008 86541792 
1457.011 86842008 87112136 87365184 87597360 87798152 87964144 88103904 
1460.387 88235184 88377744 88546640 88746944 88976128 89227568 89498944 
1463.762 89797168 90141112 90555600 91068152 91702944 92478160 93411976 
1467.137 94521952 95822472 97319912 99007696 100867000 102861216 104946640 
1470.512 107072200 109170024 111159728 112945368 114424824 115511568 
1473.406 116147336 116301752 115965592 115139944 113839752 112102752 
1476.299 109998128 107621984 105071336 102429240 99742912 97022768 94261752 
1479.674 91452560 88603608 85748192 82936368 80220192 77643224 75228912 
1483.049 72982552 70898496 68965392 67171280 65505788 63959972 62528380 
1486.424 61210880 60013312 58946308 58020952 57244668 56618772 56139944 
1489.800 55805616 55616252 55575392 55683704 55932720 56301504 56759748 
1493.175 57270264 57799512 58322960 58826780 59310676 59782524 60249672 
1496.550 60709432 61144544 61526640 61827656 62028080 62124176 62128652 
1499.925 62068980 61981188 61901508 61864296 61894708 62005032 62193648 
1503.301 62443244 62722728 62984892 63177148 63254640 63201636 63052996 
1506.676 62891200 62815116 62883356 63098400 63418872 63791924 64170064 
1510.051 64521960 64835564 65111936 65362944 65604276 65851448 66113920 
1513.426 66393732 66684924 66976048 67255568 67515912 67761616 68011136 
1516.802 68295544 68645064 69076624 69584304 70140768 70703176 71224864 
1520.177 71675016 72053240 72398864 72772744 73232704 73801016 74457576 
1523.552 75154888 75838872 76470464 77029432 77520696 77967120 78400512 
1526.927 78847576 79323360 79835992 80391168 80998240 81669384 82413584 
1530.302 83229568 84101336 85005032 85916024 86824128 87744304 88720688 
1533.678 89812896 91062920 92483208 94050536 95725760 97464288 99231032 
1537.053 101010008 102793664 104591544 106428056 108343792 110383408 
1539.946 112579032 114949936 117486040 120162080 122956720 125853536 
1542.839 128843872 131918344 135057872 138223568 141355040 144385856 
1545.732 147250256 149892416 152268560 154323680 155985760 157175968 
1548.625 157819008 157888720 157430816 156563296 155424176 154110768 
1551.518 152650576 151003216 149106608 146938144 144559760 142123392 
1554.411 139829376 137829056 136173152 134786224 133499400 132081744 
1557.304 130297360 127988296 125157472 122041192 119029792 116470944 
1560.198 114493344 113021144 111877288 110883072 109895056 108796256 
1563.091 107501944 105962448 104177216 102200640 100129376 98071712 96095312 
1566.466 94206384 92345184 90413344 88308304 85968608 83411048 80737632 
1569.841 78104928 75658040 73486960 71606008 69976624 68537736 67228984 
1573.216 66000312 64811556 63632844 62452424 61293024 60224852 59359940 
1576.592 58823328 58699888 59014892 59745300 60847356 62284084 64038068 
1579.967 66114536 68531064 71305048 74441384 77919264 81684216 85651040 
1583.342 89689576 93632456 97292384 100458592 102938144 104581592 105289456 
1586.717 105034200 103860448 101895448 99334640 96431488 93482104 90758344 
1590.093 88495288 86868680 85977096 85862360 86517616 87903984 89956184 
1593.468 92591120 95719280 99234368 103021560 106968080 110956392 114883496 
1596.843 118665952 122230168 125509232 128429992 130899664 132818552 
1599.736 134093720 134656048 134483232 133600336 132076488 130004136 
1602.629 127496200 124679888 121681272 118629936 115641360 112796400 
1605.522 110143576 107694112 105433680 103336544 101379904 99552024 97849544 
1608.897 96272320 94817432 93475864 92236880 91094384 90050592 89115480 
1612.273 88299008 87601496 87005776 86474064 85951320 85380688 84717768 
1615.648 83955896 83139952 82365240 81743408 81353504 81221976 81321256 
1619.023 81595976 81982256 82427088 82896304 83372184 83857904 84373136 
1622.398 84951920 85632112 86445352 87410680 88527992 89782704 91150256 
1625.774 92603464 94112344 95646592 97180552 98692920 100172680 101619408 
1629.149 103043616 104461632 105889712 107341680 108826864 110351784 
1632.042 111919000 113532472 115201200 116940368 118779048 120761816 
1634.935 122950480 125400736 128147872 131197480 134517632 138069280 
1637.828 141822224 145764128 149897184 154231760 158783104 163556224 
1640.721 168542800 173723824 179061504 184506144 190006672 195497152 
1643.614 200915840 206216160 211369632 216386128 221310848 226219872 
1646.507 231168832 236167264 241174512 246107440 250880240 255417472 
1649.400 259658752 263501616 266744976 269064512 269932928 268709120 
1652.293 264923088 258715248 251050384 243225552 236138560 229943424 
1655.187 224319600 218800672 213026864 206812992 200142208 193114944 
1658.080 185882896 178600064 171348992 164143792 156946496 149697376 
1660.973 142354960 134924896 127475976 120139008 113086440 106489656 
1663.866 100481056 95124120 90407224 86264304 82594960 79290632 76256120 
1667.241 73428104 70786752 68359848 66210696 64413116 63022696 62056672 
1670.616 61492476 61279708 61362780 61691480 62227104 62948272 63848116 
1673.991 64937516 66240104 67785584 69593944 71660128 73963752 76479432 
1677.367 79192920 82107368 85237656 88598856 92182920 95955848 99864536 
1680.742 103846600 107868104 111935768 116097552 120430672 125005272 
1683.635 129832712 134804256 139712032 144317632 148429552 151928112 
1686.528 154737744 156808224 158085328 158531008 158137632 156925952 
1689.421 154946752 152270256 148994192 145243440 141163488 136912272 
1692.314 132602392 128264264 123827608 119128384 113978744 108289072 
1695.207 102198592 96107880 90536672 85855296 82151728 79239688 76805784 
1698.583 74518864 72151576 69665200 67228560 65127992 63569708 62555432 
1701.958 61904872 61381672 60763888 59894860 58677888 57064428 55057912 
1705.333 52708832 50110516 47374716 44614764 41930668 39391248 37038320 
1708.708 34882328 32906268 31078904 29371250 27770478 26285718 24939732 
1712.083 23750954 22720268 21822068 21013002 20245918 19492452 18752158 
1715.459 18048594 17410452 16851842 16360350 15906943 15467262 15042432 
1718.834 14660787 14359403 14160742 14058332 14021098 14005083 13974012 
1722.209 13910132 13821838 13734863 13678541 13666300 13688902 13719781 
1725.584 13731477 13710651 13663325 13609919 13571869 13558912 13562604 
1728.960 13562741 13538812 13485011 13412797 13345514 13302123 13285417 
1732.335 13275374 13237660 13140452 12980139 12791730 12633626 12550742 
1735.710 12549412 12602074 12666000 12704108 12694350 12637550 12552823 
1739.085 12469033 12407079 12370225 12343907 12308524 12251944 12176663 
1742.461 12095808 12024710 11969325 11923142 11869404 11791841 11684847 
1745.836 11556340 11424639 11307296 11212696 11133958 11053806 10953655 
1749.211 10824990 10675444 10525917 10398974 10307998 10251475 10216804 
1752.586 10190718 10166975 10148862 10144622 10159343 10189531 10222367 
1755.962 10240143 10231120 10197028 10153610 10121831 10117761 10142791 
1759.337 10184443 10221316 10234715 10218296 10181763 10145911 10131361 
1762.712 10148014 10190480 10243705 10292357 10329238 10356622 10383261 
1766.087 10416553 10458129 10501102 10535490 10553719 10557557 10557115 
1769.463 10565262 10588553 10622031 10649500 10651505 10617175 10553414 
1772.838 10483960 10436170 10427820 10457349 10508434 10558438 10591507 
1776.213 10603594 10603899 10607125 10625630 10661250 10704378 10739869 
1779.588 10755560 10750261 10735624 10728729 10742518 10778080 10824175 
1782.964 10864058 10883253 10879074 10860864 10846391 10850944 10879652 
1786.339 10925723 10975946 11018494 11049489 11074471 11103126 11142898 
1789.714 11192568 11241121 11272201 11274411 11247956 11208106 11176725 
1793.089 11172339 11198926 11246596 11297876 11338483 11363583 11378617 
1796.465 11394094 11419231 11454985 11493633 11522961 11532930 11522586 
1799.840 11501219 11484310 11484106 11504520 11538749 11574818 11603029 
1803.215 11621814 11637912 11662349 11703092 11760179 11824969 11885000 
1806.590 11931214 11961729 11983460 12007337 12042253 12088926 12140374 
1809.966 12186103 12219158 12241004 12262135 12295162 12349089 12423001 
1813.341 12506782 12586827 12652662 12703528 12747883 12799818 12870122 
1816.716 12962012 13068262 13175869 13272435 13352177 13417854 13476568 
1820.091 13534368 13591013 13639835 13671224 13678268 13660384 13623561 
1823.467 13577578 13531326 13488156 13446493 13402887 13356722 13312339 
1826.842 13277560 13257609 13252280 13252690 13245824 13219726 13172385 
1830.217 13113849 13063481 13038998 13047637 13083252 13130071 13170814 
1833.592 13194176 13199778 13197148 13199573 13215730 13245653 13280259 
1836.968 13308478 13323511 13328499 13334752 13356653 13403126 13472570 
1840.343 13553374 13629270 13687090 13720910 13734111 13735957 13736812 
1843.718 13742181 13752202 13764206 13777614 13796767 13828304 13877289 
1847.093 13942156 14014151 14081297 14132844 14165467 14185493 14206171 
1850.469 14240100 14292933 14360636 14431672 14494498 14543422 14581729 
1853.844 14619526 14667846 14730706 14802660 14870546 14921261 14947667 
1857.219 14952914 14947632 14944511 14950993 14965637 14980110 14985255 
1860.594 14977846 14963510 14954286 14961693 14990571 15035983 15086032 
1863.969 15127989 15155403 15171117 15185323 15208244 15244448 15288239 
1867.345 15327128 15349336 15350674 15339759 15333820 15351052 15398493 
1870.720 15471176 15553143 15628496 15686238 15725918 15754744 15782472 
1874.095 15814187 15847074 15872126 15879791 15866868 15839547 15810305 
1877.470 15792299 15791921 15806319 15824839 15835699 15833775 15822744 
1880.846 15814256 15820166 15846903 15891304 15943823 15993563 16035609 
1884.221 16073635 16117647 16177485 16256044 16346106 16433261 16503606 
1887.596 16549211 16573168 16587351 16607318 16643878 16698416 16764602 
1890.971 16833484 16900446 16966180 17036920 17117770 17208806 17302962 
1894.347 17389138 17458014 17508412 17548188 17591454 17650150 17729112 
1897.722 17823106 17921090 18011914 18091392 18164422 18242372 18335508 
1901.097 18447128 18571396 18695112 18806440 18898764 18974668 19042446 
1904.472 19110374 19180148 19245326 19293854 19315192 19306428 19274872 
1907.848 19234106 19199056 19178728 19172286 19173048 19172910 19170002 
1911.223 19169170 19180044 19210832 19263440 19332374 19407174 19478590 
1914.598 19543294 19604956 19670962 19745680 19827868 19908130 19975812 
1917.973 20024454 20058738 20091842 20140290 20214396 20312886 20422270 
1921.349 20524492 20605472 20661658 20702212 20743254 20799804 20875900 
1924.724 20964144 21048788 21116230 21161872 21192520 21222442 21265658 
1928.099 21328436 21406504 21488102 21561706 21623238 21677918 21737204 
1931.474 21810292 21899494 21997042 22091024 22171006 22235520 22292300 
1934.850 22354076 22429954 22519318 22610688 22688254 22740240 22765798 
1938.225 22776064 22788216 22816326 22862914 22917086 22959562 22974410 
1941.600 22955650 22912684 22863822 22828166 22814474 22818980 22828828 
1944.975 22831448 22823416 22810040 22803580 22812660 22837526 22868642 
1948.351 22891832 22897806 22888410 22876780 22881914 22916806 22981220 
1951.726 23060950 23135696 23189482 23217968 23231356 23247330 23281168 
1955.101 23334728 23396898 23448794 23475478 23475022 23459600 23449806 
1958.476 23463936 23507270 23568624 23627468 23667110 23682472 23684640 
1961.852 23692094 23721206 23775592 23845244 23912352 23963470 23997294 
1965.227 24026812 24072236 24147856 24253584 24372236 24479634 24555252 
1968.602 24592842 24602798 24603572 24610760 24627030 24640882 24635062 
1971.977 24598558 24534708 24463366 24410684 24397612 24428420 24490430 
1975.353 24561180 24623382 24673602 24723476 24790334 24884150 24998130 
1978.728 25110456 25193244 25228078 25213892 25168208 25117582 25084232 
1982.103 25078194 25095080 25121550 25145704 25163610 25181552 25210346 
1985.478 25255960 25315384 25376606 25426140 25455968 25470304 25482566 
1988.854 25508954 25558782 25628264 25702716 25763538 25799754 25812586 
1992.229 25815752 25825140 25851902 25893082 25934830 25959488 25956464 
1995.604 25928360 25890268 25862028 25857632 25879330 25916964 25954352 
1998.979 25980488 25994102 26005148 26028154 26070128 26127412 26184348 
2002.354 26222992 26230736 26209584 26174072 26145532 26140994 26163656 
2005.730 26202862 26240698 26261112 26259952 26243196 26223626 26211202 
2009.105 26205852 26199236 26181498 26148242 26107002 26074068 26065764 
2012.480 26090182 26140396 26199446 26246998 26270898 26272446 26264878 
2015.855 26265196 26283570 26317154 26352324 26374012 26374364 26359964 
2019.231 26346936 26355104 26394468 26460704 26536846 26604196 26650100 
2022.606 26676454 26696288 26727050 26777936 26845288 26913532 26963980 
2025.981 26985310 26979352 26960242 26945224 26946776 26964756 26988378 
2029.356 27004034 27004562 26994336 26988096 27002164 27045076 27112364 
2032.732 27189362 27258084 27305608 27330662 27341352 27348022 27355642 
2036.107 27361256 27354550 27327872 27279782 27219488 27161002 27118042 
2039.482 27094060 27081752 27067224 27037212 26989682 26933484 26885434 
2042.857 26860656 26864920 26890336 26920440 26937926 26934930 26916316 
2046.233 26898160 26896822 26923156 26974734 27038696 27096986 27135148 
2049.608 27148514 27140826 27120794 27096600 27073604 27054316 27040776 
2052.983 27037918 27052234 27089794 27150420 27227002 27304726 27367466 
2056.358 27404804 27416556 27413696 27412638 27428096 27466356 27523436 
2059.734 27587444 27644786 27687938 27716226 27735404 27752570 27770196 
2063.109 27785808 27793440 27787892 27769914 27746636 27729296 27727070 
2066.484 27742470 27769808 27798666 27819368 27827846 27827138 27825938 
2069.859 27832190 27848796 27871652 27891932 27901472 27896454 27880662 
2073.235 27861478 27847522 27842400 27844414 27847276 27844766 27834876 
2076.610 27820392 27807674 27801352 27802128 27805520 27803964 27791354 
2079.985 27766522 27734028 27701782 27676390 27659618 27647752 27633980 
2083.360 27612372 27581372 27544936 27510552 27484640 27469146 27460674 
2086.736 27452238 27438086 27415636 27387510 27358714 27333766 27312842 
2090.111 27291848 27264432 27226720 27179768 27131304 27090958 27068104 
2093.486 27066518 27083620 27111836 27142168 27168904 27189714 27205978 
2096.861 27218678 27227426 27229048 27220370 27200686 27173242 27145306 
2100.237 27124108 27114058 27113704 27116596 27115256 27104534 27084610 
2103.612 27060770 27039434 27025118 27016444 27007630 26990916 26962110 
2106.987 26922484 26879760 26843842 26822766 26818888 26828722 26845006 
2110.362 26861466 26875318 26888220 26903202 26921814 26941556 26956188 
2113.738 26959326 26947516 26923014 26893366 26867952 26853112 26849658 
2117.113 26852512 26853888 26847192 26830802 26807504 26783364 26762748 
2120.488 26746080 26729236 26706368 26673916 26632836 26588696 26548822 
2123.863 26518356 26497576 26481868 26464436 26440596 26410560 26379574 
2127.239 26354436 26340178 26336130 26337854 26338136 26332468 26321836 
2130.614 26311978 26311098 26323420 26348522 26379504 26408588 26430702 
2133.989 26447920 26467958 26501202 26553190 26622232 26697734 26766800 
2137.364 26819346 26852832 26872006 26886316 26903132 26923330 26941346 
2140.740 26948432 26938526 26912122 26877926 26846662 26827910 26824810 
2144.115 26832916 26845568 26856956 26868198 26885048 26914130 26957740 
2147.490 27009780 27057560 27086162 27084784 27052624 26996876 26929464 
2150.865 26859140 26788790 26713660 26627236 26525576 26412074 26296666 
2154.240 26189982 26099472 26025376 25962970 25910316 25874162 25873422 
2157.616 25932474 26070234 26287090 26558474 26844336 27098610 27290860 
2160.991 27413026 27477194 27507304 27525696 27545854 27567954 27586348 
2164.366 27594858 27593516 27587902 27586312 27591926 27601214 27604002 
2167.741 27589632 27552314 27494420 27424956 27355750 27293398 27237092 
2171.117 27179978 27114374 27038130 26957704 26886316 26838486 26822660 
2174.492 26837710 26871864 26909194 26935988 26945294 26937256 26916034 
2177.867 26885576 26846662 26798942 26742556 26683288 26631076 26598876 
2181.242 26594366 26616666 26653728 26688186 26705132 26698228 26671132 
2184.618 26637100 26609516 26594860 26591126 26587780 26574500 26545722 
2187.993 26506168 26466092 26438624 26430738 26439856 26456338 26467184 
2191.368 26464332 26446828 26420770 26394926 26375524 26362534 26351268 
2194.743 26335074 26311134 26281950 26254178 26233762 26222746 26216060 
2198.119 26205148 26181218 26141838 26092434 26043846 26007856 25991288 
2201.494 25993186 26006520 26022632 26036246 26047786 26062774 26087086 
2204.869 26122940 26166438 26209266 26243090 26264810 26277552 26289626 
2208.244 26310112 26343840 26388554 26436512 26478876 26510572 26532972 
2211.620 26552414 26576226 26608634 26647950 26687200 26717888 26735262 
2214.995 26739102 26735262 26730398 26728812 26729940 26729270 26721060 
2218.370 26701998 26673668 26641258 26610430 26584750 26562102 26537410 
2221.745 26505148 26463238 26414644 26366478 26326448 26299340 26284942 
2225.121 26277904 26271532 26260830 26244674 26225140 26206382 26191212 
2228.496 26180162 26171258 26162916 26154226 26147328 26144970 26148946 
2231.871 26157674 26166542 26169814 26162778 26144794 26119176 26091484 
2235.246 26067136 26047154 26029140 26007926 25979362 25941830 25898816 
2238.622 25855558 25818036 25789942 25771096 25759388 25752356 25749088 
2241.997 25750530 25758016 25771694 25788290 25802952 25809528 25804922 
2245.372 25790540 25771306 25753974 25743812 25741598 25744164 25746240 
2248.747 25743462 25735024 25723668 25714774 25712174 25717060 25726622 
2252.123 25735938 25741774 25743320 25743356 25746696 25756998 25773980 
2255.498 25793774 25810160 25817546 25814028 25801160 25782524 25762482 
2258.873 25742582 25721734 25697478 25668268 25634522 25599726 25568342 
2262.248 25542900 25523326 25506142 25486466 25460782 25428670 25393576 
2265.624 25360448 25333542 25314154 25300176 25287638 25273308 25256276 
2268.999 25238578 25223864 25214416 25210520 25208800 25204622 25194474 
2272.374 25177618 25156762 25136576 25121620 25114212 25113440 25116038 
2275.749 25118704 25119338 25117828 25115582 25113966 25113300 25112456 
2279.125 25109472 25103190 25093710 25082476 25071278 25060818 25050112 
2282.500 25036598 25017574 24991462 24958894 24921590 24882430 24843098 
2285.875 24803068 24760902 24714988 24664834 24612372 24561002 24513918 
2289.250 24472902 24437428 24404340 24369748 24331234 24288238 24242794 
2292.625 24197564 24154896 24115560 24078784 24043028 24007378 23972538 
2296.001 23939802 23911232 23887006 23866144 23845840 23824208 23800092 
2299.376 23774682 23751200 23732860 23721592 23716588 23715224 23713858 
2302.751 23710290 23704236 23696958 23691358 23689188 23690482 23693596 
2306.126 23695978 23695698 23692512 23687684 23683066 23679916 23677816 
2309.502 23675332 23669944 23660602 23647726 23633136 23620122 23610326 
2312.877 23604518 23601510 23599268 23596016 23591050 23584540 23577020 
2316.252 23568310 23557116 23541480 23519898 23492336 23460510 23427776 
2319.627 23397528 23371896 23350534 23330918 23309242 23281902 23246316 
2323.003 23200982 23145620 23080028 23004138 22918134 22823800 22724180 
2326.378 22624372 22530102 22445586 22373260 22312600 22261050 22215328 
2329.753 22173308 22134988 22101796 22075718 22057556 22046332 22039672 
2333.128 22035316 22031796 22029528 22030156 22034758 22043160 22052850 
2336.504 22059788 22060624 22053304 22038488 22018968 21998088 21978186 
2339.879 21959470 21940824 21920368 21897960 21874472 21851684 21831406 
2343.254 21814090 21798412 21783710 21770436 21762876 21767790 21792942 
2346.629 21843358 21919392 22015482 22121704 22226278 22317204 22385612 
2350.005 22426222 22437456 22421372 22382890 22328540 22264396 22196776 
2353.380 22130524 22068362 22011230 21957972 21906080 21852450 21795380 
2356.755 21734798 21672414 21611294 21553454 21499660 21448102 21395922 
2360.130 21340478 21281108 21219588 21159784 21105866 21060440 21024130 
2363.506 20995232 20971550 20951208 20934346 20921828 20915466 20915812 
2366.881 20922558 20933858 20948288 20964770 20983374 21004970 21029626 
2370.256 21056788 21084230 21110110 21133172 21154080 21175578 21200976 
2373.631 21233334 21273802 21321650 21374448 21429128 21483612 21536670 
2377.007 21588066 21637936 21685964 21731454 21773642 21812104 21847572 
2380.382 21881616 21916046 21952186 21989896 22027856 22064144 22096984 
2383.757 22125678 22150818 22173482 22195206 22216478 22237300 22256934 
2387.132 22275106 22292230 22309146 22326902 22345912 22365098 22383100 
2390.508 22397646 22407764 22414150 22419000 22424756 22433582 22445934 
2393.883 22460380 22474686 22486446 22494470 22499288 22501974 22503998 
2397.258 22505812 22506998 22506372 22502880 22496636 22488470 22480026 
2400.633 22472524 22466032 22459822 22452564 22443702 22434002 22425454 
2404.009 22420360 22420814 22427232 22438434 22452180 22466278 22479292 
2407.384 22490912 22501660 22511640 22520260 22526438 22528984 22527554 
2410.759 22523574 22519492 22518516 22522634 22532510 22546434 22562244 
2414.134 22577844 22592224 22605556 22619416 22634564 22650796 22666540 
2417.510 22679386 22688010 22692060 22692898 22693072 22694784 22699392 
2420.885 22706444 22714298 22721316 22725890 22727810 22727426 22725262 
2424.260 22721664 22716498 22709622 22701136 22692444 22685008 22680644 
2427.635 22679842 22681516 22683960 22685008 22683192 22678828 22673208 
2431.010 22668320 22665214 22664200 22663712 22662456 22659208 22653834 
2434.386 22647758 22642140 22637602 22633622 22628316 22619310 22605312 
2437.761 22586396 22563708 22539280 22514502 22489726 22464880 22439760 
2441.136 22414848 22392554 22376018 22367994 22369528 22379088 22392902 
2444.511 22406266 22414778 22416556 22412020 22403544 22393634 22384460 
2447.887 22376436 22368900 22360738 22351388 22340820 22329832 22319052 
2451.262 22308624 22298160 22287102 22275242 22263420 22253202 22245808 
2454.637 22242110 22241726 22243018 22243924 22243122 22240122 22235904 
2458.012 22232066 22230008 22230532 22233532 22238344 22244760 22252818 
2461.388 22262794 22274894 22288638 22302868 22315494 22325400 22332030 
2464.763 22336354 22340260 22346052 22355332 22368204 22384006 22401380 
2468.138 22418964 22436024 22452320 22467568 22481282 22492516 22500160 
2471.513 22504138 22504836 22503684 22502740 22503160 22504522 22505848 
2474.889 22504800 22500160 22491890 22481386 22471476 22464218 22460694 
2478.264 22460380 22461636 22462718 22462508 22461672 22461636 22463626 
2481.639 22468092 22474198 22479816 22483584 22484806 22484630 22484910 
2485.014 22488050 22495030 22506128 22519772 22534464 22549504 22565070 
2488.390 22581650 22600044 22620114 22640254 22658546 22673348 22683820 
2491.765 22690942 22696354 22701696 22707316 22712378 22714682 22712588 
2495.140 22705676 22694224 22680784 22667658 22656452 22647794 22641232 
2498.515 22635856 22631876 22629642 22630236 22634284 22641372 22650134 
2501.891 22658476 22665528 22671044 22676628 22684346 22695166 22708608 
2505.266 22722188 22732244 22735596 22731372 22720932 22707700 22695236 
2508.641 22686370 22681308 22678514 22675302 22669020 22658756 22645106 
2512.016 22629538 22613656 22598542 22584092 22570272 22556974 22544618 
2515.392 22533940 22525634 22518934 22512616 22504382 22492936 22477792 
2518.767 22460450 22443352 22428804 22418686 22412754 22409718 22407904 
2522.142 22405778 22403056 22400088 22397578 22395660 22393566 22389622 
2525.517 22382332 22370958 22355854 22337994 22319124 22299624 22279428 
2528.893 22257142 22231684 22202634 22170622 22137254 22104202 22072966 
2532.268 22043856 22016492 21990316 21964524 21939430 21915420 21893184 
2535.643 21872660 21853392 21834612 21815448 21796042 21776776 21758208 
2539.018 21740582 21723268 21705364 21685894 21664544 21642392 21621602 
2542.394 21604746 21593290 21587474 21585804 21585976 21584898 21581102 
2545.769 21573894 21563934 21552618 21541164 21530786 21522396 21516930 
2549.144 21515362 21518774 21527234 21539838 21554742 21569264 21581206 
2552.519 21589668 21595552 21601404 21609588 21622474 21640094 21661618 
2555.895 21684502 21706722 21727484 21746922 21766046 21785590 21805868 
2559.270 21825972 21844822 21861686 21876528 21890294 21904684 21920646 
2562.645 21938350 21957100 21975572 21993068 22009870 22026880 22045494 
2566.020 22066758 22090432 22115044 22138928 22160476 22179306 22195694 
2569.396 22211282 22227010 22243402 22260142 22276290 22291462 22305622 
2572.771 22319820 22335168 22352262 22371030 22390844 22410556 22429502 
2576.146 22447784 22465962 22484458 22503056 22520294 22534044 22542490 
2579.521 22544340 22540292 22532160 22522424 22512932 22504450 22496392 
2582.896 22487598 22477058 22465336 22453540 22443772 22437806 22436374 
2586.272 22439304 22445410 22453576 22463242 22474338 22487282 22502218 
2589.647 22518724 22535650 22551600 22565944 22578648 22590830 22603848 
2593.022 22618960 22636520 22656348 22677502 22699320 22721560 22744360 
2596.397 22767440 22790626 22812170 22830540 22843810 22851354 22853624 
2599.773 22852228 22849084 22845312 22841298 22836302 22829072 22819192 
2603.148 22806794 22793244 22780010 22768418 22758604 22749772 22740624 
2606.523 22730254 22718802 22707386 22697436 22690140 22685566 22682984 
2609.898 22680540 22676908 22671148 22663678 22655682 22648142 22642000 
2613.274 22637288 22633482 22630096 22626990 22624616 22623780 22624790 
2616.649 22627758 22631912 22635856 22638614 22639172 22637742 22634774 
2620.024 22631144 22627270 22623500 22619276 22614354 22608384 22601334 
2623.399 22593270 22584406 22574668 22564232 22553204 22541932 22531252 
2626.775 22521936 22514432 22508920 22504556 22500404 22495658 22489552 
2630.150 22482572 22475420 22469244 22464812 22462508 22462090 22463032 
2633.525 22464880 22467534 22471058 22476152 22483374 22492972 22504940 
2636.900 22519458 22536314 22555438 22576588 22599484 22623534 22648074 
2640.276 22672474 22696284 22719640 22742962 22766636 22790730 22814964 
2643.651 22838572 22860574 22880412 22898120 22914082 22929312 22944366 
2647.026 22959598 22974724 22989328 23003056 23015772 23027896 23039636 
2650.401 23050956 23061684 23070768 23077756 23082264 23084780 23086456 
2653.777 23088414 23091630 23096102 23101098 23105222 23107494 23107668 
2657.152 23106200 23104594 23104138 23105886 23110324 23116998 23125594 
2660.527 23135590 23147438 23161940 23179974 23201854 23227476 23255790 
2663.902 23285364 23314732 23342804 23369134 23393506 23416236 23437462 
2667.278 23457118 23475442 23492266 23507550 23521368 23533888 23545012 
2670.653 23554772 23562888 23569674 23575376 23580554 23585766 23591504 
2674.028 23598046 23605566 23614174 23624214 23636286 23651050 23669210 
2677.403 23690764 23715118 23741540 23768976 23796732 23824698 23853226 
2680.779 23883122 23914734 23947854 23981852 24015574 24047966 24078434 
2684.154 24106768 24133670 24159660 24185478 24211612 24238764 24267144 
2687.529 24297594 24330602 24366734 24405882 24447698 24491342 24536040 
2690.904 24581550 24628012 24676374 24727720 24782966 24842396 24905870 
2694.280 24973106 25043618 25117546 25195244 25277594 25365226 25458288 
2697.655 25556254 25658284 25763256 25869906 25977568 26084834 26190508 
2701.030 26293250 26391300 26483138 26567490 26643158 26709890 26767400 
2704.405 26815400 26853464 26881664 26899854 26908842 26910006 26905282 
2707.781 26896364 26884942 26871548 26856602 26839612 26820544 26799400 
2711.156 26776948 26754572 26733534 26715246 26700730 26690864 26686354 
2714.531 26687376 26694140 26705944 26721764 26740194 26759576 26778924 
2717.906 26797954 26817726 26839330 26864358 26893720 26927138 26963382 
2721.281 27000788 27037884 27073500 27107534 27139980 27170914 27200122 
2724.657 27226720 27249722 27268174 27281720 27291354 27298410 27304478 
2728.032 27311148 27319334 27329072 27339906 27350774 27360690 27368806 
2731.407 27374348 27377064 27376924 27374664 27371524 27368630 27367606 
2734.782 27368984 27373078 27378830 27385040 27390368 27393828 27395416 
2738.158 27396190 27397674 27401626 27409534 27422696 27441474 27466076 
2741.533 27496396 27532050 27572580 27617456 27665762 27717038 27770620 
2744.908 27826432 27884088 27943838 28005186 28067286 28129074 28189742 
2748.283 28248470 28305654 28362526 28420642 28481916 28547656 28618432 
2751.659 28694636 28775880 28861778 28952582 29048116 29148168 29252110 
2755.034 29358876 29467266 29576106 29684868 29793658 29903220 30014194 
2758.409 30127256 30242230 30358478 30475078 30591036 30705740 30818912 
2761.784 30930440 31040182 31147888 31253378 31356468 31457342 31556814 
2765.160 31654988 31752296 31847946 31941372 32030932 32115478 32194510 
2768.535 32268242 32337592 32403596 32467220 32528498 32587386 32643072 
2771.910 32695334 32744210 32790478 32834682 32877892 32920816 32963994 
2775.285 33007898 33053480 33102036 33154928 33213616 33279256 33351988 
2778.661 33431604 33517674 33609672 33706880 33809376 33916660 34028160 
2782.036 34143064 34260576 34379948 34501400 34625756 34754132 34887824 
2785.411 35027448 35172864 35322892 35475780 35629836 35783044 35934296 
2788.786 36082248 36226076 36364760 36497616 36624528 36745996 36863276 
2792.162 36978424 37093424 37209752 37328352 37448788 37570376 37691928 
2795.537 37812284 37930976 38047708 38162088 38273820 38382572 38487840 
2798.912 38589628 38688172 38784384 38879132 38973072 39066596 39159340 
2802.287 39250508 39339048 39423724 39503440 39577732 39645900 39708272 
2805.663 39765056 39817020 39865468 39911200 39955372 39997984 40038348 
2809.038 40075228 40107060 40132500 40151400 40165024 40175384 40185564 
2812.413 40198280 40215476 40238156 40266512 40299412 40335916 40374748 
2815.788 40414784 40455372 40495816 40535536 40573988 40610512 40644604 
2819.164 40675604 40702640 40724872 40741872 40753008 40758792 40759996 
2822.539 40758136 40754608 40750276 40745584 40740308 40733976 40726440 
2825.914 40718252 40710720 40705916 40705916 40712392 40726040 40746636 
2829.289 40773860 40807052 40846656 40893328 40948084 41012464 41086976 
2832.665 41172468 41269088 41377576 41498736 41634376 41786436 41957056 
2836.040 42147488 42358572 42590008 42840576 43109556 43395944 43699376 
2839.415 44020292 44359060 44716524 45093772 45491688 45911076 46352468 
2842.790 46816052 47301332 47806764 48329668 48865256 49406812 49945772 
2846.166 50470628 50968284 51424740 51823872 52150812 52391748 52535136 
2849.541 52573352 52503424 52327348 52051628 51687256 51248536 50750556 
2852.916 50208960 49638464 49050728 48454900 47857628 47262208 46670964 
2856.291 46085088 45505448 44933088 44369332 43815584 43273408 42744232 
2859.667 42229752 41732120 41253892 40798172 40368276 39967176 39596968 
2863.042 39259212 38954008 38681468 38440816 38231412 38052448 37902848 
2866.417 37781164 37685676 37614420 37565392 37536668 37526880 37534324 
2869.792 37557440 37594044 37641880 37697276 37756800 37816588 37873308 
2873.167 37923924 37967028 38001852 38029120 38051180 38070964 38091872 
2876.543 38116976 38148484 38187232 38232964 38284636 38340768 38400488 
2879.918 38463440 38529408 38598388 38669844 38742288 38813984 38882760 
2883.293 38946868 39005624 39058948 39108212 39154300 39198504 39241732 
2886.668 39284492 39327508 39371512 39417336 39465848 39517196 39570836 
2890.044 39625608 39679624 39731072 39778856 39822760 39863288 39901208 
2893.419 39937352 39972008 40004596 40033952 40058768 40078500 40092852 
2896.794 40102916 40110260 40116948 40125340 40137660 40155688 40180728 
2900.169 40213332 40253716 40300792 40353844 40411476 40472792 40537500 
2903.545 40606328 40680736 40762980 40855940 40962904 41087160 41232252 
2906.920 41401592 41599480 41829924 42098056 42409092 42768324 43180108 
2910.295 43647236 44169372 44742420 45357968 46004300 46665688 47324536 
2913.670 47964068 48567156 49119216 49608788 50026964 50368184 50630616 
2917.046 50815140 50926000 50969476 50954464 50890196 50785376 50648416 
2920.421 50485144 50299424 50093296 49867048 49619596 49349084 49052920 
2923.796 48728304 48372520 47983720 47561036 47105560 46619684 46107528 
2927.171 45574484 45025480 44466628 43903628 43342560 42790480 42255172 
2930.547 41744524 41267008 40829292 40436640 40092272 39797232 39550836 
2933.922 39351092 39195164 39079500 38998916 38948316 38921136 38910520 
2937.297 38910408 38915048 38919976 38922440 38920808 38914432 38903416 
2940.672 38888484 38870584 38851124 38831596 38813660 38798732 38788516 
2944.048 38784748 38788916 38802864 38828476 38867036 38920124 38988620 
2947.423 39073336 39175256 39294904 39432900 39588732 39760192 39942400 
2950.798 40127412 40305048 40462792 40588284 40670800 40702240 40678516 
2954.173 40599088 40466464 40285088 40060584 39799552 39508124 39192880 
2957.549 38860764 38518220 38171744 37827288 37489928 37163692 36852096 
2960.924 36557156 36280496 36022412 35782436 35559096 35350356 35154252 
2964.299 34968620 34792436 34624644 34465136 34313572 34169480 34032068 
2967.674 33900464 33773524 33650736 33531848 33417434 33307980 33204462 
2971.050 33107616 33017978 32935794 32861344 32794912 32736670 32687046 
2974.425 32646716 32616496 32597460 32590710 32597422 32618568 32654502 
2977.800 32705124 32769792 32847300 32936186 33034958 33141802 33255362 
2981.175 33373814 33495772 33619696 33744264 33868548 33991756 34112848 
2984.551 34230924 34344300 34450784 34547644 34632320 34702412 34756644 
2987.926 34794372 34816128 34822840 34815372 34794588 34760736 34713608 
2991.301 34653280 34579828 34494296 34398416 34295284 34188624 34083100 
2994.676 33982976 33892224 33813600 33748028 33695316 33653852 33621916 
2998.052 33598036 33581964 33574556 33577384 33592308 33620448 33661764 
3001.427 33714756 33776960 33845660 33918164 33992760 34068264 34144244 
3004.802 34220884 34298368 34377188 34457744 34540576 34626184 34714792 
3008.177 34806288 34899636 34993756 35087184 35178612 35267692 35354164 
3011.552 35438928 35522920 35606892 35691200 35776248 35861780 35947684 
3014.928 36034040 36121100 36209148 36298656 36389728 36482624 36577196 
3018.303 36673488 36771308 36870344 36970416 37071228 37172752 37274948 
3021.678 37378072 37482560 37588692 37696264 37804804 37913260 38020512 
3025.053 38125732 38228948 38330492 38431584 38533352 38636524 38740768 
3028.429 38845180 38948316 39049084 39146900 39242452 39337052 39432684 
3031.804 39530516 39631236 39734304 39838592 39942908 40046120 40148236 
3035.179 40250228 40353880 40461480 40575332 40697328 40828460 40969092 
3038.554 41118884 41276848 41441688 41612060 41786692 41964604 42144824 
3041.930 42326352 42507852 42687452 42862156 43028328 43181976 43319204 
3045.305 43436552 43532504 43607084 43662552 43702748 43733048 43759032 
3048.680 43785896 43817600 43856448 43903188 43957116 44016772 44080576 
3052.055 44146924 44215228 44284972 44356268 44429304 44504000 44580180 
3055.431 44657288 44734816 44811696 44887416 44961160 45032276 45100536 
3058.806 45166196 45230168 45293456 45357488 45423260 45491172 45560868 
3062.181 45631228 45700800 45768244 45833412 45896420 45958480 46020472 
3065.556 46082876 46145076 46205328 46261568 46311880 46355492 46393284 
3068.932 46426872 46459100 46492288 46528096 46566788 46607840 46650156 
3072.307 46692804 46735752 46779920 46826716 46878348 46936120 47000872 
3075.682 47072472 47150024 47231916 47316368 47401544 47485960 47568244 
3079.057 47647732 47724024 47797292 47867764 47935948 48002148 48066584 
3082.433 48128692 48187444 48241092 48287228 48323780 48349148 48362740 
3085.808 48365444 48359704 48349256 48338224 48330484 48329000 48335000 
3089.183 48348552 48368260 48392744 48421004 48452972 48489424 48531624 
3092.558 48580908 48637680 48701764 48772008 48846976 48925736 49007816 
3095.934 49093504 49183812 49279264 49379636 49483448 49587728 49688876 
3099.309 49782764 49866416 49937820 49996888 50045184 50085748 50122412 
3102.684 50158788 50198508 50244144 50297564 50359664 50431032 50511456 
3106.059 50600388 50697080 50800648 50910536 51026788 51150564 51284328 
3109.435 51432160 51599332 51792812 52019468 52287204 52603760 52976052 
3112.810 53410864 53914080 54490296 55142776 55872572 56678268 57554344 
3116.185 58491064 59473272 60477736 61474532 62426296 63286648 64008116 
3119.560 64542680 64846412 64888464 64651756 64136876 63360980 62356828 
3122.936 61168728 59843292 58430788 56977412 55521432 54096660 52729368 
3126.311 51438652 50238904 49138324 48139796 47241520 46437676 45720052 
3129.686 45078956 44505136 43990332 43527124 43109448 42732200 42390940 
3133.061 42082140 41802924 41550872 41324328 41121032 40938476 40773460 
3136.437 40622516 40481668 40347552 40216748 40086712 39955588 39822144 
3139.812 39685728 39546664 39405724 39264688 39125220 38989164 38857792 
3143.187 38731316 38609180 38490412 38373596 38257608 38141540 38025000 
3146.562 37907656 37789112 37669308 37548268 37426500 37305244 37185676 
3149.938 37068848 36955188 36843944 36733444 36621284 36505436 36384648 
3153.313 36258708 36128732 35996424 35863472 35731276 35600632 35471540 
3156.688 35344100 35217816 35092640 34968188 34844240 34720392 34596260 
3160.063 34471660 34346920 34222180 34098296 33975880 33855224 33736672 
3163.438 33620020 33505004 33391562 33279472 33168410 33057664 32946374 
3166.814 32833576 32718234 32600388 32480646 32360900 32242972 32128930 
3170.189 32019660 31915340 31814966 31717184 31620528 31524286 31428668 
3173.564 31334280 31242126 31153050 31067090 30983922 30902334 30821402 
3176.939 30740058 30657486 30573436 30488194 30402222 30316090 30230154 
3180.315 30144658 30059252 29973436 29886572 29798272 29708568 29618138 
3183.690 29528190 29439962 29354658 29272952 29194910 29119716 29045990 
3187.065 28972700 28898324 28821766 28742672 28660516 28575612 28488568 
3190.440 28400478 28312762 28226830 28143604 28063396 27985290 27907902 
3193.816 27829682 27749004 27665232 27578828 27490500 27401804 27314040 
3197.191 27228060 27144106 27062356 26982420 26904188 26827524 26752176 
3200.566 26677652 26603632 26529626 26455704 26382144 26309866 26239570 
3203.941 26171820 26106368 26042298 25978378 25913446 25846696 25778622 
3207.317 25710204 25643274 25579378 25519778 25464646 25413528 25365368 
3210.692 25319036 25273098 25226638 25179022 25130044 25080054 25029930 
3214.067 24980336 24932116 24885552 24840256 24794650 24747188 24696504 
3217.442 24641794 24583548 24523068 24462806 24404516 24349738 24298820 
3220.818 24251272 24206252 24162604 24119904 24077910 24036688 23996278 
3224.193 23956676 23917604 23878814 23840378 23802402 23765198 23728696 
3227.568 23692792 23657172 23621520 23586256 23552184 23520528 23492652 
3230.943 23468974 23449108 23431202 23412494 23390430 23363154 23330324 
3234.319 23292846 23252994 23213388 23176236 23143278 23115112 23092048 
3237.694 23073284 23057806 23044738 23032928 23021050 23008262 22993938 
3241.069 22977484 22958970 22938288 22915340 22889876 22861622 22830820 
3244.444 22798028 22764680 22732488 22703126 22677362 22655370 22636100 
3247.820 22618228 22600672 22582906 22565246 22548388 22532998 22518864 
3251.195 22505288 22490738 22473466 22452494 22427512 22399078 22368344 
3254.570 22336284 22303774 22271024 22238240 22205878 22174214 22144054 
3257.945 22115812 22089804 22065504 22042252 22019072 21995682 21972296 
3261.321 21949362 21927686 21908030 21890154 21874088 21859142 21844822 
3264.696 21831302 21818758 21807854 21799316 21793256 21789770 21788274 
3268.071 21788168 21788100 21786636 21782004 21772282 21756118 21732848 
3271.446 21702998 21668618 21632224 21596598 21563866 21534826 21509026 
3274.822 21485142 21461470 21436962 21411412 21385132 21358784 21332472 
3278.197 21305990 21278568 21249548 21218824 21187268 21156478 21128198 
3281.572 21104022 21084300 21068822 21056684 21046458 21037068 21027538 
3284.947 21017420 21006048 20993390 20979374 20964666 20951000 20940116 
3288.323 20934240 20934378 20940360 20949644 20959310 20965048 20963762 
3291.698 20953956 20935734 20911084 20882644 20852816 20823164 20794660 
3295.073 20766992 20739848 20712914 20685946 20658808 20631566 20603980 
3298.448 20575976 20548114 20521260 20497258 20478398 20467040 20464850 
3301.823 20472320 20488784 20512196 20538978 20565344 20587300 20600712 
3305.199 20602590 20590742 20564512 20524874 20474020 20415116 20351742 
3308.574 20287228 20224428 20164900 20109784 20059570 20014324 19974182 
3311.949 19939246 19909136 19883466 19861718 19843162 19827522 19814516 
3315.324 19804250 19797246 19793466 19793292 19796378 19802620 19811534 
3318.700 19823326 19837822 19855302 19875698 19899216 19925370 19953608 
3322.075 19983514 20014186 20044684 20073938 20100206 20122036 20138104 
3325.450 20147928 20152022 20151916 20150078 20149314 20151814 20159136 
3328.825 20171562 20188606 20209086 20231926 20255810 20279488 20302056 
3332.201 20322124 20338234 20349138 20353928 20352750 20346534 20337296 
3335.576 20326742 20316290 20306256 20295318 20281674 20262718 20236300 
3338.951 20201344 20158130 20107980 20052872 19994754 19934944 19873582 
3342.326 19810528 19745022 19676612 19605476 19532548 19459772 19389226 
3345.702 19322916 19262298 19207750 19158884 19114010 19071042 19027212 
3349.077 18979858 18926418 18865370 18795958 18719258 18637244 18553414 
3352.452 18471604 18395274 18327008 18267910 18217388 18173854 18134676 
3355.827 18097816 18061512 18025004 17988222 17951306 17914218 17876896 
3359.203 17838676 17799148 17757622 17714304 17669200 17622888 17576100 
3362.578 17529904 17485438 17443942 17406968 17375618 17350376 17330788 
3365.953 17315272 17301066 17284964 17263932 17236108 17200634 17158200 
3369.328 17110016 17057838 17002944 16946438 16888666 16830110 16771523 
3372.704 16713981 16658925 16608212 16562944 16523844 16490664 16462548 
3376.079 16438114 16415885 16394516 16373148 16351335 16329385 16307643 
3379.454 16286658 16266810 16248131 16229764 16210709 16189763 16165758 
3382.829 16138453 16108364 16077109 16046679 16019519 15997311 15980845 
3386.205 15970601 15965719 15965100 15967507 15971769 15976513 15980912 
3389.580 15983388 15982494 15976788 15965067 15946504 15921274 15890170 
3392.955 15854154 15814805 15773710 15731862 15690567 15650891 15614104 
3396.330 15581648 15555203 15535869 15524296 15519832 15520691 15523575 
3399.706 15525120 15521652 15510458 15490164 15461150 15425066 15384247 
3403.081 15341544 15299188 15258862 15221353 15187553 15157701 15132655 
3406.456 15112584 15097730 15087233 15079720 15073099 15065724 15056084 
3409.831 15044353 15030804 15016741 15003398 14990777 14978498 14965157 
3413.207 14949039 14929182 14905624 14879049 14851104 14823505 14797380 
3416.582 14773555 14751650 14731529 14712335 14693586 14674633 14655063 
3419.957 14634055 14611609 14587314 14561924 14536262 14511867 14490113 
3423.332 14471648 14456986 14444792 14434275 14424033 14413107 14401427 
3426.708 14389131 14376665 14364061 14350979 14336561 14319883 14300090 
3430.083 14276873 14251056 14223529 14195866 14169506 14145578 14124527 
3433.458 14106282 14090538 14076539 14063397 14050563 14037455 14023938 
3436.833 14009907 13995535 13980786 13965080 13947767 13927546 13903495 
3440.208 13874860 13841883 13805933 13769303 13734316 13702923 13676490 
3443.584 13654640 13635869 13617919 13598329 13575356 13548247 13517687 
3446.959 13485148 13452816 13423083 13397009 13375276 13356859 13340287 
3450.334 13323613 13304720 13282992 13258292 13231409 13204116 13177987 
3453.709 13154045 13132290 13111902 13091481 13070139 13047262 13023498 
3457.085 13000179 12978978 12960817 12945387 12931323 12916166 12897700 
3460.460 12874423 12846333 12814867 12783200 12753855 12728912 12709123 
3463.835 12692884 12677736 12660371 12638777 12611932 12580824 12547707 
3467.210 12515683 12486697 12462315 12441959 12423888 12406295 12387305 
3470.586 12366815 12345237 12324443 12305865 12290117 12276279 12262373 
3473.961 12245570 12223487 12194962 12160784 12123235 12085416 12050600 
3477.336 12020894 11997357 11979304 11965034 11952601 11939830 11924811 
3480.711 11906762 11884762 11858950 11829770 11798140 11765524 11733286 
3484.087 11702581 11674091 11647850 11623312 11599761 11576758 11553618 
3487.462 11530719 11508330 11487066 11467163 11448895 11432294 11417224 
3490.837 11403379 11390896 11378922 11366814 11353583 11338176 11319981 
3494.212 11298964 11275670 11251356 11227044 11203788 11182097 11161936 
3497.588 11143510 11127193 11113187 11102208 11094220 11088373 11082629 
3500.963 11073995 11059890 11038070 11008672 10973567 10936699 10902178 
3504.338 10873366 10852370 10838952 10831478 10826994 10823088 10817414 
3507.713 10808922 10797305 10783378 10768569 10754643 10743503 10736710 
3511.089 10735148 10738544 10745167 10752571 10757429 10757089 10750058 
3514.464 10736166 10717419 10696567 10676701 10660503 10649331 10644068 
3517.839 10644170 10649127 10657820 10669264 10682168 10694530 10704718 
3521.214 10710864 10711986 10708420 10701186 10692934 10685904 10682134 
3524.590 10682236 10685700 10690929 10696432 10700982 10704582 10707605 
3527.965 10711103 10715959 10722276 10730155 10738782 10747714 10757021 
3531.340 10767312 10778963 10792957 10809024 10826552 10843708 10858860 
3534.715 10870105 10876764 10878632 10876764 10872551 10867896 10864363 
3538.091 10863378 10865790 10872007 10882233 10896401 10913798 10933300 
3541.466 10953179 10971223 10984577 10991170 10988859 10976694 10954605 
3544.841 10924025 10887228 10847785 10809704 10776585 10751620 10736201 
3548.216 10730053 10730631 10733687 10734638 10728694 10712631 10685292 
3551.592 10648041 10604443 10558812 10515630 10478020 10447268 10422764 
3554.967 10403181 10386179 10369686 10351974 10331953 10308676 10281838 
3558.342 10251543 10218602 10184511 10151372 10122000 10098464 10083033 
3561.717 10075810 10076115 10081134 10086458 10086933 10076251 10048275 
3565.093 9998668 9925539 9831307 9723000 9611907 9511275 9431829 9380227 
3568.950 9356460 9355749 9369393 9387541 9402540 9408566 9402912 9386119 
3572.807 9360353 9328191 9292578 9255650 9218824 9183661 9151039 9121971 
3576.665 9097101 9076530 9059512 9044761 9030924 9016952 9002474 8988334 
3580.522 8975683 8966347 8961375 8961240 8964960 8970745 8975784 8976731 
3584.380 8969865 8951701 8919705 8872763 8812064 8742211 8670241 8605042 
3588.237 8555599 8527687 8523294 8539852 8571617 8610584 8648135 8677373 
3592.094 8692618 8690827 8672674 8641003 8601053 8558945 8520523 8490045 
3595.952 8469468 8458286 8453825 8452373 8449332 8441460 8426562 8404570 
3599.809 8377612 8349104 8323569 8303743 8291990 8288174 8290977 8297731 
3603.667 8306276 8314719 8321407 8324345 8321677 8310160 8286822 8250080 
3607.524 8200509 8142605 8083695 8032659 7996073 7976870 7972279 7975958 
3611.382 7979265 7974811 7959523 7934585 7905937 7880833 7866257 7864637 
3615.239 7874422 7889470 7901078 7900504 7880124 7835420 7766534 7678401 
3619.096 7580003 7483278 7400292 7340001 7306977 7300272 7315368 7345157 
3622.954 7382329 7421458 7459918 7496964 7533104 7567258 7594468 7606236 
3626.811 7589814 7532700 7428301 7282447 7116433 6961088 6846998 6789947 
3630.669 6788029 6825287 6880525 6933985 6970583 6984220 6976442 6955062 
3634.526 6930114 6910352 6900656 6900690 6906985 6914526 6919644 6920249 
3638.384 6916142 6908567 6898603 6887359 6875308 6863357 6853225 6847334 
3642.241 6849489 6862347 6887527 6923549 6967182 7011899 7050322 7074771 
3646.098 7078880 7058168 7010922 6938732 6845887 6739129 6627015 6520479 
3649.956 6430244 6367532 6340164 6351057 6396786 6468179 6552332 6633104 
3653.813 6696325 6730413 6729740 6696797 6643197 6587249 6547421 6536220 
3657.671 6557311 6604608 6666110 6727923 6779076 6811891 6824379 6819161 
3661.528 6802602 6782509 6766052 6758917 6764503 6784158 6817377 6863054 
3665.385 6919441 6984018 7053689 7124180 7189663 7244475 7285345 7314929 
3669.243 7344382 7395135 7494739 7665721 7920311 8252984 8644992 9065669 
3673.100 9477713 9841780 10112538 10249779 10227761 10048071 9742890 9360793 
3676.958 8950450 8542589 8151586 7783906 7444379 7141830 6888402 6693297 
3680.815 6559632 6481161 6445781 6438652 6447765 6466968 6495051 6532856 
3684.673 6579815 6630682 6675228 6700936 6695282 6650902 6568176 6457753 
3688.530 6336163 6221295 6126956 6059416 6018729 6001930 6005794 6027699 
3692.387 6064926 6113481 6167519 6219984 6264556 6296929 6316159 6324799 
3696.245 6327925 6331187 6338214 6349544 6362186 6371836 6372710 6360606 
3700.102 6334145 6295584 6250034 6205464 6170342 6151690 6153606 6176694 
3703.960 6218438 6273767 6336633 6401258 6462529 6516880 6562087 6597174 
3707.817 6620757 6632196 6629268 6609621 6571237 6513785 6439694 6355664 
3711.675 6271783 6200120 6150816 6130552 6140264 6175551 6227917 6288020 
3715.532 6346821 6397055 6434919 6460242 6475679 6485197 6492730 6500432 
3719.389 6507462 6511162 6508437 6497372 6478403 6455466 6433002 6416121 
3723.247 6406941 6404587 6405427 6404620 6399005 6388884 6378057 6374022 
3727.104 6384882 6415583 6466935 6533832 6607536 6676776 6731019 6763696 
3730.962 6772312 6760768 6736437 6707800 6680309 6652753 6618335 6568613 
3734.819 6498078 6409127 6313537 6228589 6172090 6154042 6174610 6226505 
3738.677 6299249 6384142 6475477 6571607 6671190 6769417 6856659 6915705 
3742.534 6925198 6867497 6738322 6558993 6374055 6239480 6192759 6238505 
3746.391 6353175 6499423 6640707 6745220 6793918 6780423 6712175 6606089 
3750.249 6483246 6362254 6255413 6170207 6112910 6088682 6100880 6147825 
3754.106 6222203 6311553 6400922 6477831 6533126 6563265 6570262 6559228 
3757.964 6536085 6504536 6467574 6427890 6390733 6364069 6356268 6372811 
3761.821 6413162 6469625 6529695 6578806 6606863 6609890 6592767 6566359 
3765.678 6544394 6536254 6543418 6560035 6575240 6578873 6564072 6530737 
3769.536 6485095 6437441 6398164 6373719 6366322 6373551 6391271 6414708 
3773.393 6440367 6466027 6491048 6515366 6539180 6561986 6582708 6598284 
3777.251 6605012 6599966 6581598 6552063 6517081 6485129 6464849 6461587 
3781.108 6475376 6501172 6531107 6556201 6570665 6571977 6562390 6546816 
3784.966 6530771 6518561 6512036 6510455 6512675 6517417 6525053 6535682 
3788.823 6550045 6567267 6586039 6604979 6623381 6642423 6664024 6690067 
3792.680 6720318 6751850 6778672 6794187 6793447 6775778 6746667 6716482 
3796.538 6697941 6700431 6726240 6769485 6817377 6853259 6859789 6825085 
3800.395 6745624 6631355 6504233 6394062 6326447 6313469 6351326 6423384 
3804.253 6506722 6576787 6613423 6605281 6553476 6472147 6385790 6320361 
3808.110 6291785 6303283 6346283 6407479 6474098 6538507 6598687 6657261 
3811.968 6717188 6778436 6835722 6878236 6893486 6871301 6809804 6719578 
3815.825 6624592 6552635 6525221 6549002 6614331 6699590 6777124 6822224 
3819.682 6815930 6752355 6641650 6510287 6393188 6318647 6299820 6331893 
3823.540 6397761 6475107 6543755 6590950 6612245 6612111 6601614 6594079 
3827.397 6599461 6621463 6656319 6696393 6732702 6757739 6768542 6766455 
3831.255 6756124 6744042 6735865 6736134 6746331 6765547 6790452 6815560 
3835.112 6833433 6835452 6814820 6767533 6695888 6608646 6520176 6445848 
3838.969 6396348 6375468 6379233 6398971 6424326 6446857 6461217 6466127 
3842.827 6463033 6455500 6448135 6445478 6451767 6470634 6504031 6552669 
3846.684 6614600 6687443 6767162 6850196 6933918 7016377 7095181 7165409 
3850.542 7217961 7238714 7210415 7117039 6953042 6732634 6493403 6283347 
3854.399 6142146 6085725 6104710 6175820 6272826 6375938 6471643 6553442 
3858.257 6619849 6671863 6710896 6738423 6755686 6764638 6767330 6766287 
3862.114 6762653 6755754 6743403 6724087 6698849 6673882 6658977 6664057 
3865.971 6694845 6748316 6812531 6868339 6897357 6884699 6827643 6737850 
3869.829 6640539 6564880 6529863 6538844 6578806 6629067 6668263 6682967 
3873.686 6670551 6640338 6608208 6591051 6600302 6637512 6695922 6762249 
3877.544 6821686 6860900 6870392 6846931 6795500 6728428 6662846 6616114 
3881.401 6600706 6619680 6666278 6725332 6779110 6809535 6804823 6763662 
3885.259 6697369 6626981 6575745 6560876 6586678 6644577 6717188 6785336 
3889.116 6832053 6845854 6824345 6773422 6706959 6641011 6590580 6564846 
3892.973 6566225 6591926 6635661 6691749 6753869 6817007 6876990 6929811 
3896.831 6971728 6999339 7010249 7003447 6980382 6944692 6901599 6856591 
3900.688 6813675 6774196 6737110 6699522 6658607 6614096 6568176 6526264 
3904.546 6494984 6480622 6485701 6509749 6548397 6596602 6648110 6698210 
3908.403 6743706 6782812 6815089 6840333 6858846 6871773 6880222 6886584 
3912.260 6893149 6902104 6913954 6927858 6940584 6948059 6946746 6934457 
3916.118 6911968 6882511 6851306 6823335 6802332 6789880 6785538 6788163 
3919.975 6795938 6807718 6821955 6837472 6851879 6862381 6866353 6862381 
3923.833 6851037 6835957 6822056 6815291 6820037 6837741 6866622 6902171 
3927.690 6938901 6971055 6994221 7005905 7005467 6993648 6972637 6945298 
3931.548 6915502 6887089 6864333 6850835 6848715 6857870 6876351 6900555 
3935.405 6925569 6947722 6964355 6974691 6979977 6982469 6984557 6987722 
3939.262 6991965 6995567 6996140 6990988 6978597 6959169 6935299 6910823 
3943.120 6890254 6877529 6874331 6880424 6893149 6908197 6921731 6930046 
3946.977 6931191 6925198 6913920 6899882 6886113 6875543 6869282 6867935 
3950.835 6871571 6879414 6890591 6904090 6918835 6933480 6946981 6958260 
3954.692 6966947 6972940 6976880 6979540 6981594 6983446 6985668 6988092 
3958.550 6991123 6994826 7000248 7007218 7015872 7025637 7035235 7043182 
3962.407 7048570 7050726 7050153 7047998 7045338 7043283 7042340 7042004 
3966.264 7041734 7040488 7037828 7033517 7028264 7022910 7018465 7015771 
3970.122 7015367 7017556 7022506 7029544 7038198 7047627 7056888 7065611 
3973.979 7073761 7081911 7090634 7100772 7112728 7126033 7139169 7150486 
3977.837 7158403 7161872 7161131 7157156 7151800 7146950 7143582 7142436 
3981.694 7143042 7144558 7145939 7146748 7146512 7145535 7144457 7143716 
3985.552 7143885 7145467 7148769 7153821 7160828 7169384 7178816 7188248 
3989.409 7196906 7203542 7207989 7209808 7209370 7207248 7204182 7201016 
3993.266 7198658 7198388 7200510 7205328 7212166 7219915 7227293 7232650 
3997.124 7235244 7234941 7232582 7229281 7225912 7223250 7220589 7217355 
##END=
