
##TITLE=1132a_2_d
##JCAMP-DX=5.01  $$ Nicolet v. 1
##DATATYPE=INFRARED SPECTRUM
##ORIGIN=UniL
##OWNER=Nicolet
##LONGDATE=2011/09/21
##TIME=14:18:02
##SPECTROMETER/DATA SYSTEM=Nicolet iS5
##DATA PROCESSING=
Ratio against background
%Transmittance->Absorbance
Truncated
ElementMultiply or ElementDivide
##COMMENTS=
Number of sample scans: 32
Collection length: 51.19 sec
Sample gain: 2.0
Background collected on: Mer Sep 21 14:09:10 2011 (GMT+02:00);
Number of background scans: 32
Background gain: 2.0
Sample spacing:  1.000
Number of scan points: 12415
Resolution points: 8192
Number of FFT points: 65536
Apodization: N-B fort;
Phase correction: Mertz;
Laser frequency: 15798.0 cm-1
Number of rejected sample scans: 0
Number of rejected background scans: 0
Bench serial number: ASB1000141;
##RESOLUTION=4.000
##XUNITS=1/CM
##YUNITS=ABSORBANCE
##FIRSTX=649.893372
##LASTX=4000.122314
##FIRSTY=0.067306
##MAXX=4000.122314
##MINX=649.893372
##MAXY=0.279105
##MINY=0.002560
##XFACTOR=1.000000
##YFACTOR=1.000000E-009
##NPOINTS=6950
##DELTAX=0.482117
##ZPD=6100
##XYDATA=(X++(Y..Y))
649.893 67305744 67789688 68293648 68822656 69382112 69973704 70599472 
653.268 71262216 71970320 72739752 73587600 74528536 75570376 76711528 
656.643 77948408 79283584 80731648 82321776 84094856 86088776 88336448 
660.018 90859096 93659824 96723592 100005672 103421376 106828264 110043504 
663.393 112878896 115160464 116774464 117654872 117748592 116988344 
666.285 115280520 112560272 108897744 104607728 100227688 96283896 93087192 
669.660 90668024 88881664 87529664 86440184 85501704 84655192 83886040 
673.035 83204488 82628552 82170304 81832208 81609120 81493904 81482920 
676.410 81577576 81782368 82102840 82540104 83090488 83744744 84492104 
679.785 85324952 86244176 87261304 88395904 89674184 91123160 92764824 
683.159 94621856 96719328 99088480 101775104 104834096 108322232 112297528 
686.534 116810800 121908472 127641184 134059968 141198736 149032768 
689.427 157419152 166028496 174268688 181361264 186381824 188428192 
692.320 186898432 181597072 172842480 161373296 148251872 134654144 
695.212 121609808 109988272 100349944 92927840 87714856 84505792 83001392 
698.587 82870640 83844032 85752792 88520152 92132248 96557736 101648000 
701.962 107084240 112337352 116696600 119463648 120061072 118215272 
704.855 114040560 108013736 100862568 93338192 86136896 79744976 74390760 
708.229 70108368 66783608 64244472 62310396 60838704 59729256 58904984 
711.604 58305792 57876544 57565920 57337940 57173496 57069792 57033404 
714.979 57068052 57168544 57320924 57506796 57712652 57935984 58183564 
718.354 58465092 58785880 59141004 59516172 59895620 60268132 60634560 
721.729 61007520 61406592 61849396 62345928 62895836 63491000 64119132 
725.104 64767248 65423264 66074184 66703396 67292352 67822928 68285200 
728.478 68683680 69042368 69401200 69804952 70295160 70897168 71615584 
731.853 72438944 73347632 74326832 75371168 76488208 77691968 78995664 
735.228 80403608 81910304 83505248 85182424 86948736 88829304 90860320 
738.603 93082472 95529320 98218168 101152312 104328232 107745832 111417968 
741.978 115373424 119653408 124313616 129426632 135088256 141438544 
744.870 148650192 156892960 166266368 176684416 187769088 198713664 
747.763 208371280 215376656 218422768 216763680 210454576 200464112 
750.656 188337392 175916128 164914336 156514832 151394064 149626800 
753.548 150807392 154162512 158746000 163667296 168123040 171554240 
756.441 173651008 174279632 173431040 171141920 167451472 162394976 
759.334 156029696 148481088 139968256 130822424 121482856 112410016 
762.227 104069664 96868272 91071864 86812464 84056936 82634280 82257144 
765.601 82581216 83281216 84054648 84673592 84993064 84929640 84463528 
768.976 83624784 82488976 81163568 79775112 78458384 77322776 76440752 
772.351 75840488 75509184 75410784 75505912 75769072 76191240 76773528 
775.726 77516576 78409720 79429448 80547776 81739936 82993968 84312224 
779.101 85703544 87173736 88717032 90314080 91938032 93563976 95174160 
782.475 96761600 98323656 99854704 101339264 102751512 104058336 105230264 
785.850 106244952 107089408 107756912 108238904 108520256 108579688 
788.743 108392656 107940144 107216248 106229288 104998464 103546472 
791.636 101893992 100055856 98043432 95871800 93562656 91146200 88657248 
795.010 86125296 83568824 80995528 78406944 75808648 73220816 70677448 
798.385 68226336 65917312 63787548 61860440 60142188 58628132 57308940 
801.760 56175084 55216136 54416192 53752164 53194864 52711264 52274908 
805.135 51869348 51489720 51138524 50819276 50531820 50272232 50037116 
808.510 49831260 49672308 49591588 49629440 49823044 50199996 50770220 
811.885 51524448 52431152 53437392 54472344 55438304 56222752 56714284 
815.259 56809744 56445924 55613392 54362828 52794432 51037184 49229348 
818.634 47481632 45871340 44440020 43198520 42141500 41256224 40528404 
822.009 39940508 39470164 39092660 38782212 38518904 38293540 38106448 
825.384 37963736 37869944 37823128 37812792 37825372 37848832 37879236 
828.759 37920704 37982760 38072776 38191500 38331868 38483244 38637068 
832.133 38792104 38955168 39137908 39350656 39596932 39871936 40165788 
835.508 40469444 40778996 41097392 41431516 41788368 42170820 42576888 
838.883 43002868 43447720 43916164 44418916 44968256 45573932 46239456 
842.258 46962256 47737264 48562528 49441304 50383064 51398256 52491832 
845.633 53658876 54882900 56138472 57392768 58608488 59746784 60761336 
849.008 61600864 62213724 62551068 62582292 62304584 61750760 60985440 
852.382 60095344 59178328 58318752 57579652 56998684 56586536 56334548 
855.757 56220868 56218492 56296036 56422944 56574160 56731312 56887204 
859.132 57045536 57218852 57423396 57673220 57977632 58339860 58760768 
862.507 59240492 59780772 60381624 61034592 61717340 62388272 62984928 
865.882 63437664 63675776 63641480 63304780 62666500 61760580 60645420 
869.256 59400740 58116852 56879312 55771520 54862408 54198828 53810592 
872.631 53707316 53885756 54336992 55054452 56039316 57302284 58861688 
876.006 60739724 62957808 65527328 68440640 71655520 75087128 78589632 
879.381 81950480 84924480 87237888 88642408 88976656 88186832 86360016 
882.756 83700184 80516024 77154944 73935232 71139952 68965392 67522680 
886.131 66858656 66962516 67785472 69245104 71235864 73622136 76224920 
889.505 78839464 81223808 83113312 84272720 84507240 83707376 81873936 
892.880 79120240 75658864 71748336 67678392 63709616 60032376 56774248 
896.255 53985700 51659936 49755268 48215652 46985296 46010672 45245356 
899.630 44647192 44175760 43798320 43489692 43234276 43025256 42860036 
903.005 42735272 42644500 42577800 42524516 42478768 42439748 42412160 
906.379 42402116 42412820 42442416 42484432 42530764 42576372 42622136 
909.754 42673712 42738232 42820868 42921072 43033816 43152588 43272528 
913.129 43393528 43519908 43657792 43810636 43978452 44157012 44341920 
916.504 44531276 44727584 44937092 45166744 45419840 45694320 45983412 
919.879 46278928 46576008 46874700 47180348 47500740 47843236 48212504 
923.254 48610960 49042460 49514044 50036444 50621276 51273704 51985332 
926.628 52728884 53462168 54129840 54676012 55058964 55256436 55273300 
930.003 55137884 54899668 54617880 54351372 54156596 54077744 54144660 
933.378 54374544 54769932 55322292 56012136 56814200 57695320 58614820 
936.753 59528524 60389504 61153012 61788156 62282896 62651224 62931260 
940.128 63183128 63476280 63872680 64422452 65152668 66067472 67151248 
943.502 68374120 69697256 71069744 72433664 73723192 74862320 75778976 
946.877 76409336 76706424 76651752 76255088 75554640 74606552 73480640 
950.252 72252768 70991856 69764488 68627800 67623880 66782564 66116660 
953.627 65624624 65293320 65104432 65040424 65085956 65230204 65465184 
957.002 65782392 66172488 66626252 67135272 67696048 68309704 68981624 
960.377 69718192 70524672 71403336 72354832 73380552 74486848 75686000 
963.751 76997384 78443856 80046096 81819968 83772312 85900400 88193608 
967.126 90637856 93221008 95937752 98794456 101809784 105012552 108429952 
970.501 112075008 115926648 119918936 123927120 127766040 131225720 
973.394 134080168 136133760 137269648 137466352 136819360 135515952 
976.286 133828400 132059024 130483464 129344864 128801536 128913792 
979.179 129640192 130838184 132283896 133677680 134709312 135088704 
982.072 134580736 133062688 130528032 127090840 122947624 118353584 
984.964 113580800 108862328 104397960 100331416 96743384 93670144 91105584 
988.339 89015616 87348080 86044664 85051456 84318016 83803528 83474288 
991.714 83299528 83252680 83309720 83448824 83654184 83914376 84222552 
995.089 84574944 84967920 85397184 85857600 86343520 86850544 87376400 
998.464 87920576 88483264 89064624 89663432 90277856 90905824 91546360 
1001.839 92199968 92868424 93553816 94257792 94980936 95723904 96488464 
1005.213 97278160 98098416 98955712 99854864 100798248 101784992 102811256 
1008.588 103872184 104964160 106085568 107236136 108416216 109624928 
1011.481 110859720 112117128 113394264 114690672 116010080 117360208 
1014.374 118751392 120194152 121698200 123270488 124916160 126639368 
1017.266 128443632 130332824 132310856 134380512 136542944 138796160 
1020.159 141134640 143546320 146008592 148487712 150929664 153261568 
1023.052 155398880 157244832 158710416 159732752 160283664 160383312 
1025.945 160096176 159527648 158798096 158025488 157314832 156734592 
1028.838 156315296 156044608 155870320 155700240 155405984 154845776 
1031.731 153862784 152307376 150066512 147067792 143301792 138823216 
1034.624 133753152 128265024 122556056 116847568 111344784 106212752 
1037.517 101577704 97503768 94001656 91039864 88561432 86499376 84786392 
1040.892 83366960 82194080 81228248 80437864 79794864 79275672 78863184 
1044.267 78544248 78308520 78147840 78052584 78012128 78017872 78063960 
1047.643 78149552 78278328 78455888 78684704 78960736 79269872 79590088 
1051.018 79893856 80150496 80333480 80421632 80401616 80270056 80034024 
1054.393 79713040 79335176 78938400 78564704 78251192 78028744 77915896 
1057.768 77918560 78033424 78250152 78556608 78936136 79367192 79821096 
1061.144 80256816 80625520 80875840 80958160 80837360 80497240 79943680 
1064.519 79201832 78312408 77326416 76294584 75267176 74288848 73392784 
1067.894 72602744 71930128 71375776 70932944 70592384 70346432 70191168 
1071.269 70126360 70153032 70270512 70474160 70755664 71104440 71510720 
1074.645 71967464 72470192 73016336 73602584 74224528 74877488 75558192 
1078.020 76268408 77015456 77813032 78678944 79630880 80686400 81861416 
1081.395 83171296 84634136 86271336 88106344 90165216 92471352 95043280 
1084.770 97892472 101020464 104415824 108048240 111868584 115804720 
1087.663 119759440 123628608 127304000 130688416 133714376 136341488 
1090.556 138556144 140358560 141746624 142702848 143193136 143174560 
1093.449 142619088 141539520 140012112 138181120 136240896 134429392 
1096.343 132974832 132065896 131838304 132341992 133539496 135297952 
1099.236 137411120 139602128 141540336 142906000 143396640 142776272 
1102.129 140921440 137822352 133589968 128420384 122579560 116356192 
1105.022 110015208 103804224 97917672 92488288 87602512 83292616 79550808 
1108.397 76341752 73614872 71314424 69382112 67764592 66410600 65268904 
1111.772 64294032 63443720 62681960 61983556 61330916 60714656 60130924 
1115.147 59578572 59058240 58571780 58122684 57715868 57356576 57049388 
1118.523 56796640 56597372 56448940 56347712 56291396 56278984 56310556 
1121.898 56385628 56501772 56654636 56839276 57051808 57291660 57561908 
1125.273 57868328 58216596 58611108 59053416 59543076 60080048 60665920 
1128.648 61304888 62003084 62765376 63593028 64481640 65421260 66397360 
1132.024 67391448 68384080 69355096 70282696 71146872 71929616 72618368 
1135.399 73210392 73715064 74155856 74565520 74985648 75460064 76027232 
1138.774 76721456 77569384 78589440 79794016 81188144 82769760 84528128 
1142.149 86444512 88493304 90640224 92846232 95066872 97247744 99329304 
1145.525 101242456 102907368 104244984 105176608 105632040 105563376 
1148.418 104944664 103777416 102087088 99920424 97340016 94414424 91222848 
1151.793 87846632 84362680 80847744 77367752 73975224 70714256 67617368 
1155.168 64709060 62010576 59536464 57295708 55290832 53517032 51963860 
1158.543 50616660 49459792 48475904 47645664 46948928 46361464 45857900 
1161.919 45415348 45013828 44639992 44287432 43953964 43639468 43343844 
1165.294 43065976 42804668 42560584 42337384 42141388 41979788 41858528 
1168.669 41780052 41743320 41745544 41784356 41859692 41973984 42130692 
1172.044 42332236 42578492 42867092 43194712 43559284 43962212 44407796 
1175.420 44902036 45450044 46054768 46716636 47434508 48208028 49038452 
1178.795 49928268 50878388 51885328 52938996 54021720 55112228 56187944 
1182.170 57229512 58225348 59171148 60071032 60934808 61778872 62624356 
1185.545 63494228 64414112 65406592 66486128 67655744 68902360 70198096 
1188.921 71498800 72752168 73904160 74900480 75696968 76260824 76570408 
1192.296 76617240 76402232 75934200 75226072 74293208 73152464 71820920 
1195.671 70319984 68679416 66937664 65148160 63374012 61676704 60113420 
1199.046 58721392 57512736 56476036 55581680 54793464 54075984 53404608 
1202.422 52767940 52165384 51603848 51093460 50645252 50268104 49969416 
1205.797 49753748 49622160 49571572 49594712 49682264 49824940 50016368 
1209.172 50254712 50542132 50883156 51281384 51738912 52255436 52830128 
1212.547 53463440 54158436 54920420 55755732 56669020 57662588 58736300 
1215.923 59889800 61124408 62445388 63861392 65383628 67024604 68795280 
1219.298 70706264 72768392 74993712 77397176 79995696 82804840 85836488 
1222.673 89094608 92572512 96249328 100089032 104040104 108027376 111956560 
1226.048 115710640 119142376 122093728 124396912 125887320 126438768 
1228.941 125971768 124474184 122004080 118687504 114705768 110259824 
1231.834 105573464 100863824 96314376 92086080 88294136 85006080 82253264 
1235.210 80033144 78321064 77077704 76257344 75812552 75691688 75846328 
1238.585 76230608 76801000 77522120 78363328 79295680 80291384 81316944 
1241.960 82331472 83291336 84149592 84863928 85404888 85756504 85920512 
1245.335 85912760 85762928 85508680 85191976 84860872 84561984 84337088 
1248.711 84221024 84232936 84375480 84634488 84983792 85390728 85821544 
1252.086 86249592 86656224 87032048 87377296 87700544 88019296 88357360 
1255.461 88746376 89220816 89811272 90541976 91422992 92448072 93592784 
1258.836 94817104 96068888 97282512 98386360 99305864 99961624 100283000 
1262.212 100209616 99697512 98727984 97307264 95466200 93252056 90725592 
1265.587 87955752 85010392 81963928 78892064 75865824 72953936 70214064 
1268.962 67686520 65399656 63367992 61597580 60089292 58840136 57842244 
1272.337 57081696 56539016 56191112 56013188 55985032 56091340 56322404 
1275.713 56671624 57133624 57701148 58366276 59121332 59960932 60884256 
1279.088 61894060 62995808 64194724 65496116 66904924 68427216 70072512 
1282.463 71853176 73781976 75868384 78112784 80502224 83005720 85578240 
1285.838 88160976 90683496 93076352 95270280 97201448 98820120 100086976 
1289.214 100976520 101476320 101583776 101301448 100632456 99575984 98126784 
1292.589 96279064 94034576 91412440 88455976 85240472 81864256 78440640 
1295.964 75095792 71947288 69102312 66657148 64683408 63230456 62321220 
1299.339 61949160 62079988 62655092 63604800 64848332 66303320 67894784 
1302.715 69545760 71181800 72732896 74126696 75297008 76190208 76764032 
1306.090 76993944 76871712 76403336 75608664 74524056 73212504 71761152 
1309.465 70286824 68929464 67819400 67062848 66710116 66736588 67037404 
1312.840 67439504 67750152 67777264 67384168 66518104 65209372 63560268 
1316.216 61708516 59808304 57990396 56344128 54919856 53727264 52751104 
1319.591 51964532 51342316 50865944 50522996 50305600 50206056 50214424 
1322.966 50320520 50513728 50785116 51128196 51536500 52002324 52515356 
1326.341 53062420 53628772 54201452 54769668 55326132 55867032 56389248 
1329.717 56890528 57369056 57823548 58255280 58668824 59071680 59472324 
1333.092 59878544 60295920 60726884 61171820 61631104 62106328 62601200 
1336.467 63120088 63666872 64243392 64848492 65479860 66135256 66815064 
1339.842 67522560 68263792 69045008 69870560 70742216 71659112 72620088 
1343.218 73624888 74676160 75779728 76943344 78174504 79478824 80858712 
1346.593 82313616 83840864 85437880 87102784 88835032 90633816 92496904 
1349.968 94418496 96389624 98399664 100439048 102503704 104597312 106732512 
1353.343 108928360 111206848 113592032 116105344 118766592 121593144 
1356.236 124595424 127771600 131097152 134522560 137965136 141315808 
1359.129 144464464 147307968 149777696 151851584 153553600 154943712 
1362.022 156094000 157080960 157966288 158791232 159583440 160356096 
1364.916 161111968 161845264 162545200 163200976 163810384 164388800 
1367.809 164974752 165629296 166419216 167407520 168639776 170136992 
1370.702 171903248 173933616 176225248 178778048 181592688 184662800 
1373.595 187966240 191466704 195125712 198918640 202846400 206931184 
1376.488 211200160 215655504 220250992 224868960 229337200 233440336 
1379.381 236936176 239600320 241216240 241582032 240542768 238009520 
1382.274 234012080 228710528 222383840 215353168 207871968 200094640 
1385.167 192042608 183651728 174848192 165631616 156117456 146521664 
1388.060 137095104 128053128 119548112 111661528 104437656 97913552 92111800 
1391.435 87044560 82701368 79040184 75997352 73499480 71485640 69903920 
1394.811 68709144 67855344 67278040 66901788 66658384 66497132 66406704 
1398.186 66417480 66598744 67034504 67796552 68932960 70457328 72361136 
1401.561 74622680 77213480 80086696 83155608 86291176 89305016 91962280 
1404.936 94034856 95322728 95699536 95133032 93675944 91451048 88615880 
1408.312 85359832 81877936 78351064 74956544 71837816 69093568 66780976 
1411.687 64912236 63472332 62435020 61778340 61487552 61549472 61945608 
1415.062 62643760 63597856 64763016 66101224 67593176 69242184 71062760 
1418.437 73065192 75234824 77530840 79897560 82286736 84675920 87066304 
1421.813 89469016 91881816 94275088 96585008 98710720 100544696 101994800 
1425.188 102996656 103519056 103544080 103050504 102012104 100407856 
1428.081 98246208 95580224 92519328 89211616 85806528 82444952 79239688 
1431.456 76273576 73613856 71306416 69370064 67798136 66555908 65593176 
1434.831 64857184 64315432 63966536 63838712 63968956 64373760 65031112 
1438.207 65887616 66876396 67934416 69016272 70087152 71120600 72097320 
1441.582 72998664 73808872 74518112 75123336 75628544 76042000 76371848 
1444.957 76621040 76785696 76857944 76833544 76721248 76550888 76368616 
1448.332 76225992 76165016 76202096 76330536 76529656 76782216 77083392 
1451.708 77445208 77888624 78430880 79072424 79794896 80559784 81319176 
1455.083 82029072 82652592 83172616 83592120 83932704 84215672 84450448 
1458.458 84636504 84770520 84857568 84914208 84964576 85033520 85139848 
1461.833 85291800 85487904 85722720 85993648 86306096 86675192 87121528 
1465.208 87668272 88336896 89145824 90116280 91270432 92626760 94195064 
1468.584 95970272 97934400 100051392 102279432 104571048 106863016 109077464 
1471.959 111116496 112868584 114232112 115132560 115527000 115399400 
1474.852 114748312 113587944 111956000 109921480 107580800 105033528 
1477.745 102366912 99633200 96847928 94007744 91107704 88157080 85190440 
1481.120 82259032 79417440 76712592 74170920 71800248 69596128 67546912 
1484.496 65639460 63861588 62203092 60658260 59227768 57919132 56744716 
1487.871 55716856 54843200 54124620 53557284 53139628 52874476 52769212 
1491.246 52828448 53046732 53404680 53871652 54409164 54981452 55561648 
1494.621 56132664 56690012 57236240 57772144 58289232 58765472 59170200 
1497.997 59474984 59661548 59728036 59689868 59577092 59429388 59286748 
1501.372 59188160 59163784 59230272 59390712 59632352 59928368 60235360 
1504.747 60502992 60685008 60757680 60739840 60694344 60703564 60820828 
1508.122 61054116 61373732 61737508 62106440 62453688 62768520 63051312 
1511.498 63311720 63563572 63820860 64093368 64384060 64688444 64996048 
1514.873 65295280 65576872 65842576 66107704 66400988 66752464 67180288 
1518.248 67682072 68233392 68794272 69319256 69777448 70166128 70521240 
1521.623 70899632 71357304 71916400 72558720 73239608 73907696 74525704 
1524.999 75074296 75557752 75997272 76421984 76856056 77313392 77802416 
1528.374 78330904 78911144 79559128 80286872 81094872 81968008 82881392 
1531.749 83808552 84735728 85674568 86664832 87763200 89011144 90423504 
1535.124 91981312 93650664 95392480 97176496 98990624 100829560 102702192 
1538.500 104628896 106641432 108774080 111050424 113486808 116075128 
1541.393 118795952 121633608 124575912 127616864 130749520 133956608 
1544.286 137200512 140421360 143551600 146522640 149275488 151763280 
1547.179 153929760 155701936 157001008 157749824 157919616 157552768 
1550.072 156763392 155687520 154421888 152994880 151367344 149478320 
1552.965 147306336 144914736 142458400 140141680 138120000 136447440 
1555.858 135049904 133757744 132336736 130545304 128218768 125353944 
1558.751 122185296 119108416 116481352 114443496 112924920 111750280 
1561.644 110739688 109747304 108653552 107371080 105847136 104078208 
1564.537 102115504 100053480 97999832 96022264 94127320 92254872 90305024 
1567.912 88171936 85790016 83172784 80421280 77695168 75144840 72867248 
1571.288 70882192 69154912 67625272 66232844 64925976 63662312 62409616 
1574.663 61152976 59911900 58754812 57794364 57158908 56938576 57164004 
1578.038 57816732 58856032 60247236 61975148 64047016 66482572 69301616 
1581.413 72510640 76089248 79982560 84102416 88313056 92437744 96276704 
1584.789 99603744 102209952 103933048 104663760 104370824 103101168 
1587.682 100989856 98244384 95133480 91970256 89041888 86595904 84817568 
1591.057 83810240 83617864 84233536 85616376 87699248 90395672 93613496 
1594.432 97242312 101163272 105258968 109407696 113502048 117456864 
1597.325 121197016 124654672 127755496 130402744 132490632 133919000 
1600.218 134611408 134540320 133729472 132249744 130197856 127691480 
1603.111 124862888 121841528 118759888 115735424 112850664 110154552 
1606.004 107657984 105345320 103189024 101164904 99260888 97474448 95807720 
1609.380 94259816 92822960 91486552 90244000 89097456 88057680 87137408 
1612.755 86340448 85652376 85036912 84438128 83795816 83059592 82217176 
1616.130 81309632 80432120 79699904 79197336 78955688 78949728 79124336 
1619.505 79415088 79768536 80150176 80542512 80948696 81387272 81890944 
1622.881 82496032 83234424 84127304 85178512 86376912 87700184 89120320 
1626.256 90604264 92116312 93625832 95108160 96551072 97955488 99334224 
1629.631 100705024 102084024 103483944 104912768 106376488 107879616 
1632.524 109429088 111036528 112719768 114508360 116445688 118591752 
1635.417 121002544 123715688 126741128 130050536 133606640 137379600 
1638.310 141356688 145542400 149952880 154612080 159535104 164722560 
1641.203 170159680 175808320 181614080 187521888 193462160 199374192 
1644.096 205216784 210968368 216645200 222294400 227984928 233754896 
1646.990 239588080 245416496 251133920 256641024 261857040 266724560 
1649.883 271146688 274929120 277755520 279105440 278341248 274985440 
1652.776 269157088 261787328 254143232 247109136 240841232 235028528 
1655.669 229214944 223052384 216369440 209165744 201558912 193716816 
1658.562 185807408 177922288 170081408 162250864 154373120 146410480 
1661.455 138373184 130335960 122437928 114861008 107786296 101353832 
1664.348 95630560 90603520 86201224 82314696 78825840 75630000 72655536 
1667.723 69876240 67315064 65031880 63098168 61568676 60461936 59758952 
1671.098 59414760 59379124 59605256 60055164 60705204 61544048 62577016 
1674.474 63824200 65314956 67072860 69099704 71381784 73899488 76643296 
1677.849 79621808 82857088 86370968 90160360 94190736 98402776 102723600 
1681.224 107111920 111575680 116177040 121019752 126206488 131771120 
1684.117 137596048 143429296 148971232 153980208 158311984 161886400 
1687.010 164656496 166566752 167569792 167643872 166791104 165046928 
1689.903 162474496 159174384 155285440 150973984 146423104 141766416 
1692.796 137046640 132196608 127046000 121398320 115163960 108500008 
1695.689 101844344 95759800 90644424 86589760 83391296 80707432 78176648 
1699.065 75548648 72777952 70047160 67671272 65883996 64699636 63932412 
1702.440 63331692 62659912 61748276 60490956 58832016 56768168 54344348 
1705.815 51650456 48798960 45907432 43082732 40400348 37907796 35618616 
1709.190 33516352 31569250 29747634 28039256 26454930 25019750 23753334 
1712.566 22656452 21700698 20838910 20020014 19213256 18418158 17659778 
1715.941 16968626 16359076 15816525 15309450 14811471 14324780 13881805 
1719.316 13524694 13279609 13141238 13076593 13038213 12985976 12898997 
1722.691 12784701 12669514 12584644 12545592 12544228 12553880 12546479 
1726.067 12508454 12446290 12381237 12335794 12319739 12324511 12328158 
1729.442 12309444 12262203 12199529 12146643 12124223 12134786 12154412 
1732.817 12141395 12053666 11879143 11650403 11432566 11281995 11216708 
1736.192 11216708 11241496 11253261 11227112 11160644 11069373 10978767 
1739.568 10907614 10857704 10814799 10760485 10684240 10590387 10493261 
1742.943 10408747 10343151 10289473 10231188 10152525 10048953 9929912 
1746.318 9814768 9720899 9654965 9607199 9556998 9482455 9372880 9234935 
1750.176 9089116 8958330 8856327 8782783 8727066 8678793 8635561 8603824 
1754.033 8594091 8612375 8653780 8702117 8735213 8737918 8709216 8665644 
1757.890 8630626 8623528 8648743 8694917 8740386 8765438 8761617 8736769 
1761.748 8710434 8702117 8721421 8762970 8812233 8855212 8886256 8909592 
1765.605 8935297 8971591 9019524 9070609 9112294 9135980 9143289 9145759 
1769.463 9158449 9189854 9235747 9278260 9294203 9269087 9206133 9128265 
1773.320 9064925 9037454 9047975 9082587 9119771 9143830 9150836 9149380 
1777.177 9153948 9175776 9215170 9260794 9294982 9304190 9287163 9256360 
1781.035 9231990 9230027 9253957 9293932 9332829 9355105 9355884 9342511 
1784.892 9331069 9335436 9360285 9398950 9439177 9471009 9493020 9513003 
1788.750 9543078 9591650 9656490 9723948 9773389 9788435 9765357 9717342 
1792.607 9667704 9638061 9636841 9657507 9685356 9707244 9719104 9726862 
1796.465 9741637 9772372 9819750 9874353 9921743 9949168 9953203 9941235 
1800.322 9928048 9925980 9939675 9963203 9985547 9997820 9999074 9996464 
1804.179 10002262 10025386 10066519 10117455 10166093 10203032 10226675 
1807.555 10244147 10266674 10303248 10354790 10413329 10466955 10506907 
1810.930 10532944 10554229 10583494 10630248 10695582 10771966 10847717 
1814.305 10914341 10971053 11025664 11089325 11169789 11266454 11369808 
1817.680 11466211 11544704 11602961 11647476 11689068 11736077 11788743 
1821.056 11839406 11876998 11892662 11884286 11857009 11819691 11780299 
1824.431 11741184 11700165 11654079 11604152 11557328 11524288 11512719 
1827.806 11522144 11541572 11553653 11540756 11495946 11427293 11355216 
1831.181 11301549 11278798 11285362 11308588 11332089 11344163 11343686 
1834.557 11338823 11341816 11360726 11394331 11432090 11461380 11473797 
1837.932 11471416 11465803 11472743 11503805 11560492 11634032 11710241 
1841.307 11776861 11826910 11861267 11885000 11903253 11916501 11922291 
1844.682 11918101 11906931 11898316 11904548 11933870 11986662 12053427 
1848.058 12119384 12171109 12202868 12219499 12234188 12260976 12306615 
1851.433 12368180 12434697 12494608 12541841 12579665 12618071 12668047 
1854.808 12733177 12806985 12875481 12924290 12946172 12945215 12933576 
1858.183 12925860 12930742 12946990 12964674 12972457 12964982 12946274 
1861.559 12928489 12924120 12940607 12975564 13019059 13059725 13091652 
1864.934 13117639 13146975 13189224 13246848 13312339 13371107 13409004 
1868.309 13420075 13412421 13403160 13411362 13445433 13500768 13562092 
1871.684 13613748 13645579 13658948 13663633 13672112 13692116 13721833 
1875.060 13751176 13768311 13766738 13749500 13727715 13714207 13716704 
1878.435 13734248 13758153 13777614 13786677 13788011 13790645 13804360 
1881.810 13833674 13874347 13916633 13950710 13972575 13988349 14010626 
1885.185 14052103 14118057 14203501 14294440 14376699 14440476 14485899 
1888.561 14522214 14562027 14613905 14679568 14753090 14827173 14898046 
1891.936 14967489 15040888 15122362 15210029 15296271 15369692 15422422 
1895.311 15454661 15477082 15505616 15552868 15624030 15712967 15807590 
1898.686 15895704 15972834 16043654 16119057 16209332 16317241 16436394 
1902.062 16554236 16659614 16747590 16822806 16895004 16972796 17057460 
1905.437 17140070 17205806 17241520 17241832 17212838 17168060 17122596 
1908.812 17086512 17060216 17038850 17016280 16992780 16975276 16975758 
1912.187 17003358 17060182 17139278 17228834 17316996 17398520 17475020 
1915.563 17552882 17636174 17723590 17806500 17875064 17924198 17959318 
1918.938 17994092 18044830 18120856 18219704 18327144 18424862 18499264 
1922.313 18548434 18583326 18621992 18679788 18761326 18857756 18952894 
1925.688 19032268 19090880 19135408 19179904 19237222 19312526 19400140 
1929.063 19488362 19565822 19630504 19689752 19756256 19839904 19940980 
1932.439 20048258 20146642 20223040 20275356 20313062 20352644 20407302 
1935.814 20480064 20561558 20636466 20692236 20726782 20749580 20777038 
1939.189 20822642 20888208 20962336 21024826 21058596 21056928 21028270 
1942.564 20989876 20959728 20946376 20944916 20943524 20931216 20907016 
1945.940 20880870 20868424 20881010 20919220 20970786 21017628 21044684 
1949.315 21049344 21042320 21042736 21066318 21117172 21185076 21252506 
1952.690 21303310 21331986 21345872 21359654 21386838 21429372 21477274 
1956.065 21513936 21527758 21517208 21496632 21485386 21501506 21548926 
1959.441 21617214 21686382 21740582 21776220 21803882 21840326 21899178 
1962.816 21980696 22072478 22154930 22213548 22247202 22269384 22300880 
1966.191 22356866 22438816 22532300 22616240 22673556 22700054 22706584 
1969.566 22709830 22722294 22742266 22756092 22745828 22701764 22628876 
1972.942 22548458 22486096 22461984 22478246 22520818 22568386 22607268 
1976.317 22638544 22677118 22741496 22840492 22962882 23084150 23174662 
1979.692 23216466 23211466 23179974 23148240 23136814 23152260 23185078 
1983.067 23220520 23246526 23261906 23276834 23304976 23352806 23415850 
1986.443 23478976 23525074 23545782 23546936 23544768 23559074 23600914 
1989.818 23665920 23737586 23794246 23823542 23826972 23820182 23821828 
1993.193 23846014 23891206 23943862 23985880 24006118 24005944 23998834 
1996.568 24002092 24025132 24065090 24106558 24130972 24126454 24096226 
1999.944 24056404 24029756 24031156 24062360 24110656 24158854 24191748 
2003.319 24207128 24213644 24225662 24251132 24287958 24321772 24336280 
2006.694 24322790 24286730 24244334 24215046 24209020 24221772 24236138 
2010.069 24233438 24205622 24161168 24121584 24110902 24141936 24209896 
2013.445 24294124 24368452 24414364 24430348 24428702 24429298 24444052 
2016.820 24471816 24497652 24504314 24480614 24433538 24382960 24354958 
2020.195 24366104 24417624 24493830 24574152 24642530 24695768 24744662 
2023.570 24805630 24888466 24990760 25096834 25185450 25241774 25263792 
2026.946 25260912 25249148 25240860 25238612 25235768 25222318 25194228 
2030.321 25157360 25126814 25117090 25134644 25173652 25218176 25251394 
2033.696 25264142 25259612 25249920 25249498 25263054 25285250 25301686 
2037.071 25298948 25272256 25228534 25181552 25146196 25128326 25121724 
2040.447 25112352 25087460 25043232 24988302 24939732 24912432 24913624 
2043.822 24936680 24965912 24985108 24986302 24973808 24962018 24964754 
2047.197 24989390 25031052 25076790 25110456 25123760 25117970 25102802 
2050.572 25089814 25086128 25091884 25101924 25110702 25118108 25129308 
2053.948 25153218 25196510 25258910 25331400 25400530 25454878 25490508 
2057.323 25513276 25534958 25567112 25614768 25673784 25733828 25782560 
2060.698 25813994 25828586 25834212 25838186 25845570 25854714 25860480 
2064.073 25857176 25844832 25828972 25818810 25821448 25838010 25861606 
2067.448 25882778 25892414 25887912 25874232 25860974 25856824 25864526 
2070.824 25879858 25893364 25897550 25889636 25873704 25858124 25850424 
2074.199 25853130 25861748 25867902 25864420 25849686 25828726 25810618 
2077.574 25802952 25807734 25820042 25830836 25830872 25816596 25791032 
2080.949 25762342 25737660 25720644 25708622 25694876 25672520 25639022 
2084.325 25596562 25551790 25510886 25476348 25446446 25416092 25381104 
2087.700 25340532 25298314 25259682 25229200 25207044 25188504 25167612 
2091.075 25140542 25108876 25079844 25062538 25064048 25084934 25119898 
2094.450 25158344 25191066 25213154 25225480 25232572 25238788 25244582 
2097.826 25246304 25238752 25218386 25186536 25149390 25114880 25088480 
2101.201 25069628 25052218 25028454 24992480 24944470 24891062 24841626 
2104.576 24804892 24783424 24774758 24772198 24770794 24768340 24767498 
2107.951 24772128 24784476 24802120 24818854 24826890 24822154 24806682 
2111.327 24788124 24775846 24776442 24789422 24808366 24823240 24825206 
2114.702 24811558 24786056 24756412 24730280 24711340 24698784 24688858 
2118.077 24677880 24665080 24653436 24646424 24645792 24649018 24649580 
2121.452 24639794 24615914 24579552 24537618 24499334 24472026 24456566 
2124.828 24448994 24442440 24431680 24417274 24404832 24401082 24411526 
2128.203 24435010 24464630 24491060 24506556 24509150 24503506 24497932 
2131.578 24499160 24509816 24527100 24545542 24561566 24576746 24596382 
2134.953 24628012 24674444 24731682 24789176 24834608 24860396 24867026 
2138.329 24863028 24859378 24865168 24881624 24901484 24915764 24916642 
2141.704 24905062 24888816 24879448 24885588 24908186 24941100 24973772 
2145.079 24998480 25015118 25030806 25055448 25094904 25146546 25199634 
2148.454 25240156 25256838 25247848 25220422 25186714 25155604 25129132 
2151.830 25099784 25056920 24991110 24901484 24795070 24685666 24586038 
2155.205 24504102 24441424 24399362 24382084 24401256 24472130 24604728 
2158.580 24795034 25022452 25254170 25455476 25605244 25700360 25752534 
2161.955 25780238 25798804 25813782 25821448 25816420 25795216 25764310 
2165.331 25736290 25724442 25735270 25764416 25798064 25821202 25822924 
2168.706 25801722 25765472 25726024 25691466 25663486 25636982 25605174 
2172.081 25565390 25522588 25486536 25469038 25475152 25501188 25535098 
2175.456 25561946 25570556 25558502 25531162 25496410 25460080 25422206 
2178.832 25377276 25319740 25248760 25170528 25098416 25044952 25016836 
2182.207 25011678 25019436 25027544 25028490 25021750 25013256 25010134 
2185.582 25016416 25027262 25034106 25027438 25003358 24965666 24925274 
2188.957 24893940 24878782 24878816 24885694 24888466 24880114 24859308 
2192.333 24832082 24805490 24785352 24772164 24761604 24747958 24728142 
2195.708 24703168 24677390 24654244 24634010 24611460 24580182 24534358 
2199.083 24475216 24410158 24352576 24314202 24301202 24311260 24336876 
2202.458 24368276 24400204 24432556 24470484 24519038 24579412 24646738 
2205.833 24711024 24762760 24796684 24813524 24820048 24824294 24831802 
2209.209 24843834 24857448 24868886 24877694 24887306 24903694 24931206 
2212.584 24970052 25013574 25052218 25076544 25081706 25069804 25048638 
2215.959 25026596 25009538 24998376 24990232 24980828 24968754 24955242 
2219.334 24944786 24941066 24944120 24950224 24953102 24946996 24930714 
2222.710 24907518 24882288 24859378 24838466 24815066 24781880 24734418 
2226.085 24673006 24605254 24542316 24493480 24463998 24450958 24446716 
2229.460 24442196 24431258 24412754 24390356 24369082 24351174 24336352 
2232.835 24320790 24300502 24274292 24244930 24216692 24194620 24179136 
2236.211 24167402 24153460 24132022 24100884 24062850 24022996 23987838 
2239.586 23961158 23943302 23931572 23923590 23918058 23915854 23918934 
2242.961 23928316 23941482 23954366 23961298 23959372 23948868 23935284 
2246.336 23924782 23922470 23928738 23940152 23949848 23952720 23945964 
2249.712 23931854 23915048 23900834 23891802 23887672 23886586 23886972 
2253.087 23889352 23896844 23912458 23937246 23968896 24000936 24025272 
2256.462 24036304 24032242 24016378 23994598 23972784 23953736 23936440 
2259.837 23917464 23892922 23861346 23824032 23783780 23743288 23703326 
2263.213 23662212 23617636 23568484 23515910 23464636 23419872 23385148 
2266.588 23360918 23344240 23329730 23313576 23294348 23273792 23255718 
2269.963 23243134 23236494 23233138 23229084 23220450 23206222 23187804 
2273.338 23168022 23150058 23134962 23121438 23107528 23091630 23074402 
2276.714 23058154 23046170 23039776 23038972 23040860 23041104 23036352 
2280.089 23025626 23009450 22990340 22969728 22947930 22923584 22895360 
2283.464 22862564 22826944 22791394 22759304 22732524 22710948 22691362 
2286.839 22670868 22646468 22617670 22585768 22552996 22521342 22491262 
2290.215 22461532 22430966 22398520 22364820 22331610 22300846 22273046 
2293.590 22247796 22222860 22196636 22168706 22140286 22114488 22093776 
2296.965 22079554 22070802 22064982 22059544 22052816 22045738 22040508 
2300.340 22040544 22047586 22061948 22081890 22105352 22130908 22158524 
2303.716 22189522 22225058 22265060 22307924 22350692 22390286 22425628 
2307.091 22457798 22489796 22525216 22566432 22613202 22663782 22714402 
2310.466 22762062 22805468 22844614 22880586 22914362 22946044 22974828 
2313.841 23000192 23022902 23045016 23070174 23101694 23141216 23187874 
2317.217 23238346 23288616 23334694 23374482 23407632 23435048 23457886 
2320.592 23476072 23488488 23493420 23488452 23472680 23445856 23408122 
2323.967 23360918 23305850 23245058 23182490 23122730 23071118 23032370 
2327.342 23008682 22998934 22998864 23002846 23004804 23001310 22991806 
2330.718 22978670 22964872 22953204 22944822 22939546 22937066 22937346 
2334.093 22942096 22953030 22971230 22995440 23022236 23046554 23063920 
2337.468 23072374 23072586 23067694 23061264 23056198 23052634 23049700 
2340.843 23044842 23036982 23025346 23009588 22987824 22955790 22906992 
2344.219 22835080 22736608 22614318 22478070 22343994 22229732 22150400 
2347.594 22116368 22131084 22192242 22293486 22426362 22580812 22745722 
2350.969 22910590 23065668 23203182 23318890 23413228 23489608 23552848 
2354.344 23607630 23655668 23695766 23724496 23738180 23735416 23717252 
2357.719 23686984 23648740 23605988 23560124 23511152 23458656 23402458 
2361.095 23343506 23283232 23221848 23158446 23090684 23015844 22933050 
2364.470 22843530 22751064 22660362 22575400 22497158 22424058 22352714 
2367.845 22279708 22203192 22124146 22044204 21965988 21890118 21815830 
2371.220 21740930 21663742 21583854 21502166 21420846 21341140 21262944 
2374.596 21184762 21104300 21020026 20932050 20842664 20755244 20672880 
2377.971 20597412 20528764 20465304 20405220 20347402 20291950 20239980 
2381.346 20192666 20150530 20113080 20079142 20047946 20019390 19993888 
2384.721 19972550 19956142 19944068 19935256 19928110 19921518 19915866 
2388.097 19912674 19913854 19920618 19932412 19947190 19961552 19972932 
2391.472 19979836 19982854 19983896 19984972 19987260 19990454 19993124 
2394.847 19993888 19992224 19988926 19985596 19983722 19984208 19986392 
2398.222 19989168 19991286 19992084 19991910 19991598 19991702 19991770 
2401.598 19990592 19986220 19977686 19965128 19950036 19934944 19922214 
2404.973 19912950 19907402 19904660 19903898 19904660 19907228 19911598 
2408.348 19917564 19923740 19928630 19930712 19930262 19928770 19929326 
2411.723 19934494 19945596 19961794 19980010 19996420 20008600 20015574 
2415.099 20018764 20021088 20025218 20032228 20041666 20052180 20061860 
2418.474 20070396 20078100 20086152 20095278 20104962 20113324 20118078 
2421.849 20117282 20110514 20098956 20084590 20069114 20053740 20038368 
2425.224 20022374 20005440 19988786 19973418 19961380 19953158 19947954 
2428.600 19943686 19938380 19930818 19921796 19913506 19908476 19908026 
2431.975 19911598 19916454 19919230 19916802 19908060 19893874 19876634 
2435.350 19858736 19841776 19825926 19810354 19794436 19777930 19761284 
2438.725 19745022 19728968 19711976 19692630 19669472 19642812 19614974 
2442.101 19589530 19569808 19557678 19552338 19550434 19548146 19541596 
2445.476 19529708 19513626 19496332 19480876 19469476 19462372 19458768 
2448.851 19457348 19456966 19457312 19458524 19459530 19458906 19454194 
2452.226 19443208 19425122 19401352 19375020 19350250 19330814 19318206 
2455.602 19312144 19310306 19310064 19309408 19307606 19304870 19302410 
2458.977 19300850 19300712 19302098 19305354 19310688 19318656 19329290 
2462.352 19341590 19353750 19363866 19370552 19373876 19375748 19379214 
2465.727 19387492 19402530 19424116 19450382 19478348 19505308 19529568 
2469.103 19550780 19569184 19585266 19599028 19610328 19618718 19625132 
2472.478 19630610 19636778 19644510 19653210 19660700 19664026 19660596 
2475.853 19649536 19632168 19611716 19592026 19576082 19565094 19558508 
2479.228 19554662 19551750 19549324 19547728 19548042 19551162 19557296 
2482.604 19565822 19576118 19587798 19601628 19618476 19638894 19662640 
2485.979 19687776 19711700 19732192 19748142 19759862 19769294 19778172 
2489.354 19787848 19797418 19805674 19810286 19810424 19806922 19801962 
2492.729 19798494 19799638 19806124 19817914 19832862 19849094 19864634 
2496.104 19878020 19887940 19893352 19893352 19887282 19875420 19859742 
2499.480 19843406 19829602 19821660 19820896 19827000 19838274 19852528 
2502.855 19868482 19885548 19903898 19923706 19944032 19962594 19976402 
2506.230 19983062 19981120 19971822 19957530 19941328 19926064 19912986 
2509.605 19901746 19891306 19881074 19870496 19860020 19850376 19841256 
2512.981 19832030 19821036 19806748 19788368 19766452 19742732 19719398 
2516.356 19698038 19679872 19664894 19653210 19644648 19639518 19638234 
2519.731 19640592 19645584 19651652 19656470 19658620 19657406 19653350 
2523.106 19647352 19640316 19631718 19620626 19604784 19583152 19555564 
2526.482 19523850 19490406 19457796 19427374 19399308 19372458 19345470 
2529.857 19317824 19290216 19263926 19240200 19219628 19201238 19183056 
2533.232 19163006 19139736 19113318 19085238 19057504 19031574 19008174 
2536.607 18986608 18965562 18943828 18920742 18896134 18871114 18846372 
2539.983 18823118 18802014 18783676 18768764 18757726 18749976 18744788 
2543.358 18740568 18734824 18726038 18713168 18696496 18677678 18658688 
2546.733 18641152 18626418 18614452 18605564 18599754 18597506 18599614 
2550.108 18606670 18618498 18633336 18649176 18663878 18676330 18686742 
2553.484 18696598 18707738 18721332 18737418 18754682 18771600 18786650 
2556.859 18799764 18812254 18825922 18842080 18861702 18883746 18906690 
2560.234 18928668 18948810 18966704 18983078 18998792 19014162 19029324 
2563.609 19044038 19057990 19071458 19085238 19100126 19116398 19134162 
2566.985 19152894 19172114 19191680 19212148 19234348 19259286 19286788 
2570.360 19316128 19345572 19373462 19398546 19420720 19440436 19458664 
2573.735 19475298 19490060 19501842 19510022 19514354 19516328 19517818 
2577.110 19520904 19526726 19535148 19544888 19553968 19560448 19563362 
2580.486 19562840 19559688 19554316 19547418 19538858 19528806 19517508 
2583.861 19506486 19496886 19490684 19488570 19490474 19495882 19503610 
2587.236 19513280 19524716 19538060 19553622 19571160 19589288 19606758 
2590.611 19622358 19635808 19647940 19660700 19675780 19694400 19716416 
2593.987 19740790 19765688 19789234 19810286 19828284 19842678 19853638 
2597.362 19861062 19865118 19866470 19866192 19866020 19866784 19868864 
2600.737 19871224 19871708 19868412 19859950 19846804 19830956 19815522 
2604.112 19803002 19794610 19789652 19786044 19781120 19773076 19761492 
2607.488 19747380 19732538 19718392 19705738 19694364 19683270 19671968 
2610.863 19660630 19649570 19639830 19631786 19625132 19619204 19612964 
2614.238 19605960 19598336 19591368 19585996 19583120 19582322 19582632 
2617.613 19582668 19581074 19577190 19571160 19563154 19553864 19543536 
2620.989 19532064 19519412 19506070 19492382 19479318 19467362 19456862 
2624.364 19447506 19438600 19429590 19420096 19410188 19400104 19389712 
2627.739 19378972 19366948 19353782 19339614 19325654 19313634 19305422 
2631.114 19301786 19302548 19306012 19310032 19312490 19312836 19311312 
2634.490 19309858 19310378 19314500 19322916 19335596 19351532 19369928 
2637.865 19389780 19410570 19431844 19452842 19472766 19490856 19506800 
2641.240 19521148 19534420 19548006 19562426 19577780 19593516 19608666 
2644.615 19623016 19636778 19650786 19666004 19682956 19701402 19719882 
2647.990 19736942 19751332 19762742 19772070 19780808 19790310 19801546 
2651.366 19813718 19825476 19835256 19841706 19844412 19843786 19840840 
2654.741 19836746 19832134 19827486 19823222 19819440 19816978 19816736 
2658.116 19818886 19823880 19831198 19840042 19850134 19861198 19873928 
2661.491 19888946 19907298 19928770 19953088 19979178 20006030 20032990 
2664.867 20059812 20086568 20113358 20139736 20164934 20187842 20207698 
2668.242 20223908 20236856 20247304 20256262 20264212 20271538 20277612 
2671.617 20282092 20284730 20285564 20285286 20284486 20283584 20283028 
2674.992 20283098 20284140 20286710 20292332 20301776 20316012 20334902 
2678.368 20357576 20382750 20409246 20435852 20462384 20489026 20516188 
2681.743 20544084 20572606 20601338 20629656 20657314 20684000 20709996 
2685.118 20735712 20761084 20786144 20810928 20835678 20860812 20887338 
2688.493 20915638 20946654 20980626 21017106 21056336 21098422 21143852 
2691.869 21193496 21247808 21306964 21370514 21437414 21506450 21577166 
2695.244 21649636 21724662 21803742 21887818 21977524 22072616 22172368 
2698.619 22275698 22381740 22489340 22597740 22705430 22810738 22911392 
2701.994 23005432 23091278 23168232 23236108 23295014 23344938 23385498 
2705.370 23415536 23434526 23442114 23439352 23428126 23411024 23390322 
2708.745 23368050 23344974 23321338 23297146 23272814 23248764 23226112 
2712.120 23205910 23188504 23174138 23162674 23153414 23146844 23143208 
2715.495 23143068 23147018 23155196 23167358 23183016 23202030 23224714 
2718.871 23251456 23282778 23318368 23357036 23396828 23435470 23471176 
2722.246 23502932 23531126 23557186 23582198 23607246 23632016 23655632 
2725.621 23676382 23693142 23705424 23713720 23719212 23723238 23727052 
2728.996 23731076 23735450 23739474 23743044 23745598 23747034 23747242 
2732.372 23746648 23745424 23744200 23743428 23743744 23745424 23748328 
2735.747 23752212 23756342 23760262 23763832 23767368 23771706 23777762 
2739.122 23785986 23796942 23810066 23825466 23843144 23863588 23887742 
2742.497 23916834 23951600 23992286 24038510 24089432 24143758 24200752 
2745.873 24259436 24319530 24381034 24443528 24507048 24571242 24636498 
2749.248 24703238 24772128 24843906 24919170 24997956 25080266 25165786 
2752.623 25254556 25346608 25442196 25541494 25644646 25751478 25861572 
2755.998 25974332 26089374 26206522 26325566 26446160 26567842 26689806 
2759.374 26811734 26933026 27053998 27174970 27296328 27418390 27540628 
2762.749 27662124 27781074 27896738 28008260 28115642 28219688 28320930 
2766.124 28419686 28515634 28607992 28695698 28778146 28854874 28926090 
2769.499 28992324 29054172 29112170 29166950 29219186 29269796 29320236 
2772.875 29371640 29424716 29479394 29535000 29590544 29645206 29698918 
2776.250 29752778 29808526 29868080 29933038 30004216 30081622 30164832 
2779.625 30253670 30348032 30448566 30555590 30669220 30789000 30914110 
2783.000 31043210 31175656 31311278 31450930 31595368 31745236 31900544 
2786.375 32059792 32221310 32382640 32541744 32697406 32848764 32995776 
2789.751 33138764 33277504 33412532 33543590 33671112 33795660 33917912 
2793.126 34038480 34158336 34278144 34398240 34519196 34641476 34765188 
2796.501 34889908 35014768 35138264 35258600 35374220 35484156 35588440 
2799.876 35687604 35783300 35876928 35969284 36061224 36152500 36242572 
2803.252 36330536 36415276 36495632 36570600 36639308 36701248 36756380 
2806.627 36805464 36849968 36890944 36929864 36966988 37001912 37033736 
2810.002 37061664 37084832 37104288 37120888 37136912 37153804 37172968 
2813.377 37195024 37219676 37246504 37275164 37305748 37338208 37372440 
2816.753 37408768 37445900 37482776 37517780 37549568 37576916 37599352 
2820.128 37616696 37629376 37637652 37642456 37644484 37644264 37642208 
2823.503 37638340 37632376 37623308 37610952 37595344 37577132 37558092 
2826.878 37540536 37526880 37519080 37518788 37526232 37541476 37564524 
2830.254 37595196 37634036 37681304 37737684 37803104 37877392 37960588 
2833.629 38052776 38154928 38268644 38396072 38539580 38700668 38880260 
2837.004 39078156 39293448 39524852 39771740 40033844 40311480 40605820 
2840.379 40917684 41247952 41597324 41966064 42354044 42761120 43187136 
2843.755 43630936 44090956 44563620 45043340 45522192 45989564 46432696 
2847.130 46838120 47191172 47478120 47687156 47808204 47834692 47763816 
2850.505 47596748 47338392 46997736 46587040 46119868 45610916 45074584 
2853.880 44522684 43964448 43406160 42851000 42300352 41754152 41212504 
2857.256 40675348 40143512 39618420 39101508 38595092 38101348 37623020 
2860.631 37163872 36726884 36316128 35934584 35584196 35265896 34979392 
2864.006 34723264 34496092 34295896 34121304 33970868 33843580 33738572 
2867.381 33654924 33592060 33549462 33526052 33521074 33532564 33558052 
2870.757 33594816 33639208 33687796 33737464 33785484 33830436 33871020 
2874.132 33907416 33940056 33970652 34001072 34033320 34069196 34110160 
2877.507 34156612 34207944 34263336 34321136 34380412 34440096 34499248 
2880.882 34557512 34614060 34668136 34719172 34766300 34809880 34850340 
2884.258 34888760 34926244 34963880 35001948 35040272 35077916 35113944 
2887.633 35147500 35178072 35205384 35229600 35251196 35270532 35287996 
2891.008 35304204 35319408 35333928 35348056 35361640 35374220 35385508 
2894.383 35394964 35401972 35406320 35408120 35407724 35405460 35402260 
2897.759 35399028 35396688 35396548 35399424 35406216 35416964 35431560 
2901.134 35449572 35470604 35494800 35522740 35555788 35595564 35643468 
2904.509 35701416 35770992 35853896 35952076 36068208 36205260 36366888 
2907.884 36556940 36778992 37036984 37334380 37674476 38059828 38491064 
2911.260 38967236 39483340 40032024 40601852 41178948 41749044 42296624 
2914.635 42807412 43269236 43671748 44007088 44270960 44461636 44580916 
2918.010 44633640 44627104 44570080 44471400 44340016 44182580 44004048 
2921.385 43807920 43595544 43367092 43121412 42856596 42569760 42257692 
2924.760 41917200 41546388 41144492 40712648 40254192 39773592 39276080 
2928.136 38767936 38255508 37744908 37243648 36759084 36298904 35871024 
2931.511 35482360 35138300 34842692 34597480 34402796 34256736 34156180 
2934.886 34096288 34070880 34073604 34097328 34135752 34183316 34235624 
2938.261 34289440 34342472 34393108 34440132 34483068 34521740 34556972 
2941.637 34589876 34622060 34655364 34690784 34729364 34771504 34817636 
2945.012 34868580 34925528 34990060 35064336 35150372 35250516 35366604 
2948.387 35500520 35652712 35822952 36008124 36202952 36398412 36584440 
2951.762 36748016 36876800 36960748 36991884 36966268 36883872 36747368 
2955.138 36561696 36332948 36068064 35773440 35456112 35122712 34779476 
2958.513 34433068 34089552 33754364 33432282 33127212 32841436 32575816 
2961.888 32329808 32101672 31888884 31689026 31500164 31321072 31151306 
2965.263 30990682 30839294 30696104 30560424 30430724 30306036 30185752 
2968.639 30070260 29960052 29856014 29758952 29668796 29585932 29510032 
2972.014 29441026 29379084 29324526 29277276 29237650 29205790 29182294 
2975.389 29168296 29165498 29175914 29201252 29242684 29299570 29370788 
2978.764 29454252 29547944 29650564 29761258 29880042 30006702 30140894 
2982.140 30281310 30426104 30572902 30719540 30864054 31004668 31139416 
2985.515 31266090 31382076 31484276 31570178 31637956 31686996 31718004 
2988.890 31732332 31731620 31716720 31688276 31646010 31589490 31518654 
2992.265 31434722 31339944 31238138 31134006 31032318 30937594 30853276 
2995.641 30781102 30721424 30673060 30634410 30603584 30579836 30563554 
2999.016 30556300 30560282 30577312 30608598 30653470 30710292 30776158 
3002.391 30848330 30924144 31002034 31080862 31160596 31240880 31321820 
3005.766 31403486 31486270 31570782 31657982 31748802 31843562 31941802 
3009.142 32042168 32143130 32242902 32340124 32434586 32527034 32618356 
3012.517 32709732 32802022 32895546 32990198 33085552 33181462 33277716 
3015.892 33374422 33471684 33569688 33668140 33767112 33866468 33966568 
3019.267 34067868 34171024 34276924 34386296 34499464 34616424 34736724 
3022.643 34859424 34983164 35106652 35228380 35347480 35463880 35577936 
3026.018 35690300 35802044 35913528 36024644 36134280 36241204 36343972 
3029.393 36442372 36537404 36630908 36725692 36824468 36928748 37038752 
3032.768 37153440 37270652 37388148 37504120 37617924 37730204 37842288 
3036.144 37956648 38075740 38201560 38335952 38479736 38633264 38796268 
3039.519 38967888 39146828 39331792 39521332 39714188 39909200 40104952 
3042.894 40299668 40490396 40673564 40844728 40999136 41132576 41242452 
3046.269 41328008 41391168 41435928 41468004 41493524 41518280 41546604 
3049.645 41581172 41622852 41671576 41726392 41786728 41852216 41922784 
3053.020 41998660 42079728 42165596 42255136 42346772 42439416 42531388 
3056.395 42622024 42710228 42795564 42877188 42954800 43028036 43097332 
3059.770 43163568 43228460 43293356 43359768 43428460 43498920 43570344 
3063.146 43641636 43711688 43780140 43847284 43913524 43979300 44044564 
3066.521 44108600 44170256 44228436 44282660 44332928 44380308 44425888 
3069.896 44470704 44515672 44560900 44606320 44651892 44697832 44745396 
3073.271 44796196 44852220 44915340 44986596 45066204 45153140 45245724 
3076.646 45341232 45437460 45531832 45622840 45709596 45792060 45870712 
3080.022 45946912 46021612 46095772 46169396 46242328 46313136 46380008 
3083.397 46440552 46492328 46533704 46563764 46582540 46591832 46593900 
3086.772 46592388 46590208 46590432 46595152 46605260 46620828 46641780 
3090.147 46667568 46698448 46734864 46777488 46827084 46883816 46947748 
3093.523 47018264 47094480 47175768 47261580 47351692 47445596 47542992 
3096.898 47642852 47743996 47844528 47942460 48036120 48123656 48204400 
3100.273 48277932 48344776 48406040 48463456 48519212 48575532 48634940 
3103.648 48699204 48769932 48848236 48934560 49028880 49130788 49239552 
3107.024 49354208 49474092 49599168 49730524 49871028 50024808 50198284 
3110.399 50398992 50634864 50914560 51246000 51636388 52092608 52620776 
3113.774 53225992 53912656 54683116 55537060 56470224 57473396 58531288 
3117.149 59619656 60706500 61751564 62704892 63514664 64127968 64495980 
3120.525 64583280 64369148 63851916 63048252 61992268 60731344 59316448 
3123.900 57803032 56242852 54678868 53149328 51684080 50304376 49025804 
3127.275 47856292 46797892 45846780 44995448 44234232 43552508 42941192 
3130.650 42392728 41900488 41459148 41063300 40707408 40386060 40094160 
3134.026 39826972 39581724 39355768 39147300 38954844 38776308 38609072 
3137.401 38450516 38297088 38145844 37994476 37841528 37686688 37530708 
3140.776 37375184 37221592 37071696 36926260 36784976 36647060 36511240 
3144.151 36376216 36241420 36106592 35972016 35837740 35703756 35569560 
3147.527 35434652 35298888 35162696 35027448 34894536 34765116 34639252 
3150.902 34515712 34392248 34265848 34134248 33996236 33852180 33703512 
3154.277 33552538 33401150 33250816 33102110 32955096 32809276 32664612 
3157.652 32521032 32378748 32237868 32098282 31960062 31822882 31686854 
3161.028 31551968 31418268 31285814 31154546 31024346 30894862 30766164 
3164.403 30638002 30510374 30383104 30255658 30127256 29997152 29865206 
3167.778 29732020 29598808 29467302 29339130 29215182 29095588 28979110 
3171.153 28864292 28749894 28635242 28520694 28407094 28295788 28187478 
3174.529 28082272 27979600 27878294 27777154 27675366 27572368 27468298 
3177.904 27363406 27258470 27154300 27051636 26951286 26853782 26759048 
3181.279 26666448 26574958 26483454 26390702 26296488 26200926 26104854 
3184.654 26008876 25913762 25819584 25725708 25631358 25535766 25438718 
3188.030 25340322 25241422 25142474 25044146 24946786 24850500 24755500 
3191.405 24661678 24569314 24478056 24387376 24296508 24204396 24109992 
3194.780 24013226 23914068 23813566 23712668 23612250 23512552 23413508 
3198.155 23314660 23215452 23116020 23016578 22918100 22821180 22726520 
3201.531 22634424 22544794 22457134 22371098 22286510 22203124 22120866 
3204.906 22039638 21959470 21880222 21801896 21724698 21648766 21574522 
3208.281 21502028 21431600 21363170 21296768 21232116 21168654 21105588 
3211.656 21041938 20976488 20908754 20838772 20767686 20697310 20630038 
3215.031 20567082 20509242 20455370 20403380 20350838 20295112 20235572 
3218.407 20172152 20106072 20039340 19973382 19909274 19847290 19787084 
3221.782 19728136 19670372 19613518 19557884 19503300 19449688 19397022 
3225.157 19345052 19293854 19243248 19193308 19143962 19094862 19045976 
3228.532 18997408 18949884 18904440 18862568 18824918 18791184 18759872 
3231.908 18728598 18694524 18655230 18609956 18559188 18504970 18449514 
3235.283 18394892 18342664 18293104 18246276 18202082 18160760 18122654 
3238.658 18088454 18058612 18032948 18010634 17990364 17970506 17949580 
3242.033 17926132 17899060 17867952 17832910 17794936 17755310 17715996 
3245.409 17678620 17643836 17611330 17579758 17546912 17510862 17470468 
3248.784 17425938 17378724 17330892 17284308 17240074 17198532 17158822 
3252.159 17120286 17082582 17045260 17008838 16973278 16938240 16903032 
3255.534 16866724 16828626 16788848 16748417 16708540 16670182 16633861 
3258.910 16598986 16564563 16529385 16493108 16455768 16418191 16381407 
3262.285 16345762 16311083 16276751 16242042 16206857 16171638 16138213 
3265.660 16108019 16082780 16063046 16048467 16037809 16029626 16021755 
3269.035 16012471 15999924 15982667 15959498 15929937 15894260 15853707 
3272.411 15809927 15765360 15721692 15679849 15640244 15602392 15565678 
3275.786 15529378 15493735 15458815 15424619 15391147 15358055 15324931 
3279.161 15291706 15258896 15227702 15199048 15173759 15151422 15131111 
3282.536 15110938 15089257 15065380 15039413 15012488 14986009 14960905 
3285.912 14937310 14914985 14893416 14872877 14854499 14839859 14830499 
3289.287 14827070 14828236 14831219 14832041 14826762 14813425 14791518 
3292.662 14763305 14732078 14701846 14674976 14652596 14633096 14614145 
3296.037 14592557 14565556 14532115 14492374 14448354 14402387 14357794 
3299.413 14317144 14282626 14255610 14237259 14227843 14227535 14235717 
3302.788 14250714 14269786 14288687 14302692 14306836 14297419 14272491 
3306.163 14232636 14180358 14119563 14054568 13988554 13923989 13861519 
3309.538 13801281 13743310 13687808 13636108 13589851 13550161 13517448 
3312.914 13491095 13469392 13450389 13432003 13412660 13392054 13370663 
3316.289 13349341 13329661 13312783 13300039 13292011 13288902 13290234 
3319.664 13295359 13303387 13313261 13324399 13336358 13349171 13363112 
3323.039 13378078 13393592 13409141 13424108 13437778 13449671 13460197 
3326.415 13469187 13476774 13482687 13486549 13488498 13488975 13489386 
3329.790 13491470 13496939 13506955 13521207 13538367 13555836 13571185 
3333.165 13582432 13588654 13590295 13588141 13583355 13576107 13566638 
3336.540 13553989 13537102 13515431 13488531 13456472 13419700 13378488 
3339.916 13333214 13284426 13232706 13178533 13122694 13065530 13007315 
3343.291 12947503 12885412 12820805 12753582 12685003 12616503 12550504 
3346.666 12488742 12432856 12383282 12339646 12300479 12263498 12225769 
3350.041 12184433 12136387 12079795 12014014 11940443 11861743 11782070 
3353.417 11705747 11636211 11575328 11523097 11478152 11438519 11401781 
3356.792 11366814 11333041 11299645 11266285 11231941 11195288 11155545 
3360.167 11112406 11066960 11020567 10975539 10933708 10895994 10863004 
3363.542 10834502 10810213 10790138 10774513 10762931 10754643 10747544 
3366.917 10738951 10725604 10705023 10675784 10637956 10592933 10542789 
3370.293 10489662 10435491 10381802 10329952 10280889 10235700 10195229 
3373.668 10159614 10127698 10098057 10068994 10038983 10007720 9975680 
3377.043 9945032 9917234 9894081 9875675 9861337 9849101 9836798 9822665 
3380.901 9805279 9784470 9760511 9734487 9707447 9680681 9654797 9630675 
3384.758 9608419 9588432 9570853 9555949 9544467 9537253 9535119 9538641 
3388.615 9547549 9560319 9574071 9585486 9591041 9588195 9575798 9554391 
3392.473 9525940 9492784 9457700 9422584 9388386 9356054 9325516 9297589 
3396.330 9273183 9253347 9239166 9231212 9229113 9231348 9235511 9238590 
3400.188 9237845 9230839 9216117 9193509 9163525 9128096 9089218 9049091 
3404.045 9009375 8971658 8936582 8904316 8874995 8848922 8825792 8805809 
3407.903 8789207 8775987 8766182 8759454 8755059 8752050 8748973 8744308 
3411.760 8736498 8724327 8707560 8687142 8664528 8642355 8622684 8607474 
3415.617 8596964 8590610 8586926 8584121 8580911 8576348 8570299 8562459 
3419.475 8552929 8541035 8526267 8508257 8487240 8464266 8440684 8418251 
3423.332 8397982 8380619 8365654 8352482 8340761 8330527 8322522 8317522 
3427.190 8315867 8316881 8319042 8319719 8316577 8307864 8292834 8272537 
3431.047 8248864 8223943 8200509 8180149 8163909 8152227 8144597 8140309 
3434.905 8137844 8135617 8131802 8124678 8113639 8097907 8078193 8055543 
3438.762 8030903 8005286 7979300 7953246 7927127 7901178 7875535 7851108 
3442.619 7828302 7807351 7788089 7769772 7751254 7731420 7709261 7684607 
3446.477 7658335 7632032 7607719 7587556 7573562 7565976 7564190 7565909 
3450.334 7567898 7566887 7560279 7547062 7528249 7506471 7485233 7467435 
3454.192 7455064 7447952 7444177 7440637 7434233 7422436 7404168 7380104 
3458.049 7351593 7320793 7289793 7260344 7233694 7210752 7192021 7177771 
3461.906 7167666 7161164 7157291 7154899 7152508 7148937 7143211 7134655 
3465.764 7123035 7108283 7090803 7071067 7049850 7027523 7004895 6982133 
3469.621 6959843 6938059 6917994 6900353 6886517 6877226 6872783 6872143 
3473.479 6873792 6875274 6874264 6869787 6861539 6850364 6838044 6825893 
3477.336 6814146 6802770 6790384 6775879 6758581 6738658 6717155 6695148 
3481.194 6673748 6653055 6632667 6612111 6590950 6569454 6548296 6528416 
3485.051 6510590 6495185 6481564 6469188 6457013 6444604 6431859 6418844 
3488.908 6405360 6391473 6376947 6361615 6345913 6330582 6316798 6305770 
3492.766 6297769 6292727 6288894 6285364 6280288 6273128 6263850 6253295 
3496.623 6242303 6231916 6222438 6214270 6207245 6201700 6197431 6194406 
3500.481 6191885 6188289 6181802 6170375 6152597 6129006 6101585 6073561 
3504.338 6049202 6031865 6023499 6024407 6032739 6045707 6059886 6071949 
3508.196 6079912 6082768 6081021 6076115 6069832 6064355 6061095 6060558 
3512.053 6062406 6065766 6068723 6070067 6068387 6063347 6054947 6044296 
3515.910 6032537 6021147 6011774 6005929 6004820 6009187 6019367 6034821 
3519.768 6054544 6076820 6100073 6122991 6144632 6164662 6182945 6199347 
3523.625 6213732 6225497 6234101 6239177 6240925 6240118 6238101 6236354 
3527.483 6235715 6236689 6238942 6241698 6244387 6246673 6248690 6251345 
3531.340 6256085 6263951 6275817 6291550 6310746 6332263 6354520 6375602 
3535.198 6394062 6408857 6419517 6426982 6432397 6437844 6445882 6458190 
3539.055 6475779 6498683 6526264 6556604 6587452 6616787 6642524 6663183 
3542.912 6677718 6685457 6685895 6678862 6664697 6643904 6618099 6589705 
3546.770 6562054 6538205 6521387 6512776 6512574 6518090 6525625 6530872 
3550.627 6529527 6518864 6498179 6468751 6433372 6395407 6357681 6321975 
3554.485 6289600 6260858 6236253 6216152 6201128 6191247 6185399 6181567 
3558.342 6177400 6170107 6157974 6140835 6119832 6097317 6076182 6058609 
3562.199 6045976 6038820 6036165 6036602 6037274 6034250 6022827 5998336 
3566.057 5956815 5897462 5822805 5739766 5657012 5583503 5525209 5483766 
3569.914 5457057 5440348 5428035 5415520 5399887 5380328 5357852 5334069 
3573.772 5310690 5289224 5270174 5253874 5240560 5230466 5223692 5219701 
3577.629 5217488 5215744 5213028 5208635 5202431 5195356 5187978 5181708 
3581.487 5177114 5174231 5173023 5173459 5175672 5179260 5183385 5185765 
3585.344 5182747 5170743 5146031 5108078 5059133 5005065 4953685 4912163 
3589.201 4884886 4872555 4872689 4880328 4890515 4898892 4902411 4899731 
3593.059 4890616 4875704 4856505 4834692 4812948 4793651 4779312 4771741 
3596.916 4771305 4776833 4785208 4792813 4795393 4790066 4775861 4753987 
3600.774 4727724 4701664 4679927 4665994 4661674 4666966 4680698 4700626 
3604.631 4723705 4746416 4764606 4774086 4770803 4752546 4718881 4673228 
3608.489 4621352 4570955 4528666 4498232 4479250 4467700 4457256 4441689 
3612.346 4417053 4383381 4344724 4307644 4278732 4262403 4258923 4264210 
3616.203 4271136 4271939 4258588 4226334 4174109 4105734 4028541 3951763 
3620.061 3884995 3834181 3802326 3788455 3789491 3801290 3820376 3845179 
3623.918 3875400 3912476 3957146 4008643 4061918 4108276 4134802 4127175 
3627.776 4074728 3976574 3845346 3704935 3583979 3501535 3462589 3459283 
3631.633 3477152 3499931 3514294 3513526 3497125 3470171 3440379 3414797 
3635.490 3396998 3386846 3380702 3374491 3365341 3352319 3336726 3320799 
3639.348 3306843 3295725 3287779 3282571 3280000 3281102 3287746 3302069 
3643.205 3325574 3358396 3399002 3444020 3488775 3528324 3557353 3570750 
3647.063 3564135 3534437 3480692 3404645 3311384 3210164 3112305 3030050 
3650.920 2973699 2948545 2954650 2986944 3036690 3092416 3143243 3179222 
3654.778 3193007 3182493 3151486 3109903 3070058 3043297 3036056 3048902 
3658.635 3076665 3111204 3144744 3170511 3184863 3188034 3183327 3175818 
3662.492 3171078 3173815 3186832 3211499 3247317 3293054 3346542 3405380 
3666.350 3466297 3524883 3575694 3613280 3634396 3640343 3639575 3649398 
3670.207 3692872 3790627 3956143 4190468 4483903 4818644 5170576 5512994 
3674.065 5811690 6029950 6136197 6112977 5966792 5724020 5419949 5084410 
3677.922 4736969 4391514 4059075 3752291 3485635 3270286 3112105 3008263 
3681.780 2949746 2924260 2920724 2932933 2958453 2997286 3048836 3108735 
3685.637 3168808 3218075 3244246 3238672 3199115 3131261 3047234 2962256 
3689.494 2888335 2831334 2791549 2765672 2750033 2742897 2743464 2751300 
3693.352 2765238 2783212 2802654 2821229 2838071 2854214 2872091 2894472 
3697.209 2922525 2955317 2988712 3017805 3036090 3038892 3023544 2991347 
3701.067 2946910 2897874 2853180 2820629 2806289 2812058 2837538 2879095 
3704.924 2931298 2988812 3046100 3098089 3142208 3176385 3200117 3213302 
3708.781 3215639 3206125 3183461 3146347 3094151 3029216 2957652 2886934 
3712.639 2826432 2783746 2762971 2764271 2784179 2817294 2857082 2897674 
3716.496 2934834 2966426 2992415 3014469 3034989 3056243 3078667 3101927 
3720.354 3124219 3143743 3159497 3171545 3181258 3189903 3199182 3208262 
3724.211 3215138 3216840 3210298 3194476 3171846 3147548 3129726 3125655 
3728.069 3140005 3173214 3221480 3277196 3331517 3376895 3408853 3427421 
3731.926 3436639 3441682 3446224 3448929 3442750 3418304 3368080 3290751 
3735.783 3194309 3094051 3008263 2949779 2923793 2927695 2954283 2996619 
3739.641 3050304 3113674 3186098 3264777 3342302 3404846 3433533 3410489 
3743.498 3326375 3190871 3035656 2905213 2835070 2836404 2897874 2994784 
3747.356 3100392 3190370 3248619 3267815 3249287 3201051 3133631 3056577 
3751.213 2976468 2899042 2831001 2780978 2756568 2761637 2794050 2846076 
3755.071 2906413 2964157 3010365 3039960 3052506 3050571 3037091 3014335 
3758.928 2983741 2947210 2908482 2874959 2854914 2855214 2877895 2918789 
3762.785 2968528 3014736 3046867 3058779 3051072 3030785 3008363 2993550 
3766.643 2990513 2997053 3006461 3009831 2999655 2973265 2932933 2885900 
3770.500 2841106 2806222 2785746 2780244 2786880 2801220 2818961 2836170 
3774.358 2851312 2864320 2876827 2890769 2907181 2924960 2940839 2950346 
3778.215 2948612 2933333 2906513 2873992 2844475 2826032 2822863 2834736 
3782.073 2856949 2882231 2903611 2916420 2919289 2914119 2904612 2894839 
3785.930 2887267 2882764 2880530 2879863 2879829 2880429 2881630 2883531 
3789.787 2885866 2888668 2892704 2899242 2910550 2928596 2953582 2983474 
3793.645 3013668 3038158 3051405 3050371 3036690 3016637 2999788 2995351 
3797.502 3008697 3039159 3080269 3120148 3144878 3141541 3102761 3030451 
3801.360 2937503 2846209 2778577 2748132 2756635 2794183 2844475 2887934 
3805.217 2907381 2892804 2843074 2769140 2689683 2626376 2592709 2592309 
3809.074 2618842 2661779 2710755 2759136 2805288 2851512 2901377 2956118 
3812.932 3013134 3064986 3101426 3111838 3090914 3041729 2978236 2921024 
3816.789 2889035 2893305 2933033 2996486 3065553 3120248 3142408 3120949 
3820.647 3056577 2963490 2866721 2789948 2749233 2746632 2773908 2815860 
3824.504 2856849 2886167 2897974 2893872 2881363 2870323 2869356 2882097 
3828.362 2906981 2938637 2970563 2996686 3014202 3023177 3026814 3029717 
3832.219 3036123 3049703 3071526 3100725 3134232 3167140 3193308 3205758 
3836.076 3199716 3172480 3126422 3068023 3007629 2955183 2916887 2894572 
3839.934 2884565 2881597 2879562 2874659 2864820 2850111 2832168 2812592 
3843.791 2793216 2776776 2765605 2763171 2771941 2793950 2828966 2876027 
3847.649 2932733 2997186 3068423 3146013 3229325 3315290 3396263 3458548 
3851.506 3484667 3455275 3358730 3199416 3004092 2813092 2664979 2581176 
3855.364 2559911 2586576 2641377 2707587 2774142 2835036 2888701 2935201 
3859.221 2974733 3007229 3031886 3049136 3059347 3064485 3065954 3064485 
3863.078 3058412 3046901 3029650 3010632 2997353 2998020 3019240 3061182 
3866.936 3116143 3170377 3208395 3215805 3186298 3125121 3049036 2981205 
3870.793 2939438 2930464 2947711 2977435 3002825 3011866 3000556 2973499 
3874.651 2941906 2918555 2913518 2929997 2964858 3010165 3056944 3096287 
3878.508 3121817 3130294 3122718 3104296 3083172 3068723 3068790 3086710 
3882.365 3120248 3161332 3198715 3218876 3211199 3171779 3106332 3030417 
3886.223 2964291 2926161 2924693 2956751 3010198 3068590 3115242 3136501 
3890.080 3126589 3087277 3028749 2964758 2908915 2870690 2853246 2855047 
3893.938 2872391 2901177 2938370 2981672 3029450 3079001 3126722 3168608 
3897.795 3200317 3218910 3224050 3217775 3203889 3186599 3168808 3150518 
3901.653 3129726 3102828 3066755 3020875 2967627 2912251 2862185 2823831 
3905.510 2801386 2795484 2804021 2823097 2847743 2874292 2899675 2922225 
3909.367 2941639 2958186 2972998 2987077 3001590 3017538 3036123 3057511 
3913.225 3081570 3107099 3131728 3152788 3167740 3174115 3171378 3160097 
3917.082 3142442 3121349 3100125 3081237 3066788 3058379 3056744 3062350 
3920.940 3074897 3092416 3111705 3128525 3138370 3137702 3125488 3103862 
3924.797 3077733 3053808 3038358 3035322 3045332 3065353 3090948 3116711 
3928.655 3138270 3153222 3160998 3162567 3158962 3151153 3139905 3125821 
3932.512 3110270 3095219 3083339 3077166 3077967 3085275 3097155 3110370 
3936.369 3122150 3130294 3134265 3135233 3135166 3135366 3137035 3139204 
3940.227 3140172 3138170 3131195 3119080 3102761 3084440 3067122 3053407 
3944.084 3045199 3043130 3046734 3054375 3063851 3072627 3078234 3079401 
3947.942 3075297 3066755 3055376 3043430 3033087 3025813 3022443 3022376 
3951.799 3024545 3027781 3030751 3032519 3032820 3031585 3029283 3027081 
3955.656 3025546 3025913 3029350 3035823 3045432 3057178 3069357 3080269 
3959.514 3088211 3091949 3090948 3085375 3076064 3064219 3051138 3038158 
3963.371 3026614 3018139 3013868 3014969 3022076 3034989 3052573 3073295 
3967.229 3094752 3114274 3129693 3139371 3142442 3139471 3131762 3121717 
3971.086 3111604 3103929 3099824 3099824 3103128 3108401 3114241 3119914 
3974.944 3125087 3130994 3138770 3149584 3163301 3178822 3194142 3206225 
3978.801 3213135 3213269 3206926 3195611 3181792 3168308 3158095 3152754 
3982.658 3153322 3159196 3169142 3181025 3192273 3201218 3206592 3208862 
3986.516 3209229 3210031 3213202 3220412 3231294 3244780 3258668 3270853 
3990.373 3279833 3285709 3288948 3290984 3293121 3295992 3299832 3304272 
3994.231 3309113 3314522 3320565 3327377 3334722 3341801 3347143 3349881 
3998.088 3349614 3346642 3342101 3337360 3333186 3329513 
##END=
