
##TITLE=1132a_2_b
##JCAMP-DX=5.01  $$ Nicolet v. 1
##DATATYPE=INFRARED SPECTRUM
##ORIGIN=UniL
##OWNER=Nicolet
##LONGDATE=2011/09/21
##TIME=14:12:59
##SPECTROMETER/DATA SYSTEM=Nicolet iS5
##DATA PROCESSING=
Ratio against background
%Transmittance->Absorbance
Truncated
ElementMultiply or ElementDivide
##COMMENTS=
Number of sample scans: 32
Collection length: 51.20 sec
Sample gain: 2.0
Background collected on: Mer Sep 21 14:09:10 2011 (GMT+02:00);
Number of background scans: 32
Background gain: 2.0
Sample spacing:  1.000
Number of scan points: 12415
Resolution points: 8192
Number of FFT points: 65536
Apodization: N-B fort;
Phase correction: Mertz;
Laser frequency: 15798.0 cm-1
Number of rejected sample scans: 0
Number of rejected background scans: 0
Bench serial number: ASB1000141;
##RESOLUTION=4.000
##XUNITS=1/CM
##YUNITS=ABSORBANCE
##FIRSTX=649.893372
##LASTX=4000.122314
##FIRSTY=0.068377
##MAXX=4000.122314
##MINX=649.893372
##MAXY=0.321567
##MINY=0.002705
##XFACTOR=1.000000
##YFACTOR=1.000000E-009
##NPOINTS=6950
##DELTAX=0.482117
##ZPD=6100
##XYDATA=(X++(Y..Y))
649.893 68377336 69061248 69756432 70463488 71187736 71933016 72702776 
653.268 73502424 74342592 75242824 76225032 77308960 78507968 79825000 
656.643 81261688 82826128 84537912 86431040 88547296 90921632 93579752 
660.018 96533488 99779640 103300808 107053288 110952024 114844992 118524968 
663.393 121767176 124350232 126115712 126962632 126815392 125601216 
666.285 123247992 119756208 115304888 110345896 105526784 101399608 98219792 
669.660 95923040 94281216 93037968 91992904 91029648 90099888 89209176 
673.035 88389648 87679624 87105136 86674704 86384680 86226032 86192936 
676.410 86284960 86505440 86859496 87348040 87967480 88709592 89565432 
679.785 90530624 91609400 92816888 94174480 95707752 97439656 99385952 
683.159 101561592 103985840 106689088 109722768 113154840 117059400 
686.052 121513496 126585528 132334800 138820976 146099456 154204624 
688.945 163103824 172633712 182420880 191792304 199858048 205555200 
691.838 207841888 206024640 199886112 189811312 176671632 161700608 
694.730 146244512 131465552 118330040 107449744 99069624 93171976 89524432 
698.105 87795120 87620960 88706704 90866488 94013256 98125784 103160576 
701.480 108940792 115099352 121033632 125938016 129022848 129640952 
704.373 127494424 122728984 115900680 107843336 99407416 91371872 84273200 
707.747 78356344 73649264 70015672 67257808 65169908 63590424 62407016 
711.122 61534772 60908540 60469664 60163540 59951876 59814048 59746516 
714.497 59754312 59839828 59994408 60200304 60435392 60683444 60941212 
717.872 61216184 61520420 61861544 62237008 62635072 63042460 63451508 
721.247 63867264 64305828 64789096 65334060 65946892 66620224 67337664 
724.621 68079272 68825752 69561664 70273120 70944136 71557280 72095912 
727.996 72551952 72933400 73269848 73609888 74007240 74512608 75156856 
731.371 75945336 76862736 77882248 78980528 80145832 81382752 82706584 
734.746 84135232 85678848 87337504 89104776 90976744 92961496 95085064 
738.121 97384880 99903072 102674240 105716384 109032096 112617288 116471944 
741.496 120611200 125068904 129893840 135153344 140935200 147355648 
744.388 154582752 162823456 172281744 183082432 195136208 208013776 
747.281 220780160 232088624 240320368 243917792 241993536 234628448 
750.174 222993104 208925056 194575232 181908096 172252192 166350528 
753.066 164268512 165538768 169285728 174440064 179990640 185018512 
755.959 188877584 191206480 191849808 190803216 188121760 183868080 
758.852 178098768 170890064 162388192 152837232 142602992 132169736 
761.744 122046600 112750568 104734480 98295400 93582056 90558744 89034688 
765.119 88687888 89131104 89996584 90941408 91705160 92121184 92092304 
768.494 91594224 90660640 89378440 87872056 86288792 84785184 83488304 
771.869 82482328 81799608 81424640 81314824 81422360 81716288 82184352 
775.244 82827656 83648352 84637792 85773624 87028736 88378440 89810864 
778.619 91327344 92934448 94633176 96411552 98242552 100093072 101934416 
781.993 103748008 105528888 107277456 108990144 110651872 112234152 
784.886 113700032 115015872 116155656 117103616 117850720 118385304 
787.779 118687592 118731832 118489056 117938616 117076456 115916648 
790.671 114486448 112816376 110933376 108855256 106593192 104159992 
793.564 101575736 98869504 96077488 93231976 90355328 87459632 84550392 
796.939 81638152 78748096 75919800 73205728 70659784 68320480 66210268 
800.314 64332336 62678440 61235832 59992124 58936364 58052312 57317220 
803.689 56701792 56172632 55702016 55271676 54874136 54509564 54179196 
807.063 53880880 53609652 53362608 53146780 52982340 52903780 52954420 
810.438 53172660 53587348 54208812 55027788 56012584 57108036 58238496 
813.813 59296888 60156952 60692208 60784088 60359580 59407728 57986948 
817.188 56213212 54235088 52211492 50268476 48492536 46928444 45584748 
820.563 44451436 43509908 42740792 42122116 41627776 41230248 40901336 
823.938 40619532 40375368 40169716 40009972 39901572 39843168 39824104 
827.312 39830168 39848764 39875964 39916684 39981452 40078644 40209404 
830.687 40366316 40537680 40713556 40890960 41075140 41275900 41501980 
834.062 41754920 42029316 42315908 42608316 42906772 43219344 43557668 
837.437 43931820 44345516 44795280 45274556 45779284 46311844 46881968 
840.812 47502148 48182592 48927404 49734312 50598232 51517060 52494636 
844.186 53541132 54668004 55881048 57175764 58534548 59930004 61325652 
847.561 62678976 63944736 65068556 65990472 66651628 66997544 66996268 
850.936 66648340 65995068 65113088 64102232 63073652 62121424 61314852 
854.311 60694156 60268780 60027276 59943164 59984480 60114828 60298664 
857.686 60507140 60718616 60923980 61126044 61337748 61576008 61856160 
861.060 62189364 62581756 63036984 63559308 64153968 64822404 65555336 
864.435 66325212 67081636 67750184 68248712 68495680 68425432 68006376 
867.810 67242992 66178628 64883924 63453576 61992956 60600200 59369136 
871.185 58375184 57667584 57275140 57203768 57445748 57987820 58821200 
874.560 59946932 61377892 63136756 65250576 67745696 70636512 73915000 
877.935 77531712 81387392 85311280 89055152 92334496 94834536 96274928 
881.309 96480680 95407128 93174200 90033600 86352576 82532688 78932520 
884.684 75861440 73524560 72029264 71410336 71641960 72661248 74371928 
888.059 76656576 79366592 82305840 85248504 87926136 90043624 91338136 
891.434 91593200 90689832 88634448 85560320 81711536 77381096 72893544 
894.809 68536800 64518160 60972628 57949312 55435028 53379240 51718156 
898.183 50390100 49337576 48511952 47869092 47366400 46968940 46648900 
901.558 46388380 46178572 46015128 45892996 45804284 45737464 45681104 
904.933 45628988 45581696 45545892 45529808 45539156 45573156 45625820 
908.308 45688616 45755984 45827520 45908168 46003780 46118436 46250032 
911.683 46392252 46537948 46682472 46826972 46977504 47142160 47325720 
915.058 47528320 47745068 47970472 48201548 48440748 48694460 48970720 
918.432 49273548 49601396 49947112 50301548 50658876 51018184 51384272 
921.807 51764628 52166432 52594444 53051336 53541544 54073356 54659516 
925.182 55313152 56039992 56830364 57653128 58460128 59188424 59774688 
928.557 60172444 60357712 60337992 60147744 59845760 59501048 59181060 
931.932 58949952 58856488 58932948 59196740 59649044 60278868 61063040 
935.306 61971556 62966160 63999400 65021180 65978096 66820896 67516880 
938.681 68055048 68454336 68759328 69038640 69369784 69820944 70446416 
942.056 71274792 72309352 73532256 74909840 76398280 77939880 79468360 
945.431 80907896 82171416 83176272 83850392 84141992 84032368 83536016 
948.806 82700488 81592888 80295968 78897392 77475784 76105360 74847960 
952.181 73747384 72833040 72115472 71590144 71240512 71046016 70987568 
955.555 71049536 71221424 71495328 71862360 72312288 72834176 73418176 
958.930 74059504 74758640 75521128 76353400 77260856 78245952 79309320 
962.305 80453336 81686344 83023768 84489200 86109904 87910320 89908664 
965.680 92112336 94517168 97110320 99874712 102796600 105870512 109104424 
969.055 112520640 116151840 120027952 124161352 128524064 133037256 
971.947 137554992 141864064 145724768 148881680 151116320 152301600 
974.840 152421552 151592720 150035904 148066144 146029872 144240112 
977.733 142970096 142394384 142574736 143455280 144864736 146538976 
980.625 148127840 149270944 149634576 148952000 147090240 144054064 
983.518 139989696 135136960 129800768 124300912 118907000 113845224 
986.411 109272968 105273160 101875928 99063296 96787600 94982576 93577776 
989.786 92510472 91723320 91170928 90816576 90627000 90573480 90630752 
993.160 90776600 90994968 91275256 91610592 91996880 92429376 92902032 
996.535 93407744 93939744 94493616 95067528 95662328 96279184 96918544 
999.910 97578432 98255640 98946976 99650752 100367488 101099952 101851216 
1003.285 102623664 103417968 104234368 105073832 105939360 106836696 
1006.178 107772800 108753528 109782072 110857800 111976800 113133688 
1009.070 114324536 115547448 116802256 118089272 119407504 120753680 
1011.963 122123224 123512480 124920800 126352680 127818376 129331040 
1014.856 130904600 132551864 134282128 136101392 138014496 140025072 
1017.748 142136720 144353472 146678336 149112448 151653424 154294704 
1020.641 157022160 159809424 162617424 165384240 168026000 170446096 
1023.534 172533920 174188160 175337168 175950240 176052560 175720656 
1026.427 175078704 174268352 173427536 172678432 172099792 171724688 
1029.320 171534720 171463616 171397760 171180160 170638496 169584304 
1032.213 167839568 165272736 161804240 157432656 152234368 146364656 
1035.106 140038064 133492008 126986296 120755040 114980936 109797640 
1037.999 105266536 101388848 98119184 95386488 93111408 91216056 89637888 
1041.374 88325240 87234856 86332768 85589096 84979240 84485504 84095016 
1044.750 83798224 83587464 83453448 83385712 83374832 83414336 83502760 
1048.125 83643416 83841144 84097912 84408472 84756952 85119208 85464544 
1051.500 85759288 85973576 86083688 86074192 85941304 85693456 85353184 
1054.875 84953128 84536416 84150312 83835720 83626064 83540432 83584168 
1058.250 83752616 84034624 84416880 84881576 85404928 85954640 86483488 
1061.626 86935176 87250288 87371216 87257496 86890568 86277600 85448128 
1065.001 84450208 83343360 82186912 81038808 79950128 78957680 78087040 
1068.376 77349496 76744256 76262792 75894144 75630000 75466128 75402544 
1071.751 75440152 75577672 75809120 76124984 76513344 76964112 77470440 
1075.127 78028304 78635424 79287920 79980008 80705080 81458648 82241848 
1078.502 83063408 83939296 84891040 85939608 87105904 88408328 89864120 
1081.877 91493344 93319744 95369328 97671432 100253064 103136168 106335176 
1085.252 109853880 113681176 117784440 122109096 126573952 131068736 
1088.146 135474912 139669072 143540544 147011824 150036320 152596992 
1091.039 154691472 156313776 157439472 158026208 158022144 157395440 
1093.932 156162784 154415920 152325584 150118848 148071968 146447520 
1096.825 145461440 145266992 145919104 147371456 149468176 151968640 
1099.718 154550448 156829280 158433072 159011936 158295040 156145232 
1102.611 152559408 147676416 141732576 135042576 127943456 120740032 
1105.504 113713464 107081056 100988064 95526016 90725760 86573544 83025056 
1108.879 80020088 77492776 75375432 73606240 72126584 70878992 69812968 
1112.254 68882600 68049152 67285432 66572560 65899952 65262816 64659760 
1115.630 64091332 63560160 63070968 62630324 62244504 61918284 61653180 
1119.005 61446476 61293440 61189020 61130432 61117540 61152096 61235028 
1122.380 61365220 61538476 61748924 61991048 62263164 62567180 62908860 
1125.755 63294584 63729532 64216272 64755596 65347812 65995252 66702388 
1129.131 67475536 68319240 69234456 70215776 71252072 72327592 73422096 
1132.506 74514384 75582008 76600088 77545528 78397536 79141432 79774040 
1135.881 80306568 80766808 81192776 81632752 82137592 82751040 83512392 
1139.256 84452056 85590784 86942264 88511992 90296704 92283472 94450120 
1142.632 96767184 99195392 101691344 104205560 106677984 109042448 111221400 
1146.007 113124536 114661408 115741008 116281696 116226792 115545120 
1148.900 114237152 112331560 109882008 106961088 103648928 100037464 
1151.793 96221456 92290112 88331616 84421184 80618256 76971944 73517808 
1155.168 70282576 67288408 64550452 62077272 59870368 57923032 56222376 
1158.543 54751028 53490536 52421284 51521836 50769548 50138256 49599688 
1161.919 49128784 48703284 48307856 47935136 47582440 47250016 46938372 
1165.294 46647204 46376544 46127388 45903340 45709596 45551372 45431648 
1168.669 45350500 45305740 45295148 45319492 45383752 45496176 45664392 
1172.044 45893328 46181444 46522420 46906772 47326384 47778392 48265528 
1175.420 48795476 49377072 50018676 50725644 51500948 52346484 53263556 
1178.795 54252924 55312096 56433732 57603376 58799880 59999692 61179908 
1182.170 62322596 63418372 64465804 65471308 66446124 67407192 68375672 
1185.545 69374568 70429928 71565024 72795000 74122688 75533464 76996120 
1188.921 78460728 79868248 81157224 82266200 83144968 83756592 84077200 
1192.296 84097952 83821336 83258944 82427200 81345392 80034064 78513760 
1195.671 76809312 74954576 72992984 70984328 68999568 67107736 65372728 
1199.046 63835828 62509896 61380676 60413188 59565384 58795820 58075868 
1202.422 57392012 56743512 56138280 55588120 55105720 54701264 54383140 
1205.797 54156412 54022096 53976432 54010728 54114448 54276648 54489920 
1209.172 54752192 55066224 55437740 55871368 56370272 56934536 57563388 
1212.547 58257176 59019028 59854740 60771356 61774748 62868224 64052544 
1215.923 65328016 66696784 68164576 69740672 71437320 73268160 75245536 
1219.298 77381848 79690392 82185632 84885688 87810088 90976584 94398272 
1222.673 98078728 102009384 106165360 110504832 114968504 119469968 
1225.566 123900896 128127352 131980616 135279904 137833840 139455728 
1228.459 140003472 139390208 137607248 134726080 130896224 126328872 
1231.352 121255968 115933480 110607416 105483856 100741168 96505800 92849184 
1234.728 89802512 87359136 85488232 84143320 83271224 82817192 82722456 
1238.103 82931960 83394264 84061040 84893824 85859536 86927288 88066816 
1241.478 89240704 90402000 91500296 92480912 93294768 93908200 94304104 
1244.853 94485912 94473880 94303488 94019264 93669408 93308448 92988712 
1248.229 92756624 92650304 92690288 92878192 93196616 93614656 94094064 
1251.604 94595648 95088648 95551696 95974448 96357360 96710760 97054752 
1254.979 97416640 97832288 98341104 98978024 99770968 100731816 101854064 
1258.354 103110536 104456280 105832936 107166200 108375688 109377384 
1261.247 110081928 110409848 110293824 109684560 108561824 106933240 
1264.140 104834224 102318392 99454440 96320000 92991792 89553424 86090472 
1267.516 82682576 79407168 76328752 73492416 70929984 68657680 66682456 
1270.891 65005668 63623720 62527536 61700344 61118876 60755392 60580124 
1274.266 60569116 60704288 60973924 61371100 61889472 62521292 63257904 
1277.641 64090984 65014980 66029900 67139880 68352160 69673640 71110960 
1281.017 72669512 74355920 76180768 78157720 80301392 82623216 85124168 
1284.392 87790208 90586704 93462632 96351400 99173280 101850168 104304176 
1287.767 106464464 108275592 109694152 110691584 111254112 111378144 
1290.660 111066176 110321120 109141016 107518840 105447320 102927392 
1293.553 99980400 96655576 93038792 89242872 85397424 81646312 78122736 
1296.928 74947136 72226272 70038136 68435320 67440752 67045064 67208720 
1300.304 67865920 68939600 70340624 71977984 73768424 75625976 77466552 
1303.679 79210496 80775104 82084912 83079096 83709984 83951000 83793568 
1307.054 83245624 82330592 81090528 79597296 77950312 76282072 74751240 
1310.429 73504616 72660864 72274088 72313856 72658432 73109960 73449920 
1313.805 73462832 72997992 72000632 70510208 68646384 66566108 64442588 
1317.180 62419984 60595168 59020772 57704816 56628780 55762248 55077472 
1320.555 54553932 54177844 53939704 53829796 53836472 53947768 54152204 
1323.930 54440904 54807860 55247296 55751664 56310216 56908356 57529644 
1327.306 58158976 58783912 59395916 59990184 60562904 61111244 61632712 
1330.681 62125632 62591480 63035340 63466156 63894176 64329340 64778864 
1334.056 65246604 65733552 66240028 66766992 67317080 67893312 68498512 
1337.431 69133696 69797512 70488624 71206632 71954336 72737168 73563024 
1340.807 74438664 75367664 76350120 77383112 78463824 79591200 80767960 
1344.182 82001296 83300728 84675520 86133016 87676456 89305376 91016864 
1347.557 92807528 94674960 96618160 98635992 100725960 102881624 105093288 
1350.932 107348968 109638536 111957680 114310992 116713640 119188280 
1353.825 121761480 124461960 127315640 130346072 133573560 137009600 
1356.719 140651024 144468064 148402224 152357072 156205568 159819968 
1359.612 163081328 165910880 168284544 170231856 171824016 173145168 
1362.505 174283536 175308352 176264608 177181440 178072608 178941408 
1365.398 179783760 180590224 181352208 182069920 182762496 183473744 
1368.291 184272256 185232704 186425744 187903024 189689584 191791584 
1371.184 194205440 196930096 199967504 203320272 206982448 210929104 
1374.077 215118384 219505216 224060800 228786560 233710208 238866384 
1376.970 244260864 249841488 255468544 260933728 265971904 270281472 
1379.863 273579680 275593760 276071456 274823648 271747328 266890560 
1382.756 260461696 252813552 244344880 235367872 226071824 216484864 
1385.649 206533904 196136448 185297984 174159920 162978896 152047920 
1388.542 141614112 131847944 122835448 114618568 107229696 100684888 
1391.435 94989216 90123008 86033032 82643296 79868440 77638232 75892576 
1394.811 74578856 73643528 73012536 72600784 72331976 72151664 72050424 
1398.186 72066264 72280816 72790960 73677920 74994344 76752568 78939832 
1401.561 81528808 84485096 87754480 91238136 94790064 98197064 101193008 
1404.936 103519512 104950064 105342408 104662624 102974472 100422184 
1407.829 97189920 93497440 89569472 85612544 81826728 78371344 75353440 
1411.205 72831592 70813896 69277824 68189472 67520672 67252472 67369040 
1414.580 67849384 68658416 69745968 71063504 72570320 74246552 76097424 
1417.955 78141104 80391048 82832552 85420984 88094088 90796728 93502040 
1421.330 96209712 98930952 101663200 104373184 106989992 109401128 111485984 
1424.706 113140136 114289744 114897352 114940184 114392136 113222216 
1427.599 111406104 108954128 105928784 102455880 98706192 94850864 91050944 
1430.974 87434392 84094096 81104184 78513440 76339976 74573272 73172032 
1434.349 72079752 71239224 70618336 70221664 70087344 70260568 70759336 
1437.724 71554592 72580144 73755544 75005728 76277560 77531080 78736616 
1441.100 79873224 80920792 81862336 82686664 83388960 83971504 84440544 
1444.475 84802296 85057784 85202408 85228456 85134160 84933752 84665536 
1447.850 84385656 84154456 84019456 83998080 84080656 84242664 84464616 
1451.225 84742448 85092648 85541080 86108688 86795520 87578392 88410848 
1454.601 89236320 90004688 90677416 91242176 91711864 92118768 92489520 
1457.976 92830720 93133136 93384408 93583088 93741968 93884136 94034576 
1461.351 94212064 94424384 94669848 94942920 95242272 95576848 95967384 
1464.726 96440928 97026904 97751688 98636832 99706152 100983960 102490992 
1468.102 104238496 106221760 108421320 110797496 113303032 115883896 
1470.995 118466816 120961568 123254424 125216392 126731280 127714496 
1473.888 128118840 127928016 127142968 125782576 123892256 121552944 
1476.781 118875664 115974072 112946576 109851656 106705856 103505304 
1479.674 100244472 96934864 93615928 90345576 87184584 84183816 81371008 
1483.049 78753096 76323584 74068696 71973960 70026096 68214280 66532044 
1486.424 64979612 63564412 62298692 61195240 60262080 59500252 58905972 
1489.800 58477376 58216216 58128404 58215992 58469984 58866540 59370996 
1493.175 59940464 60536964 61133028 61713332 62277888 62834800 63390500 
1496.550 63939124 64457884 64911468 65265624 65496384 65598072 65585008 
1499.925 65488376 65350892 65216340 65127604 65117672 65204060 65388292 
1503.301 65652988 65964440 66269936 66509836 66632076 66615664 66493580 
1506.676 66351688 66295028 66387132 66632196 66988112 67399376 67816224 
1510.051 68205136 68552792 68859880 69137856 69403144 69672240 69956264 
1513.426 70258696 70574600 70892488 71199560 71486648 71756856 72028792 
1516.802 72336232 72713352 73180504 73733632 74344048 74965320 75545776 
1520.177 76051112 76479712 76873608 77299024 77818664 78456400 79189784 
1523.552 79965864 80725696 81426720 82047248 82593192 83089760 83570632 
1526.927 84063528 84583720 85139888 85739840 86396680 87127200 87944184 
1530.302 88847552 89819624 90832344 91856680 92879664 93917616 95020064 
1533.678 96254160 97667288 99273760 101047808 102946712 104922048 106937048 
1537.053 108976736 111035120 113124616 115271840 117519480 119914184 
1539.946 122489672 125268224 128241032 131382360 134669920 138085440 
1542.839 141620256 145265792 149003856 152793744 156568240 160249824 
1545.732 163757232 167018208 169974896 172558368 174682352 176255168 
1548.625 177188816 177451728 177094752 176251552 175079488 173690064 
1551.518 172115888 170312144 168210064 165787360 163119344 160385408 
1554.411 157818960 155594832 153769408 152251024 150838864 149258656 
1557.304 147229264 144561472 141256768 137595008 134040920 131010680 
1560.198 128662080 126908528 125542056 124351200 123166240 121848808 
1563.091 120299744 118461680 116335880 113987792 111531984 109096328 
1565.984 106760472 104531096 102337136 100062280 97584360 94829632 91815784 
1569.359 88661232 85549592 82651792 80074664 77836264 75891896 74169264 
1572.734 72596904 71114704 69674616 68241112 66799640 65375580 64050124 
1576.109 62953324 62230968 61983252 62241828 62982052 64154772 65718056 
1579.485 67652296 69964472 72676960 75813536 79384816 83372464 87718672 
1582.860 92328056 97049240 101682216 105999320 109740608 112665096 114585184 
1586.235 115375232 115000672 113518048 111086160 107945800 104406432 
1589.128 100824792 97525080 94783920 92805360 91701304 91516744 92240728 
1592.503 93826104 96197056 99257808 102906528 107021488 111470816 116123664 
1595.879 120843392 125509144 130023360 134299792 138259056 141813360 
1598.772 144848544 147239440 148867296 149641584 149529232 148558336 
1601.665 146813296 144409328 141487200 138203584 134710976 131163208 
1604.558 127694800 124398104 121326288 118489056 115866368 113425544 
1607.451 111138752 108992360 106984016 105116160 103387536 101788680 
1610.344 100306536 98932328 97667080 96522104 95510616 94636272 93882776 
1613.719 93208928 92552040 91844816 91031656 90099720 89096360 88129720 
1617.094 87329400 86790008 86545272 86565656 86787944 87139072 87557920 
1620.470 88005496 88461864 88930176 89432208 90005712 90693176 91532080 
1623.845 92547160 93742912 95106384 96611040 98224192 99907240 101619696 
1627.220 103326664 105001200 106630168 108215608 109772432 111320760 
1630.113 112878464 114459840 116073488 117726128 119422768 121170696 
1633.006 122982856 124878784 126891984 129072848 131492912 134220752 
1635.899 137304224 140758816 144553184 148643808 152994192 157588528 
1638.792 162431440 167541568 172948048 178669792 184709296 191050528 
1641.686 197649872 204444288 211368672 218340752 225287200 232156928 
1644.579 238921488 245598800 252246208 258954160 265782032 272727712 
1647.472 279725248 286654144 293392704 299832896 305891424 311434368 
1650.365 316206880 319804128 321567072 320694432 316595616 309437312 
1653.258 300400960 291067616 282524832 274953632 267963760 260993776 
1656.151 253618592 245631952 237036464 227978208 218662912 209295248 
1659.044 199987632 190765680 181591488 172399200 163146320 153847872 
1661.937 144593024 135543616 126907152 118885424 111629192 105204256 
1664.830 99585816 94684848 90372952 86513808 82988272 79715904 76668000 
1668.205 73871320 71393464 69314360 67693416 66548616 65854804 65557420 
1671.581 65597376 65920396 66483736 67261752 68244328 69440696 70877240 
1674.956 72590248 74608208 76932896 79547104 82425920 85556048 88945264 
1678.331 92617160 96596880 100882552 105438408 110200632 115089800 120059672 
1681.706 125117120 130328000 135804464 141659008 147930704 154493504 
1684.599 161071584 167331440 172995968 177891344 181911824 184991008 
1687.492 187056160 188049968 187950768 186770560 184562544 181412240 
1690.385 177446448 172832112 167764096 162452480 157047616 151594048 
1693.279 146009936 140097072 133630128 126509560 118919152 111361104 
1696.172 104473984 98703944 94147360 90567192 87574576 84761176 81847248 
1699.547 78784560 75779768 73184352 71254056 69997176 69199752 68577784 
1702.922 67863984 66870020 65479128 63632308 61330380 58629460 55634820 
1706.297 52474824 49281564 46173156 43232336 40510328 38021020 35744908 
1709.673 33645188 31686816 29854168 28156790 26621034 25267936 24098468 
1713.048 23082300 22168600 21301604 20448110 19607418 18807202 18081788 
1716.423 17448254 16892524 16381063 15884602 15403265 14969650 14626310 
1719.798 14399543 14282626 14239552 14219387 14180050 14100634 13991052 
1723.174 13881497 13806892 13783565 13801727 13830630 13838086 13808054 
1726.549 13747311 13678986 13627937 13605645 13603423 13597679 13565612 
1729.924 13500392 13416214 13340389 13295325 13283982 13282411 13248351 
1733.299 13140999 12952453 12720689 12514285 12388532 12355396 12386828 
1736.675 12435071 12457917 12429309 12349430 12239709 12132775 12052610 
1740.050 12002671 11965987 11919600 11848974 11756333 11656563 11567400 
1743.425 11496592 11437668 11372801 11284613 11167206 11030219 10894091 
1746.800 10777740 10689164 10618601 10544825 10445165 10310204 10148929 
1750.176 9985716 9847170 9748346 9687050 9648698 9617971 9588399 9564993 
1754.033 9558523 9576103 9614719 9659302 9688643 9688202 9658014 9615431 
1757.890 9584402 9583995 9616922 9669635 9718053 9741027 9730692 9697655 
1761.748 9665299 9656592 9682578 9736520 9800703 9857134 9897335 9924455 
1765.605 9948795 9979918 10020605 10063874 10097989 10114505 10115217 
1768.980 10111181 10117252 10141298 10178609 10210325 10213853 10175725 
1772.356 10102533 10020401 9960729 9944998 9973070 10027590 10083406 
1775.731 10121932 10137873 10139840 10143368 10160835 10193533 10230917 
1779.106 10255783 10255749 10230950 10195875 10171656 10173691 10203947 
1782.481 10249236 10290151 10309593 10303655 10282585 10265825 10270338 
1785.857 10301721 10351939 10406168 10451681 10484911 10512982 10548084 
1789.232 10599011 10663831 10728762 10772747 10780049 10748462 10693782 
1792.607 10641385 10614018 10619246 10648584 10684274 10711714 10726385 
1795.982 10734876 10749582 10780083 10826960 10879957 10923311 10943596 
1799.358 10938466 10917399 10898066 10895076 10913695 10946892 10981553 
1802.733 11006701 11020023 11028656 11045411 11079570 11131748 11193384 
1806.108 11251085 11295428 11324776 11347122 11374434 11415966 11472097 
1809.483 11533475 11586898 11623448 11644209 11660886 11688864 11739753 
1812.859 11814584 11904207 11994700 12075605 12144939 12210809 12285448 
1816.234 12377452 12486083 12600744 12705882 12789103 12847596 12888723 
1819.609 12924802 12965595 13012026 13055627 13084105 13087759 13064334 
1822.984 13020391 12967064 12914971 12868449 12825652 12782244 12737271 
1826.360 12695204 12664192 12650308 12651741 12656824 12648704 12611557 
1829.735 12542352 12453415 12369679 12315205 12301843 12324988 12367293 
1833.110 12408272 12433128 12439709 12437152 12439743 12457337 12489663 
1836.485 12525914 12552823 12561315 12553846 12543308 12547127 12577652 
1839.861 12635741 12711034 12786749 12848756 12889440 12910705 12920057 
1843.236 12925827 12931288 12934941 12934224 12930674 12932381 12950814 
1846.611 12993692 13060783 13141648 13220683 13282957 13322247 13343669 
1849.986 13361642 13391781 13442426 13511432 13587868 13659393 13719200 
1853.362 13769679 13820470 13882182 13957964 14040946 14116414 14169951 
1856.737 14194428 14194462 14182925 14174641 14177893 14190217 14201104 
1860.112 14198981 14179640 14149344 14123295 14116209 14136370 14180392 
1863.487 14236471 14290331 14333752 14368102 14401975 14444689 14498507 
1866.863 14556100 14603282 14627613 14626379 14611335 14603214 14622952 
1870.238 14677717 14759809 14849322 14927159 14980830 15010978 15028026 
1873.613 15045417 15070972 15102361 15128675 15137835 15124181 15093167 
1876.988 15058760 15036189 15034371 15051351 15076289 15096255 15104214 
1880.364 15102944 15103116 15116221 15147305 15191636 15237893 15274889 
1883.739 15298467 15315286 15339965 15386547 15460532 15555135 15653640 
1887.114 15739042 15800443 15838619 15865322 15896047 15941519 16003087 
1890.489 16073428 16142888 16206617 16266981 16331827 16408624 16498134 
1893.865 16593685 16682647 16754821 16808100 16851084 16899104 16965318 
1897.240 17054840 17161236 17270896 17370688 17455152 17529732 17607086 
1900.615 17700466 17814716 17944606 18077988 18201874 18309968 18404986 
1903.990 18495704 18589654 18687226 18778692 18848482 18883572 18879904 
1907.365 18845784 18797306 18751602 18719118 18699402 18684942 18667438 
1910.741 18645718 18627354 18625934 18652634 18711058 18794090 18888590 
1914.116 18980966 19064500 19140464 19216512 19298218 19385554 19470514 
1917.491 19542324 19594836 19632342 19668466 19720194 19797870 19899422 
1920.866 20010160 20110582 20185482 20231718 20260290 20290112 20338616 
1924.242 20412200 20503336 20596230 20676286 20738562 20789030 20841274 
1927.617 20906912 20989110 21080196 21166638 21236882 21290050 21336928 
1930.992 21394146 21475012 21581380 21701742 21818514 21915280 21986864 
1934.367 22040892 22093288 22157790 22238170 22325924 22405846 22465614 
1937.743 22502288 22524728 22548004 22583848 22632540 22681866 22712692 
1941.118 22710772 22674186 22617286 22561336 22525390 22515304 22521236 
1944.493 22525914 22515060 22487422 22456018 22440492 22455390 22501940 
1947.868 22565558 22623988 22657918 22663050 22650970 22643988 22661688 
1951.244 22710912 22782558 22858198 22920406 22962882 22992576 23024614 
1954.619 23071398 23133004 23196122 23240690 23252540 23230762 23191962 
1957.994 23160368 23157852 23190146 23246666 23305116 23347492 23369974 
1961.369 23385288 23413998 23472364 23561872 23667914 23768242 23844754 
1964.745 23894742 23932098 23979576 24053184 24153810 24264446 24360426 
1968.120 24422250 24446330 24446788 24445630 24459686 24488466 24514970 
1971.495 24515636 24473672 24390004 24285750 24189542 24127574 24107294 
1974.870 24118294 24140184 24158854 24174338 24201488 24259016 24355274 
1978.246 24477984 24600204 24690262 24729508 24722284 24692716 24672584 
1981.621 24685666 24737540 24814154 24892710 24951944 24984688 24998270 
1984.996 25008696 25028490 25059660 25093534 25117336 25123902 25118530 
1988.371 25115828 25134012 25182358 25255680 25336844 25405062 25448590 
1991.747 25470514 25487450 25517704 25572700 25646824 25721806 25775070 
1995.122 25793564 25779746 25751266 25730946 25734146 25762060 25801370 
1998.497 25832770 25843004 25833440 25818424 25818528 25846450 25900326 
2001.872 25964378 26018410 26046660 26048420 26037160 26032236 26046414 
2005.248 26079136 26114462 26132090 26119002 26077938 26025446 25983618 
2008.623 25967086 25974156 25988472 25989810 25966100 25921676 25875640 
2011.998 25851056 25862380 25907924 25970392 26026958 26061894 26074770 
2015.373 26078818 26092962 26127480 26178332 26227640 26255446 26248372 
2018.749 26212716 26167634 26139198 26144442 26184948 26245766 26308000 
2022.124 26357888 26394962 26432216 26485672 26564286 26662360 26760916 
2025.499 26837110 26877116 26881524 26864462 26845430 26838272 26844406 
2028.874 26853816 26852900 26835700 26808598 26788332 26792032 26827382 
2032.250 26887444 26953684 27005936 27032064 27033440 27022580 27014118 
2035.625 27013482 27015386 27004986 26970150 26908208 26830344 26756052 
2039.000 26704676 26684944 26690582 26705452 26713026 26706508 26691602 
2042.375 26683746 26696430 26734486 26788544 26839330 26867318 26864144 
2045.750 26835206 26798200 26771628 26767470 26784384 26811592 26834080 
2049.126 26844652 26845076 26845358 26856390 26883002 26920862 26960172 
2052.501 26991304 27010908 27023814 27040880 27072478 27121606 27182766 
2055.876 27243830 27293788 27328438 27353386 27379606 27418638 27475534 
2059.251 27545358 27617102 27678440 27722796 27751476 27772704 27794392 
2062.627 27820568 27847946 27869356 27877130 27870346 27854764 27841058 
2066.002 27838090 27848582 27866600 27882394 27886562 27876846 27858792 
2069.377 27843000 27838974 27850136 27870840 27889848 27897798 27889918 
2072.752 27870168 27847806 27832614 27829080 27834522 27841200 27841376 
2076.128 27832190 27816928 27802764 27795664 27796758 27800786 27799090 
2079.503 27784220 27754336 27715062 27676426 27646234 27628330 27618620 
2082.878 27609194 27591998 27564036 27527954 27491206 27460780 27439320 
2086.253 27424708 27411368 27394780 27374416 27354514 27340646 27336624 
2089.629 27340824 27345410 27341140 27321804 27288036 27248274 27214620 
2093.004 27197194 27200156 27219558 27245418 27267996 27281580 27286520 
2096.379 27287330 27288566 27290790 27290084 27280346 27257870 27223968 
2099.754 27185164 27150668 27127036 27114446 27106580 27094590 27071420 
2103.130 27035556 26992256 26949770 26915928 26892520 26876622 26861642 
2106.505 26843208 26821144 26800526 26787770 26786888 26796086 26808352 
2109.880 26814270 26808668 26792314 26772826 26760106 26760596 26774024 
2113.255 26792914 26806518 26805990 26789990 26764368 26739876 26726098 
2116.631 26726944 26739102 26754958 26765954 26767752 26761690 26752634 
2120.006 26745340 26740618 26734874 26721660 26696748 26660176 26617722 
2123.381 26577776 26547836 26530050 26521068 26514200 26504198 26490356 
2126.756 26477468 26471938 26479440 26499232 26525294 26548294 26560974 
2130.132 26561292 26554704 26550406 26556042 26575100 26604758 26638298 
2133.507 26670076 26699180 26729236 26767646 26817830 26877646 26938032 
2136.882 26986756 27014434 27018102 27002410 26975932 26947374 26920582 
2140.257 26894178 26865168 26832564 26800526 26777936 26774096 26792598 
2143.633 26828546 26871548 26908136 26930276 26939478 26944730 26957740 
2147.008 26984958 27023602 27062108 27086266 27085736 27059958 27018772 
2150.383 26976672 26943530 26921568 26902180 26872606 26821602 26746784 
2153.758 26653552 26554036 26459050 26373836 26298038 26231510 26178508 
2157.134 26152430 26171820 26249496 26385348 26559882 26741886 26897174 
2160.509 27006502 27067964 27096282 27111730 27129646 27153066 27175182 
2163.884 27184848 27174442 27147882 27116562 27095400 27093178 27109260 
2167.259 27133384 27153100 27158638 27148376 27127988 27105840 27086300 
2170.635 27067646 27043454 27007066 26959220 26908630 26868834 26853464 
2174.010 26866964 26902390 26942368 26967646 26965072 26932884 26880360 
2177.385 26820544 26765072 26718136 26676490 26634352 26589294 26544208 
2180.760 26508528 26490674 26493280 26510782 26531000 26541742 26536670 
2184.135 26518426 26496098 26480144 26475740 26478698 26479298 26467642 
2187.511 26439364 26399362 26360280 26335248 26332994 26352252 26383448 
2190.886 26413764 26433728 26439750 26435596 26427250 26418764 26409044 
2194.261 26393236 26365280 26322928 26269384 26212330 26158412 26111294 
2197.636 26068122 26023300 25971272 25912498 25853166 25804852 25777812 
2201.012 25776582 25797642 25832350 25871138 25908348 25944538 25984886 
2204.387 26034100 26093594 26158026 26218066 26265724 26297546 26317154 
2207.762 26333454 26355140 26386862 26427108 26469438 26506382 26534874 
2211.137 26556960 26578658 26605394 26639002 26674410 26703548 26718100 
2214.513 26714224 26694388 26666588 26639144 26617476 26602398 26590316 
2217.888 26577388 26562206 26546144 26533606 26527512 26527512 26528920 
2221.263 26525998 26514094 26493844 26470176 26449012 26434082 26423376 
2224.638 26409680 26383414 26338698 26276460 26205712 26139902 26090182 
2228.014 26062456 26053590 26055210 26056898 26052324 26039974 26023722 
2231.389 26008104 25994980 25982704 25966944 25943272 25911442 25875426 
2234.764 25840754 25812726 25791876 25774084 25752848 25723212 25684682 
2238.139 25642536 25604506 25578112 25565884 25564616 25567148 25566162 
2241.515 25558152 25544376 25529406 25519004 25515384 25517740 25521640 
2244.890 25523432 25521394 25517740 25516508 25520902 25530916 25543214 
2248.265 25552212 25553898 25547010 25534324 25520586 25509904 25503228 
2251.640 25498412 25492334 25483198 25472940 25467000 25471040 25488118 
2255.016 25516508 25548732 25574598 25586652 25581804 25563316 25538120 
2258.391 25513522 25493774 25478208 25462960 25443076 25415812 25381630 
2261.766 25343166 25303442 25263686 25222528 25177618 25127624 25073246 
2265.141 25019048 24970298 24930888 24901272 24878956 24858886 24837590 
2268.517 24814366 24791210 24772724 24761886 24759324 24761780 24764444 
2271.892 24762938 24755710 24744240 24731474 24720986 24713970 24709550 
2275.267 24705904 24701626 24697066 24694574 24696538 24703588 24713796 
2278.642 24722880 24725720 24719198 24702782 24679074 24651752 24623454 
2282.018 24594314 24562230 24524786 24480440 24430698 24379632 24331970 
2285.393 24291112 24257544 24228044 24198546 24165230 24126874 24084668 
2288.768 24042116 24002126 23966656 23935180 23906540 23879094 23852840 
2292.143 23828372 23807020 23788332 23770972 23751514 23727192 23696256 
2295.519 23659342 23619526 23580274 23544278 23512518 23484188 23457852 
2298.894 23432986 23410988 23394204 23385464 23385778 23394136 23407002 
2302.269 23420606 23431936 23440400 23447114 23454388 23464040 23476072 
2305.644 23488978 23500730 23510034 23517520 23524970 23534904 23548860 
2309.020 23566070 23584856 23602172 23615958 23626172 23634186 23642058 
2312.395 23651084 23661160 23670504 23677606 23681456 23682890 23684184 
2315.770 23687894 23695066 23704726 23714208 23720402 23720824 23715364 
2319.145 23705320 23692792 23679146 23663926 23644786 23619002 23584018 
2322.521 23539732 23486950 23428126 23365602 23301340 23236424 23172460 
2325.896 23111442 23056406 23010218 22974724 22949188 22930570 22914608 
2329.271 22896618 22874754 22849468 22824150 22802462 22787168 22778614 
2332.646 22774808 22773026 22770792 22767544 22764054 22761434 22760316 
2336.021 22759478 22756684 22749354 22736714 22719396 22699810 22680190 
2339.397 22662456 22646084 22630096 22612888 22594004 22574180 22554216 
2342.772 22534288 22512340 22485224 22449842 22406090 22358296 22315320 
2346.147 22288394 22287312 22316750 22376086 22458880 22555578 22655334 
2349.522 22748934 22829072 22890994 22932386 22952822 22954044 22938674 
2352.898 22911672 22878526 22844124 22812730 22785668 22761748 22737516 
2356.273 22709062 22673906 22631458 22583360 22532160 22480304 22429082 
2359.648 22378356 22327668 22276848 22226662 22178818 22134116 22092872 
2363.023 22053826 22015412 21976130 21935946 21895904 21858096 21823670 
2366.399 21792942 21764200 21735914 21706584 21676526 21647862 21622646 
2369.774 21603076 21589320 21579952 21572396 21565084 21557110 21549136 
2373.149 21542382 21537576 21534304 21531274 21526992 21520864 21513726 
2376.524 21507494 21504362 21505544 21510454 21517416 21524172 21529464 
2379.900 21533466 21538238 21546038 21558572 21575392 21594648 21613068 
2383.275 21628010 21638074 21643542 21645980 21647652 21649880 21653328 
2386.650 21658276 21664788 21673634 21685894 21702300 21722572 21744552 
2390.025 21765246 21781654 21792070 21797192 21799560 21802488 21808270 
2393.401 21817470 21828130 21837294 21842590 21843288 21840848 21838234 
2396.776 21837746 21840500 21845342 21850048 21852138 21850430 21845552 
2400.151 21839664 21835134 21832904 21832626 21832382 21830326 21825240 
2403.526 21817538 21808724 21800920 21795416 21792420 21791234 21790850 
2406.902 21790782 21790956 21791652 21792802 21793672 21793396 21790922 
2410.277 21786880 21783118 21782908 21789006 21802906 21823532 21847816 
2413.652 21871616 21891512 21905732 21915036 21921726 21928244 21935910 
2417.027 21944656 21953824 21961804 21968428 21974074 21979616 21985260 
2420.403 21990212 21992512 21989968 21981462 21967660 21951314 21935630 
2423.778 21923818 21917056 21914792 21914860 21914548 21912526 21907542 
2427.153 21899910 21889770 21877086 21861650 21843496 21823498 21804022 
2430.528 21787784 21777160 21772630 21772666 21774060 21772946 21766848 
2433.904 21755630 21741174 21726682 21714700 21705992 21699164 21691396 
2437.279 21680182 21663986 21642984 21618678 21592628 21565712 21538028 
2440.654 21508992 21478632 21447926 21419244 21394600 21375806 21362822 
2444.029 21353808 21346498 21338216 21327984 21316048 21303692 21292278 
2447.405 21282988 21275680 21270286 21266562 21264650 21264684 21266598 
2450.780 21269032 21269974 21266458 21256506 21239596 21217780 21193984 
2454.155 21171752 21153488 21139712 21128892 21118944 21108510 21097484 
2457.530 21087744 21081238 21079744 21083432 21091084 21100334 21109554 
2460.906 21117344 21124442 21131676 21140200 21150426 21162464 21175892 
2464.281 21190852 21208178 21228916 21253862 21282500 21313054 21342880 
2467.656 21369644 21392024 21410646 21427284 21443924 21461678 21479954 
2471.031 21497084 21510210 21518114 21520272 21517940 21512682 21506136 
2474.406 21498650 21489738 21478702 21465160 21449632 21433516 21418270 
2477.782 21404660 21392650 21381060 21369226 21357184 21346116 21338042 
2481.157 21334876 21337136 21344270 21354086 21364736 21375248 21386004 
2484.532 21398638 21414962 21435848 21460598 21487474 21514004 21538864 
2487.907 21561322 21582148 21602170 21621950 21640164 21655350 21665658 
2491.283 21670396 21670396 21667678 21664962 21664718 21667400 21672518 
2494.658 21678406 21683840 21687356 21688890 21687914 21684362 21677744 
2498.033 21667470 21653398 21636718 21619512 21604226 21593568 21588832 
2501.408 21590052 21596528 21606976 21620872 21638074 21658448 21681226 
2504.784 21704600 21725394 21740406 21747374 21745666 21737204 21725186 
2508.159 21712714 21702266 21693974 21686660 21678058 21666738 21651866 
2511.534 21634208 21614810 21594718 21574174 21552688 21529708 21505336 
2514.909 21480130 21455622 21433134 21413396 21396582 21381860 21368600 
2518.285 21356556 21345976 21337834 21332440 21329446 21328228 21326906 
2521.660 21324400 21319772 21313124 21304458 21293950 21280864 21264058 
2525.035 21242484 21216110 21185842 21153976 21122702 21093762 21067292 
2528.410 21041868 21015992 20987894 20957328 20925270 20893422 20863244 
2531.786 20835052 20808390 20781416 20752952 20722472 20690672 20658912 
2535.161 20628508 20600052 20573334 20547488 20521816 20496182 20471554 
2538.536 20448944 20429288 20412686 20398378 20384696 20370492 20355214 
2541.911 20338860 20321810 20304416 20286536 20267858 20248278 20228350 
2545.287 20209432 20193048 20180414 20171356 20164656 20157436 20147928 
2548.662 20135120 20120022 20105344 20094202 20089068 20090560 20097882 
2552.037 20109264 20123042 20138486 20155944 20175936 20198880 20224012 
2555.412 20249632 20273934 20295702 20315180 20333894 20353686 20375876 
2558.788 20400496 20426058 20450334 20471450 20488990 20503440 20516364 
2562.163 20529424 20543180 20557702 20572190 20585598 20597968 20609642 
2565.538 20621698 20634900 20649530 20664994 20680734 20696408 20712288 
2568.913 20729282 20748398 20770122 20794346 20819894 20845552 20870338 
2572.289 20893910 20916508 20937960 20957990 20975480 20989354 20998952 
2575.664 21004726 21008272 21011994 21017906 21026740 21037972 21049762 
2579.039 21059780 21066352 21068752 21067396 21063222 21056614 21047780 
2582.414 21036302 21021940 21005664 20989390 20975548 20966682 20963866 
2585.790 20966996 20974610 20984660 20995684 21007228 21019402 21033070 
2589.165 21048580 21065414 21082804 21099986 21116718 21133764 21152376 
2592.540 21173734 21197984 21223938 21249860 21273662 21293670 21309680 
2595.915 21322208 21331916 21339260 21344514 21347230 21347472 21345804 
2599.291 21343924 21343262 21344724 21348344 21352208 21353878 21351094 
2602.666 21343228 21331012 21316674 21302718 21290888 21281316 21272792 
2606.041 21263536 21252226 21238344 21222686 21206612 21191442 21177596 
2609.416 21165282 21153904 21143260 21133868 21126286 21121310 21119084 
2612.792 21118876 21119710 21120300 21120232 21119674 21119466 21120336 
2616.167 21122424 21124474 21125102 21122492 21115884 21105378 21092058 
2619.542 21077344 21062526 21047954 21033486 21018740 21003786 20989078 
2622.917 20975584 20964074 20954998 20947732 20941368 20934762 20927286 
2626.292 20918908 20910388 20901974 20894118 20886190 20877636 20867938 
2629.668 20857024 20845760 20835468 20826988 20821078 20817358 20815134 
2633.043 20813952 20813846 20815552 20820382 20829280 20842458 20859248 
2636.418 20878438 20898636 20918976 20939108 20959310 20979688 20999960 
2639.793 21019470 21037346 21053136 21067432 21081552 21097484 21116370 
2643.169 21138668 21163716 21189878 21215414 21239214 21261204 21281978 
2646.544 21302510 21323494 21344654 21365780 21385516 21403580 21419940 
2649.919 21434874 21448798 21461818 21473168 21482150 21488102 21490922 
2653.294 21491236 21490190 21488904 21488102 21487928 21487650 21487092 
2656.670 21485874 21484726 21484830 21487370 21493290 21502828 21515432 
2660.045 21530646 21547744 21567034 21588728 21613140 21640408 21670152 
2663.420 21701360 21733512 21765978 21798308 21830778 21863184 21895346 
2666.795 21926362 21955426 21981392 22003806 22022488 22037756 22050096 
2670.171 22059578 22066270 22069758 22070314 22068676 22065922 22063726 
2673.546 22063238 22065120 22069304 22075266 22082690 22091196 22101762 
2676.921 22115044 22132024 22152978 22177458 22204656 22233254 22262410 
2680.296 22291916 22321810 22352714 22384738 22417638 22451028 22484178 
2683.672 22516666 22548214 22579170 22609816 22640462 22670764 22700822 
2687.047 22730394 22759934 22790102 22821496 22855196 22891798 22931372 
2690.422 22974166 23020176 23069860 23123848 23182458 23246352 23315430 
2693.797 23389310 23467400 23549526 23635550 23725790 23820708 23920406 
2697.173 24024398 24132094 24242548 24354958 24469116 24584390 24700712 
2700.548 24817170 24932468 25044566 25151006 25250060 25340148 25420520 
2703.923 25490436 25549366 25596562 25630868 25651746 25659338 25654944 
2707.298 25641024 25620216 25595404 25568448 25540510 25511834 25482286 
2710.674 25452490 25423190 25395858 25371936 25352476 25338004 25328450 
2714.049 25322936 25320970 25322092 25325710 25331576 25339478 25349244 
2717.424 25361186 25375940 25394980 25419536 25450944 25489172 25533060 
2720.799 25580152 25627492 25672274 25712736 25748348 25779886 25808578 
2724.175 25835618 25861114 25884748 25905426 25922132 25934232 25942358 
2727.550 25947036 25949954 25952488 25955338 25958960 25963252 25967964 
2730.925 25972608 25976794 25980032 25982388 25983618 25984182 25983936 
2734.300 25983408 25982810 25982070 25981578 25981086 25980946 25981262 
2737.676 25982634 25985554 25990548 25998006 26007962 26020906 26037056 
2741.051 26056968 26081492 26111118 26146482 26187482 26233834 26284942 
2744.426 26340284 26399256 26461830 26527406 26595564 26665532 26736248 
2747.801 26807294 26878068 26949454 27022508 27098502 27178744 27263762 
2751.177 27353244 27447016 27543982 27644362 27747908 27854906 27965746 
2754.552 28080256 28198014 28318456 28440982 28565172 28691450 28819888 
2757.927 28950528 29083224 29217094 29351502 29485456 29618884 29752140 
2761.302 29885544 30019200 30153040 30286246 30417398 30545672 30670110 
2764.677 30790384 30906638 31018938 31126922 31230162 31328264 31420798 
2768.053 31508036 31590666 31669314 31744632 31816858 31885672 31950970 
2771.428 32012954 32072276 32130464 32188874 32248254 32308500 32368540 
2774.803 32427016 32482930 32536854 32590282 32646108 32707408 32776616 
2778.178 32854694 32941692 33036426 33137620 33244162 33355850 33472362 
2781.554 33594064 33720772 33852428 33988960 34130588 34278072 34432424 
2784.929 34594324 34763608 34939384 35119224 35300612 35480416 35656632 
2788.304 35827916 35993580 36153940 36309316 36459992 36606684 36749996 
2791.679 36890836 37030380 37169684 37309216 37449656 37590428 37731288 
2795.055 37871536 38010820 38148920 38285580 38420396 38553052 38682628 
2798.430 38808988 38931752 39051440 39168768 39284456 39398944 39512224 
2801.805 39624012 39733432 39839648 39942000 40039836 40132464 40219476 
2805.180 40299816 40373112 40439044 40497744 40550340 40597668 40641184 
2808.556 40681572 40719088 40753732 40785544 40814480 40841380 40867040 
2811.931 40892528 40918668 40946120 40975320 41006308 41039592 41075576 
2815.306 41115132 41158548 41205544 41255276 41305924 41355380 41401880 
2818.681 41443804 41480508 41511500 41536984 41557180 41572460 41583144 
2822.057 41589488 41592148 41591308 41587080 41579604 41568556 41554480 
2825.432 41537928 41520756 41505336 41494216 41489876 41493816 41506832 
2828.807 41528560 41558128 41595176 41639444 41691704 41752584 41823464 
2832.182 41904432 41996140 42098676 42212956 42340564 42483628 42645124 
2835.558 42828072 43034656 43266052 43522616 43803560 44107792 44434440 
2838.933 44783192 45153728 45547032 45963448 46403936 46868976 47358900 
2842.308 47873716 48412892 48976028 49561060 50165964 50785676 51413064 
2845.683 52038144 52647036 53222844 53747104 54199316 54559944 54812180 
2849.059 54942456 54942644 54810868 54551268 54173412 53691908 53125172 
2852.434 52492468 51813532 51107028 50387680 49666960 48952436 48247680 
2855.809 47554232 46871964 46200680 45540408 44892268 44257568 43638044 
2859.184 43035720 42452244 41889796 41351188 40838796 40356424 39906836 
2862.560 39492776 39115644 38776016 38473144 38206120 37973248 37773140 
2865.935 37604372 37465548 37355504 37272892 37216180 37183692 37172968 
2869.310 37181488 37205852 37242456 37287840 37338424 37391256 37444092 
2872.685 37494660 37542196 37585372 37624176 37658864 37691028 37722648 
2876.061 37755860 37792872 37835168 37883216 37936256 37993716 38054364 
2879.436 38117736 38183940 38252900 38324736 38398464 38472600 38544828 
2882.811 38613164 38676256 38733812 38786560 38835652 38882544 38927768 
2886.186 38971728 39014140 39055064 39094800 39134244 39174132 39215440 
2889.562 39258196 39302156 39346120 39389256 39430724 39470204 39507724 
2892.937 39543504 39576972 39607532 39634248 39655628 39671568 39681984 
2896.312 39688084 39691748 39695092 39700608 39709904 39724536 39744908 
2899.687 39770940 39802024 39837360 39876148 39918208 39963944 40014696 
2903.063 40072428 40139548 40218236 40310756 40419404 40545864 40692924 
2906.438 40863876 41062904 41295176 41566444 41882720 42250280 42674880 
2909.813 43161188 43712348 44328380 45005888 45735992 46506192 47298892 
2913.188 48093564 48869628 49605892 50283576 50887812 51406164 51830632 
2916.563 52156940 52384420 52516588 52560040 52525040 52423600 52267732 
2919.939 52069820 51839068 51581908 51301744 50999324 50673140 50320336 
2923.314 49937632 49521396 49068500 48576644 48045152 47475424 46870564 
2926.689 46236616 45580664 44910824 44235848 43564116 42903664 42262732 
2930.064 41649328 41071240 40536520 40051756 39622160 39251304 38940488 
2933.440 38689368 38495372 38354848 38262420 38211508 38194904 38204600 
2936.815 38232532 38271464 38315036 38358140 38397376 38430428 38456128 
2940.190 38474228 38484908 38489288 38488636 38484908 38480748 38478432 
2943.565 38481000 38491064 38511412 38544436 38591908 38655320 38735840 
2946.941 38834240 38951688 39089540 39249236 39431556 39636028 39859440 
2950.316 40095176 40333044 40560492 40762468 40924312 41033876 41081404 
2953.691 41061592 40973428 40819360 40604580 40336280 40023340 39674216 
2957.066 39298204 38904536 38500948 38095348 37694712 37304808 36930696 
2960.442 36576440 36244552 35936164 35650948 35386948 35141496 34911844 
2963.817 34695664 34491248 34298116 34115536 33943276 33780184 33624924 
2967.192 33475694 33331022 33190298 33053838 32922640 32798126 32681652 
2970.567 32573852 32475288 32385710 32304894 32232482 32168214 32111912 
2973.943 32063536 32023478 31992838 31973366 31967446 31977468 32005180 
2977.318 32051482 32115444 32195118 32288120 32392100 32505676 32628212 
2980.693 32760002 32901086 33051048 33208538 33370770 33535142 33698464 
2984.068 33857876 34011104 34155716 34289400 34409864 34514456 34601320 
2987.444 34668996 34717052 34745804 34756180 34749320 34725920 34686692 
2990.819 34631856 34561708 34477008 34379196 34270508 34154172 34034360 
2994.194 33915404 33802212 33699072 33609028 33533852 33473544 33426880 
2997.569 33392060 33367730 33353456 33350020 33359036 33382044 33419720 
3000.945 33471220 33534210 33605376 33681424 33759628 33838604 33917700 
3004.320 33997452 34078440 34161020 34245624 34332684 34422844 34516756 
3007.695 34615528 34719244 34827432 34938884 35051908 35164852 35276568 
3011.070 35386912 35496348 35605632 35714944 35824064 35932100 36037820 
3014.446 36140400 36239868 36337236 36434408 36533328 36635736 36742712 
3017.821 36854292 36969768 37088188 37208492 37329976 37452432 37576120 
3021.196 37701652 37829600 37960264 38093428 38228188 38363136 38496348 
3024.571 38626272 38752216 38874280 38993188 39110640 39227916 39345464 
3027.947 39462836 39578456 39690624 39798104 39900956 40000816 40100412 
3031.322 40203156 40311848 40427768 40551180 40680408 40813172 40947212 
3034.697 41080968 41213960 41346816 41481276 41619608 41764040 41916652 
3038.072 42079036 42251596 42434192 42625932 42825184 43030484 43240280 
3041.448 43453144 43668120 43883648 44097888 44307468 44508004 44694528 
3044.823 44861660 45005300 45122848 45214580 45283088 45333544 45372572 
3048.198 45406780 45442168 45483040 45531648 45588356 45652580 45722812 
3051.573 45797844 45876864 45959616 46045924 46135748 46228692 46323824 
3054.948 46419904 46515928 46610864 46704536 46796416 46886800 46975548 
3058.324 47062388 47147068 47229440 47309572 47388056 47465812 47544064 
3061.699 47623552 47704680 47787232 47870684 47954376 48037568 48120104 
3065.074 48201440 48281156 48358368 48431820 48500096 48562376 48618300 
3068.449 48668552 48714736 48758996 48803152 48848608 48895920 48945060 
3071.825 48995536 49047316 49100848 49157396 49218880 49287020 49363224 
3075.200 49447840 49540376 49639248 49741856 49845828 49948488 50047896 
3078.575 50142832 50232912 50318476 50401076 50482096 50563308 50645848 
3081.950 50730040 50814840 50897760 50975292 51043112 51097560 51136288 
3085.326 51158504 51166108 51162680 51153468 51143296 51136736 51136812 
3088.701 51144452 51159508 51181020 51208044 51240592 51279148 51324676 
3092.076 51378488 51440924 51511800 51590264 51675052 51765188 51860124 
3095.451 51960052 52064888 52174800 52288700 52404832 52520180 52631400 
3098.827 52735504 52830056 52913996 52987812 53053176 53112592 53169288 
3102.202 53226252 53285880 53350808 53422296 53501628 53589636 53686620 
3105.577 53792328 53906316 54027460 54154644 54287048 54424604 54568848 
3108.952 54723664 54894328 55088528 55315220 55583340 55902344 56281096 
3112.328 56727160 57248260 57851404 58542624 59327388 60208868 61187188 
3115.703 62257696 63409828 64625308 65875472 67122472 68318656 69405088 
3119.078 70321304 71006216 71403888 71474544 71195696 70567472 69610904 
3122.453 68367440 66893868 65250724 63503468 61712796 59928676 58194700 
3125.829 56543584 54997736 53572580 52274836 51105088 50057972 49124372 
3129.204 48293300 47552716 46891636 46300564 45770964 45295588 44867944 
3132.579 44481792 44131996 43814076 43524152 43259384 43016876 42793956 
3135.954 42587888 42395320 42213176 42038552 41868344 41700208 41531952 
3139.330 41362048 41189552 41014684 40838684 40663740 40492612 40327736 
3142.705 40170444 40020544 39876908 39737172 39598964 39460404 39320400 
3146.080 39178596 39035092 38889932 38743412 38595636 38447116 38298752 
3149.455 38151632 38006192 37862788 37719936 37576088 37428632 37275996 
3152.831 37117388 36953964 36787572 36620776 36455632 36293108 36133092 
3156.206 35974288 35815468 35655556 35494368 35332380 35170852 35011068 
3159.581 34854112 34700796 34551376 34405664 34262760 34121664 33980936 
3162.956 33839248 33695672 33550176 33403084 33255574 33109010 32964174 
3166.332 32821496 32680366 32539922 32399312 32258142 32116372 31974614 
3169.707 31833794 31694300 31556528 31420368 31286136 31153940 31024810 
3173.082 30899772 30779786 30665166 30555342 30449274 30345048 30240810 
3176.457 30135318 30027508 29917418 29805332 29692070 29578588 29465670 
3179.833 29354410 29245270 29138320 29033414 28929630 28825908 28721292 
3183.208 28615318 28508026 28400124 28292604 28186770 28083190 27982002 
3186.583 27882464 27783584 27684056 27582430 27477970 27370112 27258928 
3189.958 27145024 27029596 26914376 26801090 26691392 26585984 26484792 
3193.333 26386510 26289412 26190966 26089690 25984462 25875568 25764030 
3196.709 25651394 25539210 25428916 25321144 25216034 25113158 25011748 
3200.084 24911062 24810296 24709306 24607990 24507048 24407038 24308982 
3203.459 24213328 24120674 24030316 23942006 23854974 23768662 23682644 
3206.834 23596996 23511782 23427110 23342560 23258342 23174382 23091210 
3210.210 23009660 22930814 22855476 22783640 22714542 22647096 22579694 
3213.585 22511536 22442690 22373924 22306216 22240682 22177110 22114276 
3216.960 22050376 21983170 21911654 21835726 21756710 21676804 21598514 
3220.335 21523754 21453290 21387290 21324852 21265032 21206680 21148896 
3223.711 21091256 21033416 20975028 20916020 20856502 20796570 20736616 
3227.086 20677086 20618398 20561280 20506638 20455266 20408170 20365840 
3230.461 20328200 20294104 20261540 20228108 20191034 20148412 20099582 
3233.836 20045100 19986914 19927138 19868170 19811880 19759136 19710242 
3237.212 19664756 19622046 19581212 19541628 19503056 19465386 19428968 
3240.587 19394388 19362238 19332894 19306012 19280760 19255614 19229014 
3243.962 19200164 19168478 19134646 19099364 19063252 19026348 18988028 
3247.337 18946804 18901636 18851874 18798310 18742054 18685496 18630292 
3250.713 18577724 18528136 18481216 18436514 18393718 18352446 18312940 
3254.088 18274890 18237672 18200354 18162350 18123068 18082858 18042826 
3257.463 18003728 17966430 17930690 17895436 17859390 17821068 17780232 
3260.838 17737016 17692632 17648632 17605912 17565096 17525662 17487404 
3264.214 17450116 17413866 17379826 17349202 17323374 17303306 17289170 
3267.589 17280274 17275342 17272170 17267758 17259346 17243830 17218976 
3270.964 17184124 17140070 17089200 17035024 16981340 16930730 16884532 
3274.339 16842440 16803278 16765324 16727239 16688637 16649904 16611414 
3277.715 16573789 16537199 16501540 16466470 16432229 16399298 16368298 
3281.090 16339844 16313972 16290270 16267875 16245758 16223470 16200839 
3284.465 16177863 16154891 16131919 16108364 16084295 16059710 16035678 
3287.840 16014190 15997242 15986413 15982049 15982769 15985830 15987411 
3291.216 15983904 15973454 15955372 15930763 15901890 15871130 15839925 
3294.591 15809240 15778212 15745811 15710734 15672155 15630145 15585700 
3297.966 15540677 15496997 15456858 15422044 15393962 15373742 15362105 
3301.341 15359497 15366019 15380917 15402373 15427091 15450369 15467296 
3304.717 15472274 15461562 15433099 15387508 15327333 15256906 15180690 
3308.092 15102430 15025110 14950410 14879187 14812020 14749593 14692866 
3311.467 14642897 14600575 14565659 14537803 14515841 14498540 14484563 
3314.842 14472402 14460926 14449039 14435988 14421465 14406017 14390981 
3318.218 14378240 14369747 14366903 14370157 14378788 14391221 14405709 
3321.593 14420711 14435680 14450958 14466955 14483946 14501693 14519782 
3324.968 14536501 14550651 14561684 14569120 14573609 14575733 14576418 
3328.343 14576658 14577446 14579776 14584230 14591598 14601775 14614282 
3331.719 14627716 14640532 14651602 14660204 14666647 14671720 14676449 
3335.094 14681213 14685429 14688034 14686834 14679636 14664762 14641218 
3338.469 14608628 14567818 14519815 14465721 14407421 14346389 14283757 
3341.844 14220516 14156943 14093037 14028079 13961351 13892684 13822318 
3345.219 13751655 13681995 13615423 13552793 13494992 13441572 13391507 
3348.595 13343328 13295290 13245448 13192366 13134100 13070003 13000009 
3351.970 12925280 12848313 12772007 12699775 12633695 12574582 12521685 
3355.345 12472988 12426445 12380282 12334158 12288686 12244787 12203448 
3358.720 12164600 12127255 12089982 12051077 12009381 11964795 11918340 
3362.096 11871482 11826228 11784759 11748775 11719397 11697646 11683520 
3365.471 11675998 11672935 11671402 11667931 11658776 11641452 11614089 
3368.846 11576587 11529698 11475056 11414605 11350523 11284953 11220313 
3372.221 11158299 11100883 11049218 11003677 10963645 10927966 10895450 
3375.597 10865144 10837016 10811164 10788711 10769928 10754948 10742824 
3378.972 10732193 10721325 10708692 10693035 10673882 10651334 10626106 
3382.347 10599316 10572257 10546557 10523269 10503613 10487761 10475610 
3385.722 10466377 10459283 10453683 10449407 10447064 10447099 10449814 
3389.098 10454566 10459962 10463628 10463187 10456466 10442449 10421271 
3392.473 10394053 10362561 10328696 10294325 10260634 10228779 10199673 
3395.848 10174030 10152932 10136753 10126070 10120236 10118066 10117557 
3399.223 10116404 10111860 10101855 10084966 10060855 10030405 9995209 
3402.599 9957610 9919878 9883708 9849949 9818903 9790130 9763053 9737536 
3406.456 9713987 9692742 9674616 9659675 9647614 9637823 9629049 9620309 
3410.313 9610587 9599475 9586773 9572309 9556186 9538573 9520149 9501725 
3414.171 9484555 9469417 9457090 9447236 9438872 9430475 9420452 9408160 
3418.028 9393601 9377552 9361267 9345762 9331407 9318170 9305340 9292342 
3421.886 9278971 9265431 9252129 9239436 9227726 9216591 9205727 9194998 
3425.743 9184575 9174896 9166435 9159193 9152663 9145759 9137063 9125491 
3429.601 9110264 9091417 9069966 9047062 9023583 9000986 8980182 8961882 
3433.458 8947135 8936514 8930020 8927146 8926131 8924778 8920922 8912873 
3437.315 8899446 8881218 8858999 8834179 8808108 8781329 8754383 8727505 
3441.173 8701239 8675818 8652359 8630964 8611327 8592435 8572631 8550462 
3445.030 8524950 8496229 8465447 8434771 8406731 8383490 8366432 8355994 
3448.888 8351097 8350082 8350319 8349104 8343868 8332790 8315361 8292024 
3452.745 8265175 8237552 8212125 8191021 8175321 8164584 8157089 8151011 
3456.603 8144563 8136663 8127446 8117082 8106347 8095511 8084675 8072961 
3460.460 8059830 8044338 8026347 8006367 7984935 7963607 7943494 7925744 
3464.317 7910997 7899492 7890651 7883734 7877627 7871352 7863861 7854650 
3468.175 7843348 7829955 7814672 7797804 7779588 7760833 7742011 7723764 
3472.032 7706967 7691554 7677153 7663124 7648084 7631087 7611597 7590455 
3475.890 7568707 7548377 7531014 7517326 7507179 7499055 7490964 7480851 
3479.747 7467536 7450075 7429413 7406729 7383171 7360355 7339158 7319917 
3483.604 7302563 7286457 7270789 7254650 7237434 7218803 7199129 7179355 
3487.462 7160592 7144221 7130916 7120610 7112459 7104982 7096158 7084774 
3491.319 7069753 7051130 7029577 7005972 6981661 6957284 6933985 6912102 
3495.177 6891937 6874028 6858375 6844810 6833365 6823739 6815694 6809131 
3499.034 6803948 6799977 6796846 6793918 6790014 6784057 6775071 6762686 
3502.892 6747542 6731423 6716179 6704502 6698075 6697537 6702584 6711333 
3506.749 6721193 6729337 6733005 6730952 6722909 6710627 6696258 6683102 
3510.606 6674017 6670282 6672402 6678896 6687779 6696292 6702483 6704973 
3514.464 6703425 6698446 6691514 6684380 6679165 6677348 6680343 6688788 
3518.321 6702214 6719746 6739600 6759691 6778033 6793447 6805597 6814853 
3522.179 6822157 6828552 6834645 6841107 6847772 6854504 6861472 6869181 
3526.036 6877697 6887291 6897795 6908399 6918196 6926242 6932370 6937184 
3529.894 6941695 6947217 6955365 6967284 6983210 7003447 7027288 7053891 
3533.751 7081911 7109663 7135295 7156819 7173291 7184273 7191280 7196535 
3537.608 7203172 7213817 7230392 7252831 7279583 7308730 7337474 7363456 
3541.466 7384991 7401236 7411819 7416302 7414482 7405988 7390316 7368208 
3545.323 7340877 7310515 7280627 7254617 7235311 7224733 7222880 7228102 
3549.181 7236861 7244543 7246969 7240668 7223823 7197479 7164465 7128592 
3553.038 7094002 7063624 7038030 7016849 6998160 6980281 6962065 6943412 
3556.896 6924660 6906379 6889143 6872614 6855817 6838381 6819532 6799539 
3560.753 6779244 6760027 6743100 6729774 6720116 6713184 6707296 6698479 
3564.610 6681991 6652786 6606627 6541467 6459771 6368037 6276288 6195112 
3568.468 6132501 6092008 6072251 6067312 6070100 6073830 6073494 6066774 
3572.325 6053603 6035729 6014764 5992389 5969681 5946502 5923358 5900586 
3576.183 5878721 5858638 5840838 5825323 5811690 5799701 5789191 5780326 
3580.040 5773611 5769179 5767097 5766627 5766828 5766694 5765284 5761893 
3583.897 5755513 5744467 5726001 5696927 5655065 5599715 5534236 5465244 
3587.755 5402067 5354196 5327394 5323000 5337122 5363253 5392741 5418406 
3591.612 5435013 5439811 5432363 5414212 5388111 5357014 5324308 5293685 
3595.470 5267658 5248609 5237609 5234691 5237844 5244316 5250487 5253036 
3599.327 5249481 5239453 5223792 5205449 5187643 5173492 5165613 5164909 
3603.185 5171246 5183183 5198474 5214034 5226441 5231740 5226508 5207863 
3607.042 5175337 5130877 5079414 5027858 4983312 4951104 4931935 4922719 
3610.899 4917290 4908343 4889711 4858917 4818108 4773483 4732816 4703440 
3614.757 4688535 4687329 4693927 4699789 4696440 4675774 4633207 4568979 
3618.614 4487954 4398978 4312898 4240487 4188227 4159222 4151427 4160493 
3622.472 4180565 4206427 4235401 4266351 4300316 4337763 4377390 4413271 
3626.329 4435664 4430777 4385154 4291314 4154405 3995133 3843408 3730367 
3630.187 3672120 3667475 3701493 3754096 3805802 3842371 3858317 3855008 
3634.044 3839463 3820409 3805100 3795908 3791730 3788287 3781369 3768835 
3637.901 3750854 3729297 3706840 3685654 3666473 3649866 3635933 3625809 
3641.759 3621833 3626277 3640644 3665103 3697249 3733041 3767130 3793869 
3645.616 3808443 3807139 3787619 3748314 3689363 3612578 3521175 3421510 
3649.474 3322936 3236268 3172947 3141707 3145679 3182727 3245214 3321834 
3653.331 3399002 3464326 3507213 3521075 3506077 3469303 3424850 3388416 
3657.188 3372421 3382238 3415499 3463357 3513927 3557220 3585249 3595104 
3661.046 3588589 3571284 3550505 3533602 3526086 3530929 3548968 3579302 
3664.903 3620196 3669046 3722948 3778026 3829702 3872191 3900240 3911908 
3668.761 3910905 3909334 3927923 3992725 4123696 4331739 4611875 4948423 
3672.618 5317466 5689776 6035393 6318781 6505040 6567267 6495825 6305098 
3676.476 6026288 5695718 5340845 4978821 4621419 4279401 3966041 3697149 
3680.333 3484132 3332185 3236635 3186331 3167073 3167373 3180858 3206225 
3684.190 3244046 3293188 3347577 3396130 3425150 3420575 3374257 3287212 
3688.048 3171178 3045799 2932232 2846176 2793250 2770940 2772308 2789681 
3691.905 2818128 2853680 2894005 2936035 2976201 3011032 3037758 3056143 
3695.763 3067922 3077232 3088545 3104530 3125421 3147949 3167140 3177019 
3699.620 3172847 3152321 3116844 3071593 3024011 2982873 2955584 2947177 
3703.478 2958920 2989613 3035055 3089846 3148316 3205024 3255096 3295658 
3707.335 3324605 3341367 3345975 3338595 3319130 3287312 3243445 3188234 
3711.192 3125054 3060481 3001857 2957986 2935168 2936335 2960254 3001757 
3715.050 3053674 3108000 3157494 3197280 3225319 3242744 3252592 3259035 
3718.907 3265745 3273657 3282538 3289949 3293755 3292754 3287178 3278965 
3722.765 3270219 3262507 3256164 3249220 3239706 3226220 3209630 3193441 
3726.622 3183795 3187266 3208562 3248352 3302569 3363906 3422211 3467766 
3730.479 3494153 3499263 3487005 3465361 3443251 3426119 3413228 3396664 
3734.337 3366243 3314455 3240808 3154624 3072261 3011499 2983140 2989246 
3738.194 3023644 3076899 3140906 3211232 3286878 3367612 3450599 3526554 
3742.052 3578868 3586017 3528558 3399736 3217408 3023911 2874159 2807256 
3745.909 2830234 2922592 3049703 3176585 3273324 3322435 3318596 3269351 
3749.767 3190370 3099824 3012634 2937369 2878595 2840239 2827366 2843374 
3753.624 2888168 2956151 3036223 3115042 3181258 3226754 3249187 3251691 
3757.481 3240374 3221113 3197513 3170577 3140573 3109936 3084474 3071426 
3761.339 3077166 3103462 3145779 3194710 3238238 3266814 3276094 3268516 
3765.196 3252492 3238772 3235333 3244013 3259469 3272923 3274659 3258167 
3769.054 3223283 3175017 3123585 3079735 3051138 3041629 3049770 3071059 
3772.911 3099357 3129259 3156359 3178588 3196312 3211666 3226621 3242277 
3776.769 3257166 3267248 3267481 3253326 3224117 3184262 3143042 3111771 
3780.626 3099023 3107967 3135033 3171946 3208161 3235200 3248887 3249721 
3784.483 3242544 3233130 3226821 3225352 3228523 3233998 3240174 3246349 
3788.341 3253293 3261672 3271888 3283005 3293722 3303337 3312352 3322936 
3792.198 3337794 3358363 3383707 3409655 3430360 3439979 3435303 3417770 
3796.056 3394293 3374558 3367545 3377463 3401873 3432364 3455342 3456410 
3799.913 3424215 3354790 3255630 3145679 3051772 2996986 2992282 3034121 
3803.771 3106465 3187400 3252725 3282604 3266112 3204389 3112506 3015136 
3807.628 2939304 2901377 2905313 2942307 2999088 3062583 3124019 3181091 
3811.485 3235901 3291752 3349681 3406048 3452269 3477519 3471707 3431362 
3815.343 3363238 3285175 3220779 3189269 3199449 3246316 3314455 3381804 
3819.200 3427421 3433266 3390854 3305374 3196445 3093551 3022376 2998053 
3823.058 3019340 3074029 3142408 3205624 3250355 3270018 3266780 3249888 
3826.915 3232095 3224418 3232028 3253794 3283673 3313754 3337126 3350215 
3830.772 3353588 3350950 3347644 3348512 3357294 3375326 3401339 3432431 
3834.630 3463925 3489543 3502069 3495756 3466764 3416400 3350616 3280735 
3838.487 3218743 3173014 3147581 3140306 3145679 3156526 3167507 3175050 
3842.345 3177553 3175784 3170744 3164436 3159029 3157227 3162000 3176051 
3846.202 3200885 3236735 3282638 3337026 3398234 3465695 3538913 3615919 
3850.060 3692404 3758006 3796577 3788889 3715596 3568545 3359231 3124553 
3853.917 2912985 2767039 2705354 2720457 2790682 2889836 2997620 3100225 
3857.774 3190170 3265278 3325574 3371719 3404478 3424415 3433399 3433266 
3861.632 3427188 3416935 3402775 3383307 3357428 3326342 3296193 3276996 
3865.489 3278865 3308646 3364507 3435169 3502570 3547465 3553178 3513526 
3869.347 3436372 3343237 3261773 3212868 3203221 3224084 3258935 3288013 
3873.204 3298463 3286644 3259235 3229992 3214136 3222682 3257900 3314422 
3877.062 3380902 3444587 3493251 3518069 3515363 3488141 3445990 3402007 
3880.919 3370651 3362103 3379299 3416668 3461821 3499130 3512825 3492616 
3884.776 3437674 3359197 3278431 3219010 3198982 3223182 3283306 3361334 
3888.634 3436639 3490579 3509484 3489777 3437140 3366110 3294189 3237470 
3892.491 3205591 3200084 3217074 3249755 3291819 3338295 3385511 3431596 
3896.349 3473845 3509584 3535807 3549937 3550772 3539648 3520507 3497626 
3900.206 3475315 3455108 3435804 3413061 3382472 3340632 3288013 3229391 
3904.063 3172046 3125655 3097422 3090781 3104797 3135066 3175350 3218976 
3907.921 3260938 3297895 3328278 3352119 3370517 3385344 3398568 3412026 
3911.778 3427421 3445790 3467031 3490278 3513660 3534103 3549135 3556585 
3915.636 3555416 3546229 3530796 3511522 3491280 3472342 3456177 3444120 
3919.493 3436806 3435036 3439144 3448762 3462422 3477218 3489911 3496825 
3923.351 3495990 3487305 3473544 3459249 3449497 3448896 3458748 3478254 
3927.208 3503205 3529159 3551173 3565939 3572286 3570816 3563500 3552543 
3931.065 3539715 3526687 3514228 3503505 3495656 3492583 3495522 3504708 
3934.923 3519171 3536775 3554347 3569380 3580037 3585850 3587921 3587888 
3938.780 3586986 3585683 3582710 3576395 3564703 3546663 3523447 3498161 
3942.638 3474880 3458247 3451167 3454707 3467265 3485568 3504975 3521576 
3946.495 3531798 3534303 3529193 3518236 3504006 3489710 3477753 3469837 
3950.353 3466497 3467532 3471674 3477820 3484667 3491414 3497292 3502169 
3954.210 3505676 3508248 3510186 3512123 3514695 3519104 3525518 3533969 
3958.067 3543924 3553979 3562598 3568311 3569914 3567342 3561295 3553010 
3961.925 3544191 3536508 3531097 3528658 3529426 3533635 3540851 3551073 
3965.782 3563634 3577598 3591997 3605228 3615652 3621532 3622100 3616854 
3969.640 3606631 3593367 3579168 3566874 3558890 3556451 3559859 3568110 
3973.497 3579603 3592298 3604693 3615685 3625408 3634195 3642649 3650401 
3977.354 3657284 3661962 3663265 3660792 3654611 3646358 3638004 3632057 
3981.212 3630186 3633761 3642348 3654845 3669447 3684116 3697082 3707442 
3985.069 3715094 3720575 3725187 3730334 3737185 3746542 3758173 3770606 
3988.927 3782338 3790995 3795273 3794337 3789123 3781101 3772612 3765961 
3992.784 3762719 3764022 3769637 3778828 3790661 3803329 3815228 3824788 
3996.642 3831039 3832878 3830872 3826092 3820309 3815262 3812955 3813691 
4000.499 3816933 
##END=
