
##TITLE=1132a_1_c
##JCAMP-DX=5.01  $$ Nicolet v. 1
##DATATYPE=INFRARED SPECTRUM
##ORIGIN=UniL
##OWNER=Nicolet
##LONGDATE=2011/09/21
##TIME=13:53:39
##SPECTROMETER/DATA SYSTEM=Nicolet iS5
##DATA PROCESSING=
Ratio against background
%Transmittance->Absorbance
Truncated
ElementMultiply or ElementDivide
##COMMENTS=
Number of sample scans: 32
Collection length: 51.20 sec
Sample gain: 2.0
Background collected on: Mer Sep 21 13:48:37 2011 (GMT+02:00);
Number of background scans: 32
Background gain: 2.0
Sample spacing:  1.000
Number of scan points: 12415
Resolution points: 8192
Number of FFT points: 65536
Apodization: N-B fort;
Phase correction: Mertz;
Laser frequency: 15798.0 cm-1
Number of rejected sample scans: 0
Number of rejected background scans: 0
Bench serial number: ASB1000141;
##RESOLUTION=4.000
##XUNITS=1/CM
##YUNITS=ABSORBANCE
##FIRSTX=649.893372
##LASTX=4000.122314
##FIRSTY=0.052878
##MAXX=4000.122314
##MINX=649.893372
##MAXY=0.308569
##MINY=-0.001650
##XFACTOR=1.000000
##YFACTOR=1.000000E-009
##NPOINTS=6950
##DELTAX=0.482117
##ZPD=6100
##XYDATA=(X++(Y..Y))
649.893 52878180 53400336 53903840 54419756 54979948 55609132 56322176 
653.268 57122736 58010880 58988208 60058168 61227208 62499564 63877628 
656.643 65364376 66969828 68712952 70624272 72740216 75093432 77711536 
660.018 80613744 83808752 87293472 91036440 94961304 98920008 102704504 
663.393 106085232 108835032 110790576 111851096 111945416 111010472 
666.285 108981680 105855256 101781216 97155144 92557008 88500088 85246480 
669.660 82774016 80902704 79419272 78154992 77013400 75958120 74997928 
673.035 74159760 73469736 72937952 72557112 72309040 72174504 72141600 
676.410 72208304 72381720 72672960 73093416 73648128 74335984 75149408 
679.785 76079264 77119520 78273648 79553952 80983392 82589752 84400992 
683.159 86447904 88765640 91394696 94391072 97820584 101751104 106252736 
686.534 111387304 117209200 123773896 131133272 139319360 148298064 
689.427 157909424 167786464 177268048 185477072 191361872 193885584 
692.320 192350480 186524704 176772672 163944288 149254464 134034872 
695.212 119438208 106423440 95597320 87203952 81227808 77443032 75528264 
698.587 75132752 75973672 77875944 80762896 84624024 89430824 95026912 
701.962 101069304 106979656 111969296 115249672 116155088 114350400 
704.855 109937016 103427264 95623088 87359784 79415408 72335416 66378944 
708.229 61589292 57845576 54963136 52748412 51049556 49760660 48799812 
711.604 48100376 47600444 47241408 46981972 46801916 46700628 46686860 
714.979 46765160 46926264 47148032 47400584 47659568 47915156 48171856 
718.354 48443152 48740424 49066644 49414012 49770616 50127584 50486968 
721.729 50862108 51273628 51739880 52270760 52865116 53512496 54197440 
725.104 54902636 55611772 56306368 56964720 57564520 58085908 58520520 
728.478 58878688 59193668 59517080 59903000 60399480 61031884 61799768 
731.853 62681960 63649496 64680488 65768048 66923864 68169856 69529464 
735.228 71015968 72628664 74357616 76193560 78138328 80212456 82451280 
738.603 84899024 87597848 90576952 93853416 97436832 101337472 105575288 
741.978 110184064 115208496 120709360 126767112 133488896 141029216 
744.870 149575792 159307008 170315856 182483472 195359424 208005520 
747.763 219096352 227060400 230406336 228307056 220880720 209298864 
750.656 195371104 181205696 168726784 159237536 153469344 151490176 
753.548 152844528 156673840 161924720 167595856 172770256 176794768 
756.441 179295216 180101232 179196240 176629024 172462784 166761040 
759.334 159610416 151167568 141683712 131525560 121172272 111123096 
762.227 101882880 93893712 87445776 82685336 79579896 77944920 77468216 
765.601 77773320 78502408 79322008 79979528 80313824 80230560 79705120 
768.976 78766760 77494992 76005360 74436416 72939008 71638088 70620216 
772.351 69922712 69535848 69420864 69531640 69834952 70314016 70964392 
775.726 71782816 72756952 73863112 75074568 76369168 77739480 79191888 
779.101 80738792 82386584 84126864 85934200 87774752 89616592 91437344 
782.475 93228152 94987568 96711744 98387312 99988656 101481464 102833632 
785.850 104019352 105021376 105829040 106428472 106798560 106912472 
788.743 106740896 106263320 105476168 104394296 103046472 101464688 99677432 
792.118 97702888 95551656 93233864 90765488 88171000 85481856 82726464 
795.493 79925952 77092176 74232432 71359328 68500224 65695852 62999636 
798.867 60465020 58130564 56018732 54134116 52470260 51017588 49767008 
802.242 48709140 47828404 47099908 46490740 45961976 45481020 45026616 
805.617 44590312 44174292 43783404 43420588 43084892 42776332 42502372 
808.992 42282236 42148696 42142924 42302064 42654040 43209972 43961884 
812.367 44881280 45917524 47000468 48029648 48885168 49444532 49590884 
815.742 49248828 48401444 47098432 45445444 43581884 41658336 39795452 
819.116 38077408 36548616 35219788 34084532 33129464 32339982 31698756 
822.491 31183024 30766448 30420240 30121076 29856900 29626972 29438224 
825.866 29297054 29204266 29152492 29129354 29123898 29131870 29156886 
829.241 29206746 29287554 29398550 29531346 29675146 29821480 29969922 
832.616 30128108 30307918 30518230 30760046 31025448 31302444 31581756 
835.990 31861712 32149446 32456652 32794662 33168410 33576128 34012288 
839.365 34473776 34963880 35492752 36073176 36715096 37421340 38188100 
842.740 39008228 39877780 40800176 41786032 42848808 43997300 45230208 
846.115 46533188 47881708 49241776 50573064 51831752 52964412 53910780 
849.490 54610852 55007100 55063664 54776772 54182648 53353616 52385432 
852.865 51386060 50446552 49634600 48989824 48523624 48227984 48082684 
856.239 48062436 48137576 48277116 48453896 48645240 48838260 49031700 
859.614 49234244 49460424 49724136 50036596 50404164 50830596 51320088 
862.989 51877600 52505372 53195836 53924848 54646736 55292412 55784816 
866.364 56046780 56015340 55658624 54978108 54010504 52817372 51482556 
869.739 50100512 48760664 47551424 46546724 45798688 45341676 45188656 
873.113 45337592 45779284 46506268 47518188 48825172 50446440 52405728 
876.488 54727160 57425784 60497124 63901348 67554456 71307592 74939416 
879.863 78191208 80769200 82401600 82904976 82208056 80389416 77655304 
883.238 74327296 70772592 67332280 64312704 61930320 60311492 59515144 
886.613 59538328 60337456 61833004 63919896 66460104 69268032 72127520 
889.987 74779112 76934088 78330072 78743608 78040480 76206832 73352296 
893.362 69699352 65525664 61147940 56854384 52858680 49306768 46259248 
896.737 43713228 41625624 39936588 38585532 37513876 36671392 36011828 
900.112 35491384 35074572 34734032 34452580 34222784 34040776 33902080 
903.487 33798452 33717728 33647908 33582356 33521540 33472362 33443842 
906.862 33441480 33464062 33504468 33552576 33601008 33648624 33700148 
910.236 33762956 33842292 33938332 34046220 34159264 34272800 34387516 
913.611 34508828 34644164 34798140 34970344 35156016 35348988 35545648 
916.986 35748400 35963524 36199348 36460928 36747328 37052032 37366340 
920.361 37683908 38003516 38329912 38670204 39031756 39419332 39835360 
923.736 40283600 40771388 41310772 41915160 42591652 43333300 44112560 
927.110 44885360 45591852 46170572 46574900 46778812 46785936 46626804 
930.485 46355420 46037304 45737096 45517076 45424436 45490772 45732788 
933.860 46151780 46737080 47467696 48316520 49249684 50224768 51196676 
937.235 52115508 52933908 53618460 54155172 54558216 54867108 55145744 
940.610 55468044 55900572 56497316 57288144 58278356 59453172 60782220 
943.985 62225460 63729992 65233940 66665964 67942440 68982864 69715072 
947.359 70084896 70069392 69676832 68947488 67941200 66733920 65407976 
950.734 64038336 62697580 61447584 60333572 59387556 58622860 58037240 
954.109 57616920 57343764 57200896 57175456 57260092 57449532 57736948 
957.484 58113176 58566356 59084508 59659876 60290208 60978540 61730748 
960.859 62552788 63448788 64421260 65474236 66616824 67863832 69237872 
964.233 70764904 72467960 74364928 76464104 78763032 81251336 83914816 
967.608 86742024 89728888 92884136 96229144 99795904 103613984 107696536 
970.983 112018912 116506696 121020144 125351832 129265832 132507000 
973.876 134851936 136164640 136414144 135701008 134229984 132302176 
976.768 130254192 128395304 127000984 126254424 126232176 126900016 
979.661 128111824 129630848 131133496 132280304 132748560 132270720 
982.554 130699696 128014904 124328792 119848280 114848360 109626720 
985.447 104441624 99516984 95015864 91031864 87608392 84740920 82392632 
988.821 80505144 79013032 77855528 76976016 76329184 75879120 75593992 
992.196 75447368 75416376 75480712 75625504 75839896 76116296 76449016 
995.571 76831608 77256512 77716168 78203544 78714368 79247640 79804696 
998.946 80387544 80996888 81631200 82287056 82961040 83650688 84355720 
1002.321 85078064 85820008 86583296 87368576 88175952 89006672 89864080 
1005.695 90754264 91684408 92660552 93685440 94757704 95872296 97022520 
1009.070 98203000 99410744 100645408 101908232 103200032 104520264 105866968 
1012.445 107237968 108633464 110056656 111515184 113019248 114579744 
1015.338 116207264 117910448 119695928 121569784 123537264 125603560 
1018.231 127773152 130049376 132433232 134923040 137513184 140191408 
1021.123 142935008 145708192 148453472 151091040 153527312 155652960 
1024.016 157365440 158588960 159285008 159468512 159204496 158605344 
1026.909 157802848 156929136 156104640 155411488 154890752 154537072 
1029.802 154300000 154084464 153753872 153153600 152110656 150456384 
1032.695 148060784 144836880 140766880 135905936 130383608 124390120 
1035.588 118143376 111888904 105853728 100220216 95126512 90642672 86779208 
1038.963 83501672 80747888 78445728 76522904 74919408 73584376 72473984 
1042.339 71552248 70787456 70152920 69630000 69205424 68870136 68617048 
1045.714 68437808 68322424 68261664 68248208 68280152 68359528 68490872 
1049.089 68676112 68911288 69182928 69470096 69746200 69981448 70149184 
1052.464 70227264 70200088 70061680 69816664 69482536 69087120 68669592 
1055.840 68274376 67941584 67705232 67586632 67593680 67724632 67971304 
1059.215 68322504 68762824 69271024 69816784 70356176 70835624 71198040 
1062.590 71387168 71361904 71101240 70607040 69902552 69028264 68037184 
1065.965 66982852 65920120 64898884 63956784 63121700 62407548 61816236 
1069.341 61341292 60972896 60703296 60528548 60448336 60464332 60575744 
1072.716 60777988 61062508 61418616 61836864 62310624 62835908 63409976 
1076.091 64029156 64687788 65380128 66102156 66856064 67650552 68501344 
1079.466 69428800 70452064 71589992 72858944 74274424 75855408 77625240 
1082.842 79610144 81839968 84342640 87140968 90251472 93680008 97419048 
1086.217 101440536 105695256 110106992 114570168 118968040 123176496 
1089.110 127080936 130598664 133677008 136294448 138448016 140134432 
1092.003 141335120 142014144 142124496 141634352 140554784 138965408 
1094.896 137021376 134933888 132964520 131366672 130352600 130078656 
1097.789 130607200 131905512 133834752 136174336 138623200 140818704 
1100.682 142406784 143049456 142479680 140554016 137253776 132695256 
1103.575 127090888 120732112 113937904 107002032 100200192 93749784 87799456 
1106.950 82446232 77726632 73632072 70122864 67142232 64627656 62514520 
1110.326 60744184 59261072 58010804 56945868 56022084 55201876 54458140 
1113.701 53771216 53128508 52523168 51951164 51410900 50903460 50432856 
1117.076 50005516 49628624 49308064 49045948 48840448 48686420 48578092 
1120.451 48511728 48486052 48502504 48563008 48668148 48816124 49003548 
1123.827 49227564 49487532 49785624 50126840 50515960 50956400 51449280 
1127.202 51993960 52590036 53239176 53945180 54713556 55548620 56450904 
1130.577 57415456 58432376 59487860 60564544 61643900 62706308 63728876 
1133.952 64689524 65566936 66344628 67016760 67590968 68090896 68551352 
1137.328 69017360 69536856 70152224 70901152 71813264 72909496 74204360 
1140.703 75705328 77412736 79317640 81403056 83644536 86007744 88452440 
1144.078 90931800 93386912 95751624 97948680 99887472 101477328 102627072 
1147.453 103254960 103303336 102739968 101563560 99800784 97503264 94740808 
1150.829 91590744 88141408 84483336 80701488 76879736 73090360 69390384 
1154.204 65828232 62439916 59252796 56290340 53568716 51097820 48880048 
1157.579 46909872 45175716 43662260 42353568 41232688 40281052 39478908 
1160.954 38802572 38225728 37724384 37276972 36868072 36489544 36137628 
1164.330 35810824 35507784 35226260 34964344 34721972 34502440 34311888 
1167.705 34157364 34044792 33976672 33952200 33968788 34024648 34120372 
1171.080 34258636 34442964 34675384 34955296 35279120 35642748 36043832 
1174.455 36483164 36965040 37495708 38080228 38721824 39421364 40179128 
1177.831 40996440 41876664 42823868 43840212 44922284 46059300 47231988 
1181.206 48417668 49592928 50738044 51841420 52898648 53912616 54891996 
1184.581 55850756 56808196 57786604 58812212 59909692 61096640 62379092 
1187.956 63746376 65170912 66607244 67999552 69288592 70413640 71323640 
1191.332 71979400 72353424 72433160 72217896 71717224 70946640 69925832 
1194.707 68676304 67218784 65577648 63784784 61880532 59920800 57972784 
1198.082 56103028 54374128 52828632 51481400 50321676 49318308 48432004 
1201.457 47623588 46865804 46145444 45461484 44821248 44236252 43718212 
1204.833 43277284 42921624 42656492 42483516 42399704 42397552 42467480 
1208.208 42599292 42786060 43025476 43319568 43672592 44088024 44567292 
1211.583 45109464 45712800 46377096 47105484 47904020 48780384 49740856 
1214.958 50789440 51927372 53155316 54475536 55894352 57421432 59069932 
1218.333 60854332 62787852 64883656 67155504 69617944 72288568 75186560 
1221.709 78329400 81730408 85394280 89314328 93467976 97816464 102303584 
1225.084 106845896 111337680 115646552 119604400 123029472 125727952 
1227.977 127509352 128226520 127786800 126175192 123458008 119779472 
1230.870 115346280 110386784 105153056 99888136 94796408 90055488 85792720 
1234.245 82082392 78960016 76423960 74448968 72994040 72011072 71449312 
1237.621 71253120 71369600 71747472 72338160 73101728 74003592 75011272 
1240.996 76094464 77216088 78331536 79392496 80346280 81144400 81752008 
1244.371 82148720 82333632 82322416 82146040 81845728 81467960 81066088 
1247.746 80692904 80395680 80214576 80172960 80275952 80509768 80847416 
1251.122 81253536 81690936 82130024 82549032 82937056 83293744 83629000 
1254.497 83963176 84323488 84746080 85269624 85928384 86748976 87742392 
1257.872 88901432 90199016 91591192 93021136 94416600 95699160 96786896 
1261.247 97592240 98036544 98052024 97588008 96621096 95154560 93219200 
1264.623 90864408 88155576 85167784 81976656 78665048 75318128 72014048 
1267.998 68829488 65827080 63050472 60529692 58280100 56307540 54613444 
1271.373 53195204 52045540 51150752 50491172 50042728 49779608 49680112 
1274.748 49727960 49912168 50225772 50662344 51213972 51872300 52629044 
1278.124 53479064 54422048 55461568 56603976 57855832 59223244 60711988 
1281.499 62329824 64088108 66002004 68087176 70356288 72811568 75440896 
1284.874 78212304 81077864 83974352 86825136 89553792 92082680 94339312 
1288.249 96264912 97811408 98944520 99645544 99906200 99725992 99106552 
1291.625 98046920 96542296 94587784 92186112 89358816 86152408 82647984 
1295.000 78951360 75184744 71484784 67979168 64784908 62008204 59728304 
1298.375 58002020 56858276 56294452 56278800 56753216 57646924 58876448 
1301.750 60354704 62001288 63732372 65465644 67123248 68623912 69893176 
1305.125 70870256 71506576 71772496 71656648 71162600 70309536 69134632 
1308.501 67703752 66109792 64478412 62962064 61704200 60824108 60382460 
1311.876 60358968 60646412 61061284 61395412 61438116 61035468 60123504 
1315.251 58728220 56955728 54952420 52885292 50896976 49086308 47510132 
1318.626 46180708 45083076 44188960 43471892 42911636 42494480 42211312 
1322.002 42052608 42007200 42063520 42210876 42441096 42749200 43130556 
1325.377 43578840 44084428 44632796 45207300 45792576 46374776 46944240 
1328.752 47495236 48023684 48526512 49001360 49447576 49866712 50264124 
1332.127 50648492 51029252 51415412 51813644 52227448 52658664 53109148 
1335.503 53581988 54081872 54613896 55181564 55785796 56424492 57094432 
1338.878 57793036 58521012 59281924 60082368 60928400 61823760 62769472 
1342.253 63764332 64806908 65897644 67040072 68240640 69507848 70849584 
1345.628 72271432 73776280 75364392 77034656 78785520 80617064 82529520 
1349.004 84522696 86594256 88737760 90942920 93198216 95492456 97820208 
1352.379 100184584 102598440 105082400 107661760 110365424 113220248 
1355.272 116251512 119481752 122924184 126577448 130413752 134376656 
1358.165 138372368 142276512 145963472 149314784 152249840 154741152 
1361.058 156812832 158529296 159968720 161213968 162330448 163361232 
1363.951 164335264 165267408 166163280 167021520 167835824 168599904 
1366.844 169315680 170002448 170702752 171482720 172414400 173566752 
1369.737 174991888 176717664 178755552 181108896 183783440 186786496 
1372.630 190123328 193786176 197743888 201945280 206334784 210873680 
1375.523 215557136 220410960 225471552 230749872 236200240 241691488 
1378.417 247024576 251945200 256164736 259413488 261432352 261980240 
1381.310 260873504 258006608 253414960 247288736 239959808 231811264 
1384.203 223149424 214166848 204901856 195291760 185258992 174804928 
1387.096 164057296 153253408 142668656 132538112 123026920 114221984 
1389.989 106168360 98902832 92446024 86807368 81972048 77891480 74493920 
1393.364 71696936 69431832 67639320 66267544 65264472 64559640 64071940 
1396.739 63729376 63479656 63312484 63262036 63402920 63824320 64601392 
1400.115 65783740 67385560 69399056 71805088 74578192 77674808 81007312 
1403.490 84440384 87770584 90738864 93089248 94592640 95099168 94563968 
1406.865 93038056 90652920 87581952 84035424 80230792 76369440 72648096 
1410.240 69225400 66209652 63663228 61598612 59997488 58828676 58065148 
1413.615 57687180 57677760 58015388 58666324 59584728 60728028 62063168 
1416.991 63578376 65284608 67202728 69343240 71684944 74173664 76739080 
1420.366 79323520 81902464 84482528 87083312 89711088 92339408 94901480 
1423.741 97284792 99365632 101033760 102210416 102855256 102946584 102462296 
1427.116 101376256 99668176 97349880 94481216 91181808 87613208 83936928 
1430.492 80302784 76829400 73601880 70689104 68139112 65974040 64191684 
1433.867 62761508 61637256 60769796 60128756 59713820 59551856 59675500 
1437.242 60095080 60781988 61677656 62712504 63822208 64960724 66092820 
1440.617 67190968 68233976 69200296 70071192 70834136 71483568 72021944 
1443.993 72456528 72795696 73043584 73198976 73257056 73217720 73092752 
1447.368 72914120 72728712 72586488 72527008 72564320 72690200 72884096 
1450.743 73129568 73424064 73781544 74223984 74769344 75418664 76155224 
1454.118 76944096 77743480 78517056 79235984 79886008 80464544 80976680 
1457.494 81423280 81798128 82093600 82308408 82452760 82548960 82625064 
1460.869 82708504 82820840 82973352 83169928 83411768 83702832 84053520 
1464.244 84480304 85000392 85630256 86384912 87279128 88334904 89578712 
1467.619 91035048 92720440 94636184 96770088 99092896 101569376 104158512 
1470.995 106798432 109403728 111854952 114005920 115717728 116886560 
1473.888 117456032 117411480 116761496 115532440 113772448 111559264 
1476.781 108997600 106195016 103247648 100216544 97124408 93974216 90766384 
1480.156 87513456 84252440 81036096 77918992 74947528 72147472 69525968 
1483.531 67078232 64792328 62655240 60654564 58780076 57026644 55396704 
1486.906 53900616 52554396 51374684 50372164 49549364 48902040 48426188 
1490.282 48120400 47986940 48025688 48227760 48571456 49025656 49552856 
1493.657 50120072 50703968 51291264 51880548 52474484 53070880 53653964 
1497.032 54193684 54651208 54993408 55199168 55266520 55211360 55064756 
1500.407 54867896 54662744 54491688 54388660 54375216 54459572 54633324 
1503.783 54873840 55142624 55394260 55587592 55702240 55754940 55799136 
1507.158 55901512 56100992 56396796 56758464 57148360 57534180 57895812 
1510.533 58226600 58528140 58808152 59076236 59341976 59612096 59890068 
1513.908 60174768 60461248 60743040 61014992 61279708 61550580 61852640 
1517.284 62212576 62647624 63157296 63721820 64306436 64870960 65386788 
1520.659 65849596 66288040 66750340 67283232 67905248 68599472 69325672 
1524.034 70038288 70704352 71306728 71849536 72351112 72836448 73325824 
1527.409 73830592 74357856 74916344 75519944 76186576 76931280 77758616 
1530.785 78658728 79613688 80604376 81623680 82685656 83825672 85088048 
1534.160 86499016 88060152 89747432 91529872 93378240 95275728 97225400 
1537.535 99237816 101335872 103549456 105911576 108447056 111161176 
1540.428 114049312 117087352 120249176 123523880 126909288 130413712 
1543.321 134042232 137783408 141595152 145401776 149113520 152638288 
1546.214 155899696 158844480 161415344 163539712 165135216 166116016 
1549.107 166441424 166146480 165347392 164192000 162793328 161195344 
1552.000 159367264 157250448 154823520 152152880 149401792 146788992 
1554.894 144484144 142552000 140922640 139424224 137816816 135851536 
1557.787 133357656 130325768 126983984 123723800 120900856 118655760 
1560.680 116922904 115530848 114302504 113091728 111776856 110265376 
1563.573 108499456 106471624 104233656 101884648 99540312 97276176 95103296 
1566.948 92961792 90748424 88352368 85704920 82819520 79800672 76812632 
1570.323 74010184 71490720 69272736 67318736 65567820 63959896 62445272 
1573.698 60984332 59546532 58117268 56713984 55402840 54295876 53522728 
1577.074 53178316 53299440 53872780 54861280 56232972 57975284 60098884 
1580.449 62628144 65588556 68992768 72826376 77037496 81537880 86184648 
1583.824 90785424 95118096 98924920 101962872 104038000 105014624 104844808 
1587.199 103569896 101331568 98354656 94934960 91420208 88132072 85349952 
1590.575 83285592 82059536 81727016 82286336 83698496 85894984 88787880 
1593.950 92281344 96260080 100596960 105164032 109825416 114459456 118967336 
1597.325 123261864 127264600 130890224 134027480 136553968 138350032 
1600.218 139321744 139429200 138691040 137180384 135001792 132284880 
1603.111 129177136 125824720 122379288 118977800 115718816 112664368 
1606.004 109832760 107209976 104767328 102477776 100327072 98312272 96436616 
1609.380 94699936 93093960 91605064 90221248 88939160 87765712 86712000 
1612.755 85784160 84971664 84242544 83544288 82817752 82011352 81108336 
1616.130 80144712 79210736 78418816 77853184 77546488 77475584 77587448 
1619.505 77820368 78124008 78468112 78840064 79247008 79709696 80258696 
1622.881 80925184 81733208 82698088 83820648 85092848 86498648 88017512 
1626.256 89622488 91281712 92964128 94640432 96290720 97907456 99494232 
1629.631 101061520 102620648 104182264 105755736 107352448 108986488 
1632.524 110678160 112455640 114354024 116418136 118699784 121257112 
1635.417 124131544 127339632 130874056 134699648 138786128 143119056 
1638.310 147702352 152554096 157697360 163156256 168938336 175031264 
1641.203 181407344 188015536 194793104 201680288 208605984 215509504 
1644.096 222352816 229118960 235830576 242537040 249302880 256145712 
1646.990 263016736 269812896 276405024 282691136 288607232 294121024 
1649.883 299155424 303515808 306854592 308568544 307886624 304190880 
1652.776 297532896 288931648 279856864 271384800 263762032 256678288 
1655.669 249635024 242241968 234302800 225816064 216914176 207787456 
1658.562 198626704 189536016 180537856 171594576 162641616 153635808 
1661.455 144588032 135578848 126758512 118322424 110463048 103327376 
1664.348 96982792 91411504 86533664 82231272 78377296 74860832 71607216 
1667.723 68590000 65833056 63396484 61349040 59737356 58570152 57818816 
1671.098 57431796 57357752 57552644 57984068 58634464 59498236 60585036 
1674.474 61917368 63523568 65424696 67618184 70087968 72814272 75790104 
1677.849 79028696 82555608 86394944 90542384 94959864 99585400 104347656 
1681.224 109214808 114214960 119438296 125017552 131071616 137617664 
1684.117 144479024 151315616 157748064 163493696 168404160 172413264 
1687.010 175487776 177577696 178634512 178632896 177573952 175496464 
1689.903 172473200 168622144 164106128 159120944 153882208 148549520 
1692.796 143181056 137711024 131956320 125699368 118832280 111511808 
1695.689 104198312 97493856 91831472 87320528 83753944 80774344 78000152 
1699.065 75163000 72206080 69306968 66780864 64862764 63564680 62695668 
1702.440 61998384 61228732 60213052 58841804 57056304 54852104 52274872 
1705.815 49417316 46396640 43336628 40349772 37516696 34886780 32473612 
1709.190 30258536 28206464 26284554 24479212 22801696 21279056 19932966 
1712.566 18765304 17747268 16830626 15962213 15111213 14278072 13490411 
1715.941 12780913 12164805 11625524 11126683 10636665 10153984 9709785 
1719.316 9347691 9095849 8950281 8878478 8832555 8772234 8677373 8556984 
1723.174 8440142 8359743 8331370 8344644 8369742 8374741 8343294 8281385 
1727.031 8211146 8156718 8129708 8121741 8110770 8074143 8004746 7915452 
1730.888 7832687 7778509 7757932 7750005 7716343 7618240 7446401 7233021 
1734.746 7039916 6917994 6879414 6900622 6939641 6958530 6934692 6868440 
1738.603 6778201 6691749 6627755 6587048 6552635 6504300 6431018 6337743 
1742.461 6240757 6157067 6093386 6041911 5983823 5901325 5788654 5654931 
1746.318 5520712 5404953 5316091 5245825 5175069 5082834 4960455 4816299 
1750.176 4672492 4552203 4467868 4415279 4380201 4348774 4316345 4289641 
1754.033 4280171 4295598 4332810 4376687 4405907 4405840 4376051 4333312 
1757.890 4301018 4297973 4326853 4375080 4419195 4438442 4424852 4387598 
1761.748 4348573 4329330 4340441 4376319 4421404 4460469 4487485 4506970 
1765.605 4529837 4565396 4614888 4668941 4713623 4737572 4740352 4732749 
1769.463 4730169 4742396 4767453 4790133 4790100 4755193 4690344 4617969 
1773.320 4565965 4552639 4577049 4622926 4667602 4695033 4701832 4697913 
1777.177 4699220 4718077 4755527 4800552 4835329 4846218 4831778 4804237 
1781.035 4783098 4782696 4805175 4838914 4866054 4871214 4851378 4816768 
1784.892 4786247 4776766 4793818 4830940 4874498 4913135 4943765 4972956 
1788.750 5011199 5065737 5133525 5200352 5245724 5254713 5225737 5174398 
1792.607 5124875 5098457 5101742 5125982 5154347 5173224 5178958 5178523 
1796.465 5184290 5205985 5243913 5288386 5324342 5339403 5331285 5309382 
1800.322 5289928 5286239 5302204 5330547 5358557 5376235 5382643 5386031 
1804.179 5398981 5430585 5480511 5539169 5592431 5630192 5650634 5662115 
1808.037 5677087 5705823 5750074 5802119 5849570 5883994 5905825 5925307 
1811.894 5955841 6007003 6078669 6161302 6241261 6308225 6361346 6408555 
1815.752 6462630 6532117 6617628 6709449 6794154 6861102 6908601 6943884 
1819.609 6978462 7020553 7069652 7116669 7149139 7158032 7142301 7108855 
1823.467 7068709 7030823 6997487 6964489 6925838 6879986 6832760 6794726 
1827.324 6774701 6774095 6783821 6787658 6769384 6722505 6655243 6587586 
1831.181 6539853 6522934 6532958 6555831 6574332 6577763 6566864 6552534 
1835.039 6549540 6567200 6603935 6647739 6683809 6702046 6704132 6701508 
1838.896 6710492 6742427 6797520 6865410 6930114 6978698 7005164 7012943 
1842.754 7010787 7007588 7006578 7005366 6999709 6990012 6983075 6990247 
1846.611 7019643 7072077 7138361 7204048 7255021 7284974 7298520 7308932 
1850.469 7330599 7371173 7428132 7490661 7547264 7591602 7627277 7664473 
1854.326 7714320 7780870 7857923 7931076 7985307 8012914 8016424 8007142 
1858.183 7998097 7996713 8000562 7999988 7984598 7951626 7908163 7869496 
1862.041 7850703 7859913 7893586 7939883 7984665 8019529 8045418 8070633 
1865.898 8104051 8148547 8197402 8237180 8255517 8249236 8228299 8211990 
1869.756 8219621 8259232 8324784 8400313 8469096 8521165 8556951 8584932 
1873.613 8615113 8651515 8689035 8716383 8722400 8704010 8668652 8631404 
1877.470 8606224 8599971 8607779 8616837 8613761 8593280 8561310 8532958 
1881.328 8523294 8540257 8580167 8631235 8679536 8718107 8750258 8786840 
1885.185 8839825 8913076 8999903 9085191 9154219 9198484 9221532 9236153 
1889.043 9258425 9298570 9356257 9422855 9487703 9545652 9599307 9657439 
1892.900 9728285 9813176 9905233 9991615 10060279 10107756 10140959 10173962 
1896.758 10219925 10284316 10362594 10443875 10517566 10579895 10637310 
1900.133 10702408 10786979 10894872 11019547 11147760 11267032 11371678 
1903.508 11464816 11555388 11650743 11749933 11842266 11910814 11942486 
1906.883 11932916 11890994 11833209 11777848 11735124 11705645 11681920 
1910.259 11656529 11628689 11606330 11602144 11626579 11681239 11757558 
1913.634 11841381 11919362 11986185 12045830 12108346 12181740 12266054 
1917.009 12352259 12427195 12482332 12519707 12552380 12598322 12670060 
1920.384 12766684 12874866 12974472 13049105 13094077 13118903 13141648 
1923.760 13180515 13242271 13320368 13398922 13462932 13506441 13535598 
1927.135 13564484 13606500 13666437 13737975 13807029 13860630 13895215 
1930.510 13919232 13948862 13998410 14073356 14167042 14265711 14355191 
1933.885 14430131 14495594 14562883 14641320 14731118 14821516 14896365 
1937.260 14944065 14963099 14964368 14965259 14980110 15011116 15047337 
1940.636 15069531 15061950 15020308 14955658 14889061 14840201 14818568 
1944.011 14818945 14827585 14831767 14828099 14824567 14835230 14869517 
1947.386 14926474 14992869 15050561 15085380 15097353 15098828 15110732 
1950.761 15148026 15212911 15291775 15365058 15416002 15440790 15450712 
1954.137 15465373 15500534 15559496 15629835 15690567 15724922 15727704 
1957.512 15709566 15690843 15690396 15713517 15752098 15787695 15805323 
1960.887 15803363 15794670 15799480 15833775 15900481 15987547 16076524 
1964.262 16152347 16212773 16269870 16341392 16438045 16556473 16678067 
1967.638 16778998 16842474 16868722 16873750 16881604 16909440 16957910 
1971.013 17010836 17044536 17041090 16997846 16929006 16855942 16797836 
1974.388 16759470 16732162 16704237 16670665 16641710 16640091 16686676 
1977.763 16787400 16925182 17067384 17176918 17231662 17232972 17202290 
1981.139 17169300 17156788 17171162 17202842 17234488 17253104 17257484 
1984.514 17259310 17274000 17310582 17365446 17424454 17472192 17500788 
1987.889 17517484 17539564 17585658 17663678 17764732 17865604 17939358 
1991.264 17969920 17958212 17923128 17889014 17875480 17886736 17912320 
1994.640 17935940 17947230 17947230 17949338 17969056 18014952 18081028 
1998.015 18151260 18206158 18234598 18240712 18241714 18258924 18304714 
2001.390 18376260 18456012 18523192 18563200 18576652 18578104 18587026 
2004.765 18615454 18659968 18701684 18717700 18693798 18633232 18555282 
2008.141 18485018 18440386 18421442 18413352 18395030 18352930 18289784 
2011.516 18223954 18177170 18165942 18190542 18236774 18283460 18316362 
2014.891 18334024 18348470 18375812 18423826 18486646 18546462 18583498 
2018.266 18587026 18563684 18533288 18520770 18540930 18591418 18654746 
2021.642 18707738 18733614 18730708 18710920 18692586 18689232 18701926 
2025.017 18719500 18727248 18717874 18695008 18673700 18669998 18692206 
2028.392 18734652 18780908 18812496 18819416 18806440 18789072 18784956 
2031.767 18802844 18838276 18875924 18899112 18899216 18881842 18861114 
2035.143 18854020 18866892 18894612 18921504 18932960 18922162 18895304 
2038.518 18865404 18846650 18843396 18848518 18847236 18826890 18784576 
2041.893 18730708 18683662 18659208 18663012 18686810 18713030 18723892 
2045.268 18712096 18683938 18655680 18644162 18658584 18694524 18739356 
2048.644 18777274 18798414 18804884 18805438 18810282 18824502 18845646 
2052.019 18865646 18878140 18882500 18885094 18896550 18925864 18973974 
2055.394 19034068 19093720 19142610 19178140 19206780 19238400 19282214 
2058.769 19339268 19401732 19455754 19489470 19498274 19487634 19470064 
2062.145 19456446 19452496 19455372 19456792 19448996 19430666 19407484 
2065.520 19390854 19390162 19407208 19435552 19463792 19481570 19485624 
2068.895 19481292 19478728 19487980 19511894 19545130 19576498 19596290 
2072.270 19600102 19592268 19582598 19580380 19589774 19607176 19623848 
2075.646 19631336 19626516 19612720 19597920 19589496 19589982 19595078 
2079.021 19596844 19588040 19566966 19538164 19510646 19491584 19483406 
2082.396 19481570 19477376 19462996 19435620 19398684 19360470 19328494 
2085.771 19306152 19291014 19276778 19258142 19233688 19207022 19184822 
2089.146 19172010 19169170 19171144 19169828 19158990 19137556 19110512 
2092.522 19086310 19072772 19072772 19083298 19097562 19108262 19113282 
2095.897 19114184 19115602 19121178 19130144 19137138 19136032 19123150 
2099.272 19099708 19072600 19050546 19038534 19036664 19038084 19033826 
2102.647 19017728 18989376 18953380 18918492 18891464 18873674 18861356 
2106.023 18848414 18830352 18808066 18787204 18774506 18774194 18784334 
2109.398 18798104 18806512 18804366 18792948 18779972 18775648 18786616 
2112.773 18813432 18848828 18882084 18903402 18909320 18902260 18889870 
2116.148 18879040 18873052 18870318 18866236 18856546 18840906 18822566 
2119.524 18806440 18795542 18788796 18780734 18764888 18737938 18701788 
2122.899 18663774 18632748 18615074 18610958 18614554 18617150 18612516 
2126.274 18599304 18582358 18569010 18564964 18570704 18580976 18587754 
2129.649 18585332 18572640 18555040 18540966 18536574 18544076 18560364 
2133.025 18579316 18597056 18613932 18634374 18663496 18702550 18746898 
2136.400 18785890 18809936 18814226 18802704 18785440 18774888 18778520 
2139.775 18795264 18816200 18829070 18827202 18811008 18789350 18773814 
2143.150 18772880 18786028 18806892 18824850 18834296 18836338 18839590 
2146.526 18853154 18881946 18920638 18956148 18973836 18964872 18929358 
2149.901 18878140 18825022 18778658 18738802 18696598 18640288 18563062 
2153.276 18469046 18370108 18282354 18217528 18176204 18151292 18133572 
2156.651 18119406 18117644 18144452 18214728 18332640 18483428 18639042 
2160.027 18768764 18854194 18893678 18902502 18901534 18906274 18921952 
2163.402 18943482 18961030 18969406 18971794 18976986 18993912 19023994 
2166.777 19058198 19080114 19075542 19037184 18970894 18891774 18817584 
2170.152 18758902 18715452 18676814 18629808 18566796 18489272 18408684 
2173.528 18340244 18294554 18272712 18267322 18266596 18262104 18252808 
2176.903 18244066 18241924 18248870 18259856 18264280 18252186 18220258 
2180.278 18174648 18128908 18098092 18089526 18100512 18119580 18132638 
2183.653 18130012 18110908 18083272 18057092 18039752 18031428 18025832 
2187.029 18016888 18001414 17983180 17970782 17972164 17990086 18019892 
2190.404 18050976 18073290 18082306 18080612 18076226 18077194 18086244 
2193.779 18097852 18102170 18089560 18055882 18006562 17953790 17909696 
2197.154 17881486 17868366 17862290 17853796 17837260 17813440 17789274 
2200.530 17772568 17766976 17769806 17773638 17770842 17758210 17739120 
2203.905 17722002 17716720 17728458 17755862 17792244 17830460 17865950 
2207.280 17899890 17937354 17982868 18037266 18095848 18149808 18191614 
2210.655 18218980 18235772 18250838 18272298 18303884 18342006 18379130 
2214.031 18406126 18418296 18417258 18409584 18403050 18402082 18405262 
2217.406 18407856 18404054 18391194 18371456 18351132 18336512 18330186 
2220.781 18329840 18329460 18322374 18305718 18280418 18251598 18224956 
2224.156 18203636 18187120 18171988 18154922 18134850 18113880 18096192 
2227.531 18083930 18076744 18070838 18061028 18043828 18020272 17994958 
2230.907 17973510 17959592 17950926 17940290 17919848 17883384 17831080 
2234.282 17770014 17710716 17663504 17633482 17620128 17617334 17618576 
2237.657 17619024 17617196 17614676 17613504 17613504 17612538 17607742 
2241.032 17597252 17582864 17569476 17561610 17562094 17569270 17577584 
2244.408 17580966 17576136 17564232 17551398 17545292 17550640 17567166 
2247.783 17589212 17608154 17616954 17613262 17599702 17582830 17568716 
2251.158 17559678 17554502 17549466 17540806 17529042 17518314 17514484 
2254.533 17522452 17543706 17574030 17606740 17635450 17655982 17667680 
2257.909 17672616 17672650 17667852 17656638 17635830 17604636 17564956 
2261.284 17521728 17480506 17445218 17415486 17387690 17356650 17318652 
2264.659 17273896 17226938 17184468 17151894 17131558 17121698 17117702 
2268.034 17114978 17110394 17103880 17096850 17090680 17085098 17078378 
2271.410 17068314 17054012 17037024 17020896 17009284 17004184 17004840 
2274.785 17007734 17008906 17006458 17001050 16995812 16995296 17001220 
2278.160 17012316 17024860 17033302 17033406 17024308 17007492 16986096 
2281.535 16962840 16938652 16913126 16885428 16855874 16826732 16801418 
2284.911 16783060 16771421 16763775 16754821 16738499 16711984 16675932 
2288.286 16634308 16593065 16556920 16528180 16505945 16487636 16470600 
2291.661 16453600 16436979 16422009 16408969 16397338 16385226 16370568 
2295.036 16353158 16334374 16317343 16305372 16299833 16299661 16302310 
2298.412 16304271 16303789 16301587 16300075 16302550 16311290 16325738 
2301.787 16343731 16362414 16379824 16395926 16413270 16434673 16462306 
2305.162 16496653 16535856 16577438 16619539 16661713 16704787 16750345 
2308.537 16798628 16848638 16897760 16942786 16982132 17015798 17045742 
2311.913 17074070 17102536 17131384 17159684 17186466 17212010 17237936 
2315.288 17267586 17303582 17346582 17395244 17445634 17493718 17536702 
2318.663 17574444 17608742 17642214 17676722 17711338 17743056 17767460 
2322.038 17780680 17780438 17766838 17741192 17705712 17662814 17614366 
2325.414 17562680 17511484 17465086 17427974 17403554 17392414 17391862 
2328.789 17397278 17403106 17404726 17400586 17391620 17380136 17368550 
2332.164 17358618 17350064 17342892 17337616 17335340 17338168 17347582 
2335.539 17362928 17381862 17400380 17414556 17422386 17424212 17422178 
2338.915 17419350 17417384 17415590 17411970 17403830 17389276 17368308 
2342.290 17341478 17308962 17268758 17216630 17147068 17056598 16946544 
2345.665 16823702 16700724 16592687 16512623 16470291 16469877 16510110 
2349.040 16586181 16691117 16816056 16950988 17086820 17214356 17326684 
2352.416 17420454 17496132 17557608 17609882 17657810 17703054 17744886 
2355.791 17779472 17803222 17814336 17812576 17800252 17779990 17752998 
2359.166 17719208 17677136 17625650 17564542 17496650 17425626 17354790 
2362.541 17286514 17220492 17154788 17087510 17017728 16945854 16874128 
2365.917 16804242 16736709 16670356 16602807 16532000 16457213 16379479 
2369.292 16300865 16223332 16147910 16074220 16000921 15927153 15853157 
2372.667 15779963 15709497 15642406 15578144 15514338 15448172 15377346 
2376.042 15301728 15222897 15143531 15066684 14994001 14925239 14859539 
2379.417 14795187 14731564 14668772 14607977 14550137 14496417 14447121 
2382.793 14402318 14362486 14328924 14303035 14286530 14279681 14281394 
2386.168 14289132 14299576 14310123 14319370 14327588 14335191 14342965 
2389.543 14350842 14357143 14360636 14360808 14358170 14354642 14352827 
2392.918 14354197 14358889 14365431 14370979 14373548 14372041 14367178 
2396.294 14360500 14353650 14346697 14338889 14328855 14315157 14298001 
2399.669 14279168 14261225 14246640 14237224 14232807 14232294 14234622 
2403.044 14238388 14243113 14248488 14254001 14258590 14260918 14259891 
2406.419 14255679 14249585 14244311 14241675 14243147 14248009 14254138 
2409.795 14259240 14261979 14262801 14263554 14266841 14274237 14285742 
2413.170 14299987 14314541 14327588 14338752 14348478 14357965 14367726 
2416.545 14376665 14382967 14384233 14379439 14369233 14356492 14344094 
2419.920 14334472 14328547 14325191 14322349 14318582 14313719 14308651 
2423.296 14305363 14305055 14307213 14310226 14311835 14309884 14304165 
2426.671 14295570 14285640 14275641 14265779 14254685 14241367 14225069 
2430.046 14206547 14188232 14172519 14160811 14152972 14146776 14139587 
2433.421 14129147 14114977 14098137 14080749 14064971 14050700 14037114 
2436.797 14022363 14004295 13982121 13956527 13928300 13899048 13869422 
2440.172 13839113 13807712 13775561 13743652 13713694 13687876 13667121 
2443.547 13651152 13638741 13627731 13616893 13606158 13595799 13586706 
2446.922 13578910 13571219 13562160 13550537 13536043 13519943 13504630 
2450.298 13492462 13484532 13480397 13477628 13473800 13467136 13457395 
2453.673 13445399 13432891 13421169 13410097 13399025 13387099 13374148 
2457.048 13361198 13350127 13342918 13340731 13343465 13350059 13359523 
2460.423 13371756 13387338 13407260 13432344 13461530 13492325 13521344 
2463.799 13545512 13563527 13576483 13587492 13600278 13617783 13640759 
2467.174 13668010 13697041 13725185 13750287 13771560 13788729 13801692 
2470.549 13810380 13814963 13815750 13814176 13812638 13813185 13817597 
2473.924 13825635 13835521 13844723 13850401 13851427 13848520 13844038 
2477.300 13839900 13837847 13838086 13839489 13840858 13841644 13841644 
2480.675 13841883 13843115 13845031 13846365 13845921 13842842 13837574 
2484.050 13832819 13830801 13834324 13843799 13857893 13873492 13888135 
2487.425 13900245 13910269 13920704 13933842 13951497 13973532 13998067 
2490.801 14022432 14044369 14062610 14077189 14088930 14098137 14105084 
2494.176 14109363 14110697 14109123 14105803 14102175 14099095 14097246 
2497.551 14095980 14094063 14091120 14087081 14083043 14080681 14081126 
2500.926 14084445 14089751 14095432 14100156 14103715 14106864 14110321 
2504.302 14114428 14118604 14121343 14121103 14117167 14111006 14104845 
2507.677 14101593 14102826 14107754 14113641 14116790 14113265 14101490 
2511.052 14082324 14058777 14034478 14012406 13994030 13979486 13968229 
2514.427 13959230 13952319 13947221 13943319 13939762 13934903 13927000 
2517.802 13915572 13901271 13885637 13871063 13858714 13848452 13838771 
2521.178 13827654 13813458 13796630 13778708 13761983 13748542 13738146 
2524.553 13728776 13717695 13701760 13679362 13650845 13618158 13583424 
2527.928 13548965 13515910 13484601 13454558 13425885 13398342 13372030 
2531.303 13346505 13320880 13293377 13263075 13229666 13194416 13159851 
2534.679 13127885 13099882 13075842 13054193 13033229 13012334 12991746 
2538.054 12972935 12958052 12947298 12939788 12933234 12924495 12911456 
2541.429 12894184 12873910 12853193 12834184 12817700 12803230 12789717 
2544.804 12776034 12762214 12749419 12738841 12731403 12726592 12723248 
2548.180 12719700 12715401 12710932 12708339 12709601 12715469 12725636 
2551.555 12737408 12748498 12756857 12762624 12767981 12775522 12787635 
2554.930 12805278 12827461 12851760 12876129 12899133 12920262 12940164 
2558.305 12959280 12977647 12994717 13009807 13022952 13035209 13048491 
2561.681 13064334 13083457 13105107 13126963 13146839 13163130 13176142 
2565.056 13187652 13200256 13215798 13234824 13256242 13277799 13298023 
2568.431 13316234 13333282 13350639 13369877 13391404 13414711 13438564 
2571.806 13461530 13483267 13504083 13524113 13543393 13561202 13576107 
2575.182 13586500 13592210 13593919 13593542 13593919 13596517 13601851 
2578.557 13609270 13616996 13623731 13628723 13631903 13633544 13633989 
2581.932 13632758 13628997 13622534 13613577 13604038 13595970 13591184 
2585.307 13590945 13594842 13601509 13609133 13616996 13625167 13634775 
2588.683 13646947 13661889 13678541 13695331 13710309 13722825 13733871 
2592.058 13745259 13758973 13776211 13796391 13817529 13837368 13854096 
2595.433 13867334 13878042 13887792 13897576 13907326 13915949 13921593 
2598.808 13923099 13920669 13915435 13909209 13903529 13898774 13894395 
2602.184 13889126 13881805 13872260 13861417 13850504 13840618 13832169 
2605.559 13824883 13817597 13809798 13800974 13791637 13782230 13773201 
2608.934 13764138 13754733 13744575 13733665 13722996 13713968 13707983 
2612.309 13705522 13705897 13707744 13709317 13709078 13706547 13701691 
2615.685 13695023 13686646 13676387 13663838 13648554 13631185 13613201 
2619.060 13596073 13581817 13571697 13565168 13561237 13558263 13554502 
2622.435 13549272 13542435 13534129 13524660 13514440 13503263 13491607 
2625.810 13480123 13469562 13460881 13454593 13450116 13446322 13442187 
2629.186 13436582 13429884 13423083 13417616 13414711 13414744 13416932 
2632.561 13419973 13422844 13424723 13426500 13428926 13433164 13439965 
2635.936 13449022 13459548 13470998 13483302 13496906 13513107 13532215 
2639.311 13554434 13578842 13604038 13628381 13651016 13672010 13691740 
2642.687 13711129 13730451 13749637 13768242 13785925 13803129 13820642 
2646.062 13839182 13859774 13882113 13904932 13926759 13946193 13962686 
2649.437 13976612 13989102 14001147 14013501 14025854 14037251 14046901 
2652.812 14054020 14058434 14060522 14061001 14059667 14056826 14051966 
2656.188 14045190 14037592 14030509 14025888 14025033 14028866 14036805 
2659.563 14048031 14061618 14076813 14093961 14113539 14135993 14161187 
2662.938 14188334 14215860 14242496 14267526 14290776 14313205 14335807 
2666.313 14358993 14382555 14405641 14427048 14446094 14462159 14475519 
2669.688 14486173 14494327 14499191 14500459 14497821 14491620 14483261 
2673.064 14474902 14468634 14466304 14468668 14475451 14485694 14498403 
2676.439 14512416 14527148 14542462 14558190 14574260 14590776 14607565 
2679.814 14625351 14644405 14665173 14687793 14711648 14736122 14760186 
2683.189 14783325 14805403 14826762 14848293 14870408 14893142 14916083 
2686.565 14938991 14961419 14984020 15007926 15034337 15064420 15098451 
2689.940 15136052 15176264 15218436 15262190 15307975 15356956 15410406 
2693.315 15468944 15533053 15602392 15676586 15755018 15837418 15923578 
2696.690 16013263 16106198 16201697 16299248 16398611 16499717 16602738 
2700.066 16707404 16812818 16917498 17018968 17115116 17203980 17284584 
2703.441 17356548 17419972 17474642 17519728 17554676 17578172 17589798 
2706.816 17589972 17580726 17564232 17543118 17519488 17494544 17468984 
2710.191 17442872 17416522 17390552 17365756 17342720 17322134 17304170 
2713.567 17288756 17275758 17265550 17258208 17253934 17252828 17254484 
2716.942 17258622 17265380 17275240 17289412 17309376 17335928 17368826 
2720.317 17407002 17447530 17487750 17525592 17560024 17591386 17620992 
2723.692 17649944 17678584 17706368 17731494 17752064 17766908 17775676 
2727.068 17779058 17778746 17776194 17772672 17769288 17766216 17763766 
2730.443 17762144 17761212 17760970 17760660 17759658 17757312 17753274 
2733.818 17747854 17741986 17736462 17732286 17729354 17727352 17725420 
2737.193 17723004 17720070 17717516 17716480 17718654 17724902 17735738 
2740.569 17751134 17770498 17793452 17819756 17849896 17884076 17922644 
2743.944 17966018 18014090 18066418 18122792 18182666 18245378 18309968 
2747.319 18375396 18440868 18505902 18570600 18635584 18702030 18771220 
2750.694 18844330 18921920 19004470 19092092 19185136 19283808 19387910 
2754.070 19497408 19611162 19727858 19845972 19964884 20083896 20204122 
2757.445 20326810 20452834 20582890 20716112 20851078 20985738 21118178 
2760.820 21247390 21373230 21496038 21616412 21734938 21851546 21965812 
2764.195 22077426 22186454 22293170 22398102 22501764 22604126 22704838 
2767.571 22803056 22897456 22987056 23071362 23149954 23222930 23291062 
2770.946 23355288 23416620 23476214 23534798 23592728 23649720 23704900 
2774.321 23757078 23805972 23851510 23895584 23940396 23989170 24044814 
2777.696 24109080 24182746 24265358 24356256 24454148 24558374 24668588 
2781.072 24784336 24905028 25030070 25158448 25289710 25423892 25562016 
2784.447 25705424 25855348 26012746 26177098 26346866 26519764 26693118 
2787.822 26864426 27031996 27194546 27351832 27503844 27651000 27794074 
2791.197 27933908 28071704 28208302 28344416 28480076 28615602 28750496 
2794.573 28885080 29019456 29154016 29289008 29423970 29558336 29690438 
2797.948 29818888 29942658 30061772 30176944 30289658 30401298 30512826 
2801.323 30624170 30734866 30843136 30947910 31048012 31142798 31231908 
2804.698 31315018 31392016 31462614 31527418 31586818 31641696 31693160 
2808.073 31741246 31785842 31826236 31861212 31890306 31913772 31933066 
2811.449 31950574 31968798 31989734 32014776 32043952 32076880 32112696 
2814.824 32151088 32191694 32234122 32278054 32322564 32366432 32408736 
2818.199 32448224 32484752 32518462 32549746 32578782 32605604 32629140 
2821.574 32648396 32662112 32669436 32670222 32664682 32653968 32638964 
2824.950 32621424 32603032 32585208 32570030 32559172 32553564 32553852 
2828.325 32560564 32573424 32592460 32618388 32651790 32693870 32745816 
2831.700 32808062 32880858 32964498 33058666 33164084 33282046 33414140 
2835.075 33562420 33728652 33913720 34117976 34341112 34582664 34841940 
2838.451 35119332 35415204 35730520 36066372 36424208 36805424 37210872 
2841.826 37641516 38097732 38579380 39085444 39614136 40162664 40726512 
2845.201 41299364 41873160 42436276 42974736 43472732 43911840 44274516 
2848.576 44544860 44709660 44760856 44695116 44515160 44227736 43844536 
2851.952 43380272 42850492 42271788 41660268 41028704 40388312 39746612 
2855.327 39108324 38475968 37850820 37233504 36624636 36025148 35435480 
2858.702 34856516 34289260 33734344 33194374 32672294 32172244 31699006 
2862.077 31257294 30850144 30479664 30145864 29847566 29582668 29349446 
2865.453 29145548 28969264 28819216 28693998 28592634 28514468 28458954 
2868.828 28425312 28412754 28419156 28441548 28476362 28519136 28565526 
2872.203 28612346 28657258 28698884 28736760 28771420 28803284 28833132 
2875.578 28862416 28892302 28924388 28959878 28999760 29044148 29092470 
2878.954 29143882 29197568 29252748 29309248 29366960 29425780 29485350 
2882.329 29544540 29602284 29657374 29708924 29756398 29800118 29840468 
2885.704 29878372 29914862 29950786 29986892 30023674 30061276 30099556 
2889.079 30137592 30174314 30208592 30239460 30266708 30290510 30311614 
2892.455 30330764 30348494 30364804 30379124 30391136 30400516 30407374 
2895.830 30412314 30416224 30419742 30423474 30427916 30433496 30440816 
2899.205 30451090 30465304 30484568 30510054 30541976 30580476 30625558 
2902.580 30676972 30735258 30800986 30874726 30957554 31050752 31155650 
2905.956 31275026 31412530 31572386 31760604 31982854 32245006 32552246 
2909.331 32909594 33320506 33787704 34312100 34891556 35520368 36189592 
2912.706 36885568 37591584 38290428 38963720 39594356 40168480 40673784 
2916.081 41101144 41444640 41701192 41871556 41959536 41973148 41922200 
2919.457 41817992 41671612 41492100 41285920 41056892 40806108 40533280 
2922.832 40236848 39914904 39565284 39185844 38774640 38330564 37853460 
2926.207 37344924 36808168 36247940 35669764 35080104 34485616 33893336 
2929.582 33311096 32747354 32210712 31710126 31253484 30846766 30493988 
2932.958 30196906 29955082 29766476 29628072 29535248 29482408 29463436 
2936.333 29471202 29498258 29538228 29585044 29634104 29682350 29727622 
2939.708 29768356 29804054 29834292 29859028 29879012 29895374 29909822 
2943.083 29924198 29941024 29962430 29991010 30029354 30079350 30143486 
2946.458 30223582 30320992 30436944 30572370 30727648 30902724 31096204 
2949.834 31304582 31521682 31738502 31943694 32124184 32267668 32363900 
2953.209 32405130 32387924 32311748 32179062 31993944 31761706 31488336 
2956.584 31180818 30846622 30494414 30132440 29768818 29410426 29062286 
2959.959 28727734 28408508 28105530 27819120 27549172 27295694 27057808 
2963.335 26834714 26625050 26427180 26239818 26062070 25893328 25733266 
2966.710 25581732 25438192 25301756 25171544 25046742 24926432 24810926 
2970.085 24700502 24596172 24499160 24410440 24330954 24260556 24198930 
2973.460 24145368 24099098 24059978 24029160 24008428 24000586 24008150 
2976.836 24033398 24077034 24138398 24215362 24305442 24406058 24515110 
2980.211 24631904 24755850 24887060 25025612 25171052 25322304 25478104 
2983.586 25636666 25795674 25952804 26104890 26248052 26378730 26493138 
2986.961 26588450 26662958 26716444 26749498 26763594 26760386 26741040 
2990.337 26706614 26657884 26595354 26520116 26433834 26338452 26236966 
2993.712 26132724 26029034 25929556 25837624 25755380 25684190 25624682 
2997.087 25575722 25536678 25506634 25485764 25474976 25475854 25489838 
3000.462 25517844 25559804 25614030 25678284 25750070 25827074 25907608 
3003.838 25990900 26076178 26162988 26251010 26339896 26429540 26520364 
3007.213 26612968 26708198 26806694 26908136 27011824 27116526 27220864 
3010.588 27323532 27424214 27522906 27620138 27716192 27811806 27907126 
3013.963 28002288 28097578 28193594 28290660 28389442 28490266 28593234 
3017.339 28698424 28805374 28914118 29024556 29136690 29250764 29366818 
3020.714 29485280 29606256 29730142 29857076 29986892 30118626 30250826 
3024.089 30381790 30509378 30632384 30750480 30864446 30976022 31087056 
3027.464 31198904 31311776 31425140 31537644 31648040 31755824 31861532 
3030.840 31966590 32072776 32181806 32294616 32411094 32530460 32651714 
3034.215 32773792 32896548 33020228 33145666 33274032 33407092 33546094 
3037.590 33692664 33848128 34013396 34188696 34373600 34566732 34766192 
3040.965 34970196 35176600 35383676 35589592 35792188 35988576 36175368 
3044.341 36348440 36503816 36638480 36751112 36842788 36916624 36977160 
3047.716 37029912 37079964 37131032 37185568 37244480 37307808 37374896 
3051.091 37445716 37520056 37598124 37680292 37766344 37855628 37947320 
3054.466 38040040 38132712 38224824 38315976 38406316 38495916 38584556 
3057.842 38671908 38757576 38841016 38922404 39002396 39082148 39162456 
3061.217 39244304 39327364 39411132 39494476 39576428 39656540 39734848 
3064.592 39811900 39888168 39963616 40037404 40108404 40175056 40236704 
3067.967 40293124 40345548 40395660 40445444 40496580 40549612 40604400 
3071.343 40660140 40716032 40771532 40826928 40883316 40942368 41006344 
3074.718 41077288 41157200 41246680 41345572 41452184 41563344 41675328 
3078.093 41784176 41886548 41980884 42067388 42147996 42225484 42302944 
3081.468 42382024 42463092 42544104 42621984 42692680 42752712 42799804 
3084.844 42833152 42854184 42865080 42869504 42871296 42873640 42879084 
3088.219 42888924 42903332 42921732 42943276 42967564 42994852 43027084 
3091.594 43066084 43114348 43174108 43245920 43329052 43421684 43521076 
3094.969 43624852 43731404 43840064 43950992 44064808 44181552 44300236 
3098.344 44418660 44533624 44641424 44739188 44824996 44898952 44962452 
3101.720 45018788 45071752 45124832 45181228 45243116 45311588 45387356 
3105.095 45470608 45561380 45659684 45765260 45878448 45999364 46128824 
3108.470 46268424 46421192 46591280 46784128 47006784 47266456 47571052 
3111.845 47928880 48347704 48835852 49400908 50049496 50786980 51616236 
3115.221 52537116 53544880 54629716 55775812 56958336 58144772 59293356 
3118.596 60351352 61263760 61973048 62425032 62579496 62411528 61916680 
3121.971 61110904 60028988 58720828 57240704 55647624 53997632 52336988 
3125.346 50707172 49140176 47659384 46281840 45017208 43868620 42833888 
3128.722 41906584 41077940 40338024 39677084 39086424 38558048 38084604 
3132.097 37659692 37276788 36930764 36616884 36331324 36070548 35831516 
3135.472 35610772 35405064 35210808 35025076 34845348 34670004 34498064 
3138.847 34328452 34160700 33994336 33829004 33665312 33503822 33345546 
3142.223 33191442 33041396 32894294 32748602 32602568 32455046 32305860 
3145.598 32156154 32007496 31861354 31718466 31578586 31440742 31303764 
3148.973 31166720 31029508 30892158 30754746 30616882 30477994 30336484 
3152.348 30191470 30042704 29890548 29736384 29581852 29428366 29276496 
3155.724 29126166 28977020 28828282 28679522 28530248 28380528 28230048 
3159.099 28078772 27926242 27772598 27618234 27464132 27311464 27160966 
3162.474 27013130 26867916 26724760 26583236 26442992 26304376 26167668 
3165.849 26033220 25900678 25769654 25639162 25508462 25377240 25245390 
3169.225 25113474 24981810 24850536 24719654 24588844 24458250 24328536 
3172.600 24200962 24076754 23956922 23841814 23730516 23621870 23514022 
3175.975 23405604 23296026 23185392 23074054 22962776 22852158 22742406 
3179.350 22633726 22526332 22419976 22314588 22209818 22104864 21998926 
3182.726 21891512 21782386 21672554 21563516 21456804 21353494 21254210 
3186.101 21157802 21062770 20967726 20871416 20773458 20674550 20575628 
3189.476 20477530 20380598 20284278 20187564 20089414 19988996 19886206 
3192.851 19781084 19674222 19565856 19456134 19344810 19231818 19116986 
3196.227 19000766 18883848 18767656 18653742 18543800 18438968 18339934 
3199.602 18246312 18157132 18070492 17984562 17897714 17809124 17719034 
3202.977 17628652 17539082 17451392 17365756 17281274 17196430 17110016 
3206.352 17021034 16929866 16837720 16746143 16656790 16570484 16487429 
3209.728 16407041 16328732 16251914 16176453 16102655 16030829 15961044 
3213.103 15893126 15826901 15761925 15697747 15634267 15571414 15508638 
3216.478 15445322 15380814 15314152 15245134 15173931 15101367 15028746 
3219.853 14957612 14888821 14823264 14761112 14702189 14645673 14590741 
3223.229 14536090 14480384 14422561 14361938 14298618 14233664 14168171 
3226.604 14104092 14042589 13984346 13928950 13876092 13824883 13774980 
3229.979 13726586 13680012 13635425 13592825 13551050 13508868 13464983 
3233.354 13418128 13368100 13315208 13260035 13203707 13146770 13089877 
3236.729 13033946 12979832 12928523 12881283 12838449 12799818 12764330 
3240.105 12730038 12695204 12658393 12619027 12577414 12534611 12491471 
3243.480 12448915 12407591 12367737 12329590 12292947 12257806 12223691 
3246.855 12189714 12154752 12117375 12076763 12032443 11984652 11934347 
3250.230 11882617 11830621 11778870 11728044 11678686 11631412 11586864 
3253.606 11545554 11507140 11470634 11434301 11395862 11353583 11306684 
3256.981 11255369 11201136 11146026 11091976 11040415 10992088 10947470 
3260.356 10906628 10869323 10835622 10804676 10775430 10746084 10714533 
3263.731 10679316 10639790 10597109 10553516 10512542 10477681 10451376 
3267.107 10434778 10426769 10424970 10425207 10423273 10414890 10396835 
3270.482 10367651 10327270 10277937 10222604 10165211 10109181 10056277 
3273.857 10007280 9961237 9916522 9871879 9826901 9782369 9739976 9701620 
3277.715 9668280 9639855 9614923 9591041 9565840 9537795 9505958 9470907 
3281.572 9434064 9396919 9361437 9329071 9300466 9276060 9255209 9236695 
3285.429 9218892 9200108 9178889 9155302 9130363 9106406 9086478 9073045 
3289.287 9067328 9068917 9075583 9083770 9089624 9090064 9082891 9067530 
3293.144 9044524 9015126 8980655 8942670 8901983 8859810 8816561 8773113 
3297.002 8729871 8687615 8647019 8608658 8573340 8542149 8515995 8496431 
3300.859 8484571 8481564 8487782 8502682 8524747 8550665 8576180 8596525 
3304.717 8606866 8603486 8584763 8550665 8503053 8445041 8380044 8310701 
3308.574 8239307 8167487 8096523 8028102 7964045 7906342 7856237 7813929 
3312.431 7778138 7746767 7717254 7687574 7657189 7626535 7597266 7571573 
3316.289 7550906 7536206 7527508 7523867 7524642 7529092 7536577 7546354 
3320.146 7558087 7570427 7582970 7595210 7607146 7619150 7632065 7646094 
3324.004 7660898 7675669 7688890 7699345 7706259 7710037 7711554 7712600 
3327.861 7714489 7718435 7725012 7733950 7744912 7757325 7770447 7783704 
3331.719 7796489 7807756 7817439 7825029 7830865 7835386 7839232 7842336 
3335.576 7844562 7844597 7841054 7832147 7817067 7795004 7766736 7732635 
3339.433 7693915 7651321 7605595 7556907 7505797 7451996 7395877 7337608 
3343.291 7277359 7215535 7152979 7090533 7029914 6972334 6919307 6871504 
3347.148 6828788 6789947 6752994 6715674 6675262 6629572 6577091 6517149 
3351.006 6450052 6377250 6300862 6223480 6148161 6077358 6012446 5954060 
3354.863 5901426 5853264 5808231 5765653 5725195 5687460 5653017 5621968 
3358.720 5593707 5566924 5539606 5509906 5476585 5439308 5398947 5357014 
3362.578 5315956 5278223 5245893 5221143 5204879 5197334 5197133 5201660 
3366.435 5207025 5209306 5204443 5189923 5164406 5128328 5082968 5030473 
3370.293 4972956 4912398 4850809 4790100 4732782 4681200 4637426 4602632 
3374.150 4576580 4557963 4543833 4531645 4519056 4504626 4488289 4470613 
3378.008 4452167 4433723 4414978 4395397 4374411 4351618 4327087 4301454 
3381.865 4275587 4250491 4227003 4205423 4185717 4168154 4152498 4138749 
3385.722 4127777 4119983 4116170 4117609 4124934 4138381 4157382 4179929 
3389.580 4202847 4222653 4235133 4237174 4226869 4204687 4172670 4134233 
3393.437 4093492 4054193 4018575 3987943 3962129 3940528 3922240 3906692 
3397.295 3893787 3883524 3875868 3870419 3865939 3860791 3852868 3840566 
3401.152 3822816 3799752 3772478 3742799 3712955 3685186 3661060 3641713 
3405.010 3627112 3616988 3610239 3605394 3600851 3595238 3587587 3577498 
3408.867 3565672 3553344 3542020 3533201 3528023 3525652 3524750 3523180 
3412.724 3518470 3509251 3494854 3476450 3455809 3435036 3416167 3400338 
3416.582 3388048 3378966 3372621 3368246 3365408 3363238 3361234 3358429 
3420.439 3354088 3347611 3339096 3329079 3318729 3309213 3301601 3296159 
3424.297 3292821 3290951 3289649 3288080 3285676 3281770 3276328 3269284 
3428.154 3260471 3250489 3239873 3229325 3220045 3212401 3206459 3202220 
3432.011 3198515 3194242 3188735 3181625 3172780 3162934 3152654 3142442 
3435.869 3132563 3123151 3114041 3104863 3095419 3085442 3074663 3062717 
3439.726 3049303 3034421 3018206 3001156 2984108 2967827 2953048 2940171 
3443.584 2928963 2918622 2908281 2896940 2883498 2867922 2850612 2832568 
3447.441 2815360 2800553 2789448 2782078 2777510 2774042 2769607 2762504 
3451.299 2751633 2737429 2721191 2704820 2690117 2678315 2669247 2662346 
3455.156 2656078 2649911 2643043 2636010 2628909 2622009 2615009 2607108 
3459.013 2597375 2585109 2570576 2554445 2538080 2522916 2510052 2499621 
3462.871 2491523 2484958 2479260 2473595 2467863 2461665 2454968 2447970 
3466.728 2440506 2433142 2426078 2419415 2413350 2407620 2401456 2394259 
3470.586 2385530 2375336 2364075 2352482 2340722 2328829 2315938 2301148 
3474.443 2283893 2264508 2244291 2226207 2212219 2204359 2203161 2207323 
3478.301 2214317 2221477 2226506 2228205 2225873 2220445 2212219 2202028 
3482.158 2189640 2175021 2157871 2138425 2116882 2094308 2071735 2050029 
3486.015 2030488 2014010 2001161 1992306 1987180 1984584 1983053 1980789 
3489.873 1976263 1968873 1958955 1947638 1936289 1925939 1917019 1908999 
3493.730 1901111 1892825 1883973 1875088 1866835 1860113 1855055 1850763 
3497.588 1846703 1842144 1836887 1831696 1827803 1825840 1825807 1826306 
3501.445 1825507 1821015 1811765 1797625 1780557 1763623 1749949 1741865 
3505.302 1740169 1744061 1751746 1760695 1768979 1775167 1779093 1781222 
3509.160 1782786 1784749 1787743 1792168 1797192 1801917 1805311 1806475 
3513.017 1805311 1802383 1799122 1796959 1796893 1799288 1803580 1808372 
3516.875 1812597 1815858 1818087 1820916 1826106 1835223 1848999 1866802 
3520.732 1887234 1907967 1927170 1943112 1955360 1964114 1970072 1974266 
3524.590 1977994 1982321 1988712 1998265 2012046 2030221 2053125 2079426 
3528.447 2107559 2135928 2162933 2187442 2209088 2228338 2245657 2262010 
3532.304 2277965 2293786 2309109 2323300 2335059 2343354 2346985 2345819 
3536.162 2340955 2334292 2328663 2327164 2332094 2345086 2366107 2393893 
3540.019 2426711 2462132 2497922 2532114 2562844 2588475 2607508 2618775 
3543.877 2621576 2615909 2603108 2585542 2565977 2547712 2533181 2524349 
3547.734 2522083 2525715 2533848 2543146 2550612 2552578 2545912 2528982 
3551.592 2502120 2467730 2429610 2392027 2358778 2331627 2310908 2294852 
3555.449 2281462 2268538 2254549 2239029 2221677 2202694 2181781 2159037 
3559.306 2134496 2108725 2082888 2058651 2037512 2020834 2008251 1999230 
3563.164 1991841 1983519 1971636 1953696 1927536 1891427 1845239 1790239 
3567.021 1729590 1668318 1611378 1563257 1526480 1501244 1485518 1476474 
3570.879 1470590 1465370 1458887 1450376 1439406 1425942 1409819 1390606 
3574.736 1367970 1342178 1313562 1283519 1253146 1223971 1196825 1172937 
3578.594 1152538 1136625 1125762 1119981 1118985 1121775 1126758 1132372 
3582.451 1137588 1141641 1145163 1148319 1150711 1150744 1145229 1130014 
3586.308 1102110 1060389 1007315 949333 894944 851982 825556 816825 822900 
3590.648 838404 856995 873296 883257 884253 876284 860813 840628 818253 
3594.988 796875 778718 765075 756379 751931 750139 748944 745758 738389 
3599.327 725578 706926 683728 657976 633089 611786 596822 589357 589290 
3603.667 594898 603757 612550 617859 616963 607506 588129 559430 523004 
3608.006 481936 440408 402897 371923 348212 330173 314124 295755 271618 
3612.346 239956 202065 162088 125331 97126 80224 74657 76977 81550 81948 
3617.168 71774 46688 5069 -51255 -117344 -186438 -250818 -304461 -343894 
3621.507 -368195 -378755 -378027 -369188 -353495 -332207 -305024 -271680 
3625.365 -233068 -192863 -157291 -136391 -141194 -180609 -256183 -359620 
3629.222 -473194 -575620 -651787 -696912 -715933 -719505 -718877 -723210 
3633.080 -737169 -760323 -788073 -815061 -836458 -850413 -858250 -863277 
3636.937 -869064 -877727 -889830 -904081 -918861 -932351 -943857 -953411 
3640.794 -961214 -966966 -969810 -967991 -960090 -945477 -924845 -900576 
3644.652 -875909 -854778 -840624 -836391 -844097 -864666 -898757 -945840 
3648.509 -1005116 -1074135 -1148298 -1220928 -1283338 -1327373 -1347390 
3651.885 -1342237 -1315151 -1273262 -1226974 -1186498 -1160822 -1156130 
3655.260 -1172751 -1205299 -1242404 -1272304 -1285353 -1277854 -1253043 
3658.635 -1218020 -1181673 -1151734 -1132831 -1126288 -1130155 -1140366 
3662.010 -1151933 -1160723 -1163664 -1159038 -1145951 -1124272 -1093900 
3665.385 -1055526 -1011067 -963065 -915951 -874751 -844262 -827198 -821245 
3669.243 -818169 -802824 -756354 -662738 -512182 -304825 -48041 245194 
3673.100 557738 870806 1158285 1388778 1531335 1561861 1475211 1285746 
3676.958 1020699 708154 371425 30550 -298203 -597492 -851438 -1049246 
3680.815 -1187952 -1273394 -1317727 -1335070 -1337382 -1331238 -1318784 
3684.190 -1299294 -1272403 -1240587 -1209562 -1187258 -1181343 -1196543 
3687.566 -1232426 -1282446 -1336556 -1385573 -1423257 -1449016 -1465627 
3690.941 -1476986 -1485011 -1489766 -1489766 -1484086 -1473321 -1459683 
3694.316 -1446572 -1437293 -1433528 -1434552 -1437392 -1437920 -1432405 
3697.691 -1418864 -1398124 -1372989 -1347952 -1328001 -1316736 -1316373 
3701.067 -1326085 -1342799 -1361891 -1378009 -1387092 -1386663 -1376457 
3704.442 -1358092 -1333880 -1306925 -1279935 -1254959 -1232888 -1214716 
3707.817 -1200739 -1191553 -1188348 -1192776 -1206984 -1232327 -1269198 
3711.192 -1315712 -1367011 -1416586 -1457503 -1483723 -1492341 -1483921 
3714.568 -1462159 -1431943 -1399412 -1369752 -1346102 -1329190 -1317628 
3717.943 -1308775 -1300021 -1289846 -1278547 -1268075 -1260773 -1257734 
3721.318 -1258395 -1260410 -1260179 -1254992 -1244353 -1230212 -1216699 
3724.693 -1208702 -1209529 -1219573 -1235598 -1251589 -1260476 -1256743 
3728.069 -1238704 -1208075 -1170240 -1132171 -1100477 -1079952 -1072119 
3731.444 -1074135 -1081406 -1088281 -1091784 -1093040 -1098097 -1114721 
3734.819 -1149487 -1203878 -1272667 -1345177 -1408395 -1452715 -1474378 
3738.194 -1474807 -1458560 -1429334 -1389801 -1339760 -1279010 -1209826 
3741.570 -1138384 -1076878 -1041941 -1049708 -1109664 -1215410 -1342271 
3744.945 -1453045 -1517733 -1524997 -1483524 -1413547 -1337646 -1276929 
3748.320 -1245245 -1248384 -1283338 -1340256 -1406810 -1471307 -1527209 
3751.695 -1570559 -1598720 -1609449 -1601295 -1574686 -1533516 -1484548 
3755.071 -1435807 -1394358 -1365293 -1350330 -1347919 -1354922 -1368101 
3758.446 -1385573 -1406645 -1430390 -1454432 -1473915 -1483591 -1478935 
3761.821 -1459484 -1428871 -1394557 -1365029 -1347655 -1345276 -1356177 
3765.196 -1374178 -1390891 -1399775 -1398388 -1388645 -1376127 -1366746 
3768.572 -1365656 -1375202 -1393962 -1418237 -1443072 -1463810 -1477482 
3771.947 -1482765 -1480288 -1471703 -1459683 -1446440 -1433891 -1423257 
3775.322 -1414571 -1407206 -1401228 -1396836 -1395746 -1400403 -1412689 
3778.697 -1432999 -1458395 -1483524 -1501884 -1508851 -1502346 -1484152 
3782.073 -1458857 -1432042 -1408098 -1389602 -1376457 -1366945 -1359414 
3785.448 -1352246 -1345475 -1340156 -1336721 -1335169 -1334244 -1332526 
3788.823 -1328826 -1322616 -1314787 -1305901 -1296156 -1284890 -1270123 
3792.198 -1250003 -1224430 -1195783 -1168951 -1150148 -1145092 -1156857 
3795.573 -1183755 -1219837 -1254893 -1279737 -1288029 -1279473 -1258857 
3798.949 -1235994 -1222646 -1229287 -1262128 -1319478 -1390395 -1456545 
3802.324 -1499275 -1507530 -1480420 -1426659 -1361032 -1301309 -1262855 
3805.699 -1256280 -1283701 -1337745 -1402549 -1460343 -1498186 -1511955 
3809.074 -1505384 -1485902 -1460805 -1434519 -1407669 -1378406 -1344649 
3812.450 -1306562 -1267910 -1235862 -1218185 -1222183 -1249408 -1294537 
3815.825 -1344880 -1384549 -1400601 -1387852 -1350165 -1297940 -1245708 
3819.200 -1208174 -1197171 -1219837 -1273988 -1348381 -1423455 -1481807 
3822.575 -1511393 -1510469 -1486001 -1449148 -1412061 -1383261 -1367539 
3825.951 -1363873 -1367308 -1370677 -1367869 -1356441 -1337547 -1314820 
3829.326 -1292885 -1275046 -1262491 -1254728 -1249540 -1244618 -1238109 
3832.701 -1229023 -1216963 -1202358 -1185936 -1169810 -1157385 -1153453 
3836.076 -1163036 -1189736 -1234078 -1291498 -1353336 -1409221 -1450965 
3839.452 -1474444 -1480685 -1474510 -1462357 -1450304 -1442709 -1441784 
3842.827 -1448025 -1460145 -1475665 -1491317 -1503238 -1507035 -1499506 
3846.202 -1478637 -1444525 -1398652 -1343889 -1282974 -1217789 -1149619 
3849.577 -1080117 -1012158 -952089 -910496 -900411 -935690 -1023529 -1158145 
3853.435 -1316802 -1466915 -1579209 -1639323 -1649853 -1624303 -1579011 
3856.810 -1526978 -1476920 -1433363 -1397100 -1367836 -1344715 -1327109 
3860.185 -1314523 -1305901 -1300054 -1295561 -1292026 -1290143 -1292489 
3863.561 -1300946 -1315811 -1333352 -1347490 -1350330 -1336358 -1305703 
3866.936 -1264242 -1222943 -1193470 -1186035 -1204143 -1243131 -1289416 
3870.311 -1326844 -1343361 -1335994 -1311120 -1280497 -1257106 -1250366 
3873.686 -1263317 -1292026 -1327274 -1357927 -1374740 -1373551 -1355846 
3877.062 -1327373 -1295792 -1269297 -1254496 -1254992 -1269760 -1293216 
3880.437 -1316835 -1330874 -1328298 -1307123 -1270949 -1228626 -1190265 
3883.812 -1166935 -1166010 -1189141 -1230477 -1277656 -1316340 -1334277 
3887.187 -1327109 -1298204 -1257106 -1215608 -1185308 -1175395 -1189703 
3890.563 -1226611 -1277920 -1332856 -1379958 -1411070 -1422828 -1416718 
3893.938 -1396406 -1366449 -1331304 -1294504 -1258461 -1225719 -1198459 
3897.313 -1179228 -1170075 -1171826 -1183557 -1202358 -1223670 -1243494 
3900.688 -1258725 -1269495 -1277986 -1288194 -1303423 -1325556 -1353600 
3904.063 -1383889 -1411764 -1432801 -1444360 -1446011 -1438845 -1424809 
3907.439 -1405918 -1383823 -1359480 -1333979 -1308643 -1284957 -1264044 
3910.814 -1247062 -1233880 -1223406 -1214485 -1205332 -1195320 -1184647 
3914.189 -1174371 -1166142 -1161516 -1161549 -1166341 -1175197 -1186894 
3917.564 -1199748 -1213031 -1225124 -1235036 -1241578 -1243230 -1239364 
3920.940 -1229849 -1215806 -1199550 -1184119 -1172817 -1167960 -1170603 
3924.315 -1179625 -1192743 -1206224 -1216236 -1220399 -1217723 -1208901 
3927.690 -1196345 -1182665 -1171099 -1163862 -1162012 -1165680 -1173743 
3931.065 -1184185 -1195122 -1204605 -1210949 -1213064 -1210388 -1202689 
3934.441 -1190430 -1174470 -1156757 -1139507 -1125098 -1115646 -1112176 
3937.816 -1114424 -1121066 -1129956 -1139144 -1147571 -1154775 -1162111 
3941.191 -1170802 -1181673 -1194494 -1207612 -1218251 -1223472 -1221589 
3944.566 -1212568 -1198459 -1182731 -1169149 -1161252 -1160789 -1167762 
3947.942 -1180087 -1194692 -1208273 -1217558 -1221126 -1218648 -1211081 
3951.317 -1199847 -1187357 -1175791 -1166935 -1162012 -1161186 -1163928 
3954.692 -1168323 -1172190 -1172851 -1168522 -1159071 -1144927 -1128304 
3958.067 -1112507 -1099584 -1091784 -1089504 -1091983 -1097403 -1104013 
3961.443 -1110325 -1115845 -1120505 -1124801 -1129328 -1134021 -1138516 
3964.818 -1142151 -1143803 -1143076 -1139871 -1134616 -1128106 -1121397 
3968.193 -1115481 -1110953 -1108309 -1106987 -1106624 -1106260 -1105104 
3971.568 -1102526 -1098130 -1092049 -1085042 -1077440 -1069904 -1062699 
3974.944 -1055328 -1047593 -1039098 -1030239 -1021711 -1014736 -1010505 
3978.319 -1009678 -1011992 -1016951 -1022471 -1027132 -1029809 -1030140 
3981.694 -1028256 -1025116 -1021380 -1017413 -1013083 -1008158 -1002538 
3985.069 -995893 -988686 -981314 -974173 -967793 -962106 -957247 -953279 
3988.927 -950171 -947956 -946501 -945245 -943493 -940286 -934930 -927424 
3992.784 -918299 -908578 -899783 -892773 -888077 -885333 -883779 -882886 
3996.642 -882489 -882291 -883316 -885994 -890789 -897766 -906462 -916447 
4000.499 -927127 
##END=
