
##TITLE=1132a_1_d
##JCAMP-DX=5.01  $$ Nicolet v. 1
##DATATYPE=INFRARED SPECTRUM
##ORIGIN=UniL
##OWNER=Nicolet
##LONGDATE=2011/09/21
##TIME=13:55:18
##SPECTROMETER/DATA SYSTEM=Nicolet iS5
##DATA PROCESSING=
Ratio against background
%Transmittance->Absorbance
Truncated
ElementMultiply or ElementDivide
##COMMENTS=
Number of sample scans: 32
Collection length: 51.20 sec
Sample gain: 2.0
Background collected on: Mer Sep 21 13:48:37 2011 (GMT+02:00);
Number of background scans: 32
Background gain: 2.0
Sample spacing:  1.000
Number of scan points: 12415
Resolution points: 8192
Number of FFT points: 65536
Apodization: N-B fort;
Phase correction: Mertz;
Laser frequency: 15798.0 cm-1
Number of rejected sample scans: 0
Number of rejected background scans: 0
Bench serial number: ASB1000141;
##RESOLUTION=4.000
##XUNITS=1/CM
##YUNITS=ABSORBANCE
##FIRSTX=649.893372
##LASTX=4000.122314
##FIRSTY=0.072867
##MAXX=4000.122314
##MINX=649.893372
##MAXY=0.362078
##MINY=0.000143
##XFACTOR=1.000000
##YFACTOR=1.000000E-009
##NPOINTS=6950
##DELTAX=0.482117
##ZPD=6100
##XYDATA=(X++(Y..Y))
649.893 72866664 73520040 74168048 74832288 75531968 76281792 77092616 
653.268 77973504 78937928 80005144 81194928 82522592 83994176 85604512 
656.643 87345856 89217888 91234336 93426064 95835728 98503736 101466272 
660.018 104749744 108366248 112312640 116551712 120994312 125469656 
662.911 129739704 133543192 136622048 138790688 139931856 139958688 
665.803 138790096 136342832 132608072 127766432 122294360 116888032 
668.696 112157360 108407248 105601736 103517584 101892272 100518184 99274416 
672.071 98113248 97042160 96093280 95299664 94677392 94222848 93920248 
675.446 93752416 93710232 93793664 94010632 94370728 94880952 95541376 
678.820 96346472 97287072 98356024 99552272 100885016 102371520 104037496 
682.195 105911448 108021000 110397584 113079264 116112528 119561680 
685.088 123502344 128011344 133167176 139039296 145689408 153181888 
687.981 161577536 170913104 181147344 192090160 203309840 214030688 
690.873 223224288 229661648 232140304 229870352 222628880 210902016 
693.766 195737488 178584416 160992560 144274032 129495472 117310416 
696.659 107958664 101390528 97325384 95383232 95157448 96325008 98688184 
700.034 102160648 106729200 112354312 118845128 125795456 132528752 
702.926 138131568 141699040 142481488 140124656 134783552 127085600 
705.819 117977128 108424256 99310408 91243248 84501280 79118496 74944728 
709.194 71760488 69336984 67494192 66106476 65077520 64331376 63798912 
712.569 63415544 63136108 62938384 62822432 62799528 62877528 63050092 
715.943 63296996 63589036 63901848 64224952 64562632 64927168 65328212 
719.318 65765700 66227832 66698724 67166096 67630064 68103456 68607696 
722.693 69162416 69778992 70457720 71189528 71961488 72758640 73567144 
726.068 74369840 75143848 75863016 76502552 77049056 77510560 77921968 
729.443 78339992 78826080 79434864 80196200 81109816 82152048 83290008 
732.817 84498864 85771688 87122544 88577080 90162112 91892056 93765456 
736.192 95770616 97897040 100147728 102546288 105132152 107952512 111050560 
739.567 114453672 118176776 122228760 126623528 131389904 136575120 
742.460 142239360 148461216 155340768 163007152 171643120 181467472 
745.352 192685888 205399280 219456352 234311248 248836048 261441792 
748.245 270256000 273536384 270378688 261048320 247058528 230611664 
751.138 214170832 199902400 189213952 182849056 180812512 182542784 
754.031 187042544 193108336 199602432 205483696 210011360 212762688 
756.923 213548880 212356304 209244928 204289424 197565472 189177984 
759.816 179317952 168290000 156533840 144615360 133114680 122607024 
762.709 113584632 106358968 101075160 97676536 95940224 95504008 95937912 
766.083 96836008 97820000 98602440 98998960 98901288 98282936 97181504 
769.458 95694616 93961672 92147112 90426928 88944408 87796296 87022136 
772.833 86607152 86504712 86659136 87030304 87597000 88352448 89292720 
776.208 90405144 91665992 93048720 94531960 96109280 97787048 99576280 
779.583 101479592 103482424 105551624 107646096 109729264 111776984 
782.475 113782136 115746544 117669608 119538904 121326200 122991072 
785.368 124493952 125801160 126889320 127744648 128353176 128695680 
788.261 128747912 128482728 127880112 126935240 125660416 124081544 
791.154 122228800 120130312 117807128 115274336 112550008 109658496 
794.046 106633344 103513712 100333040 97114416 93869328 90603160 87327096 
797.421 84069360 80873648 77799200 74906496 72240472 69828800 67678776 
800.796 65784552 64135188 62719436 61525040 60533652 59716972 59038728 
804.171 58456260 57933448 57445412 56980776 56539132 56123616 55736104 
807.546 55376152 55044860 54752680 54522752 54393204 54411420 54620472 
810.920 55054000 55726688 56631304 57735284 58977772 60273156 61498772 
814.295 62510088 63161552 63317312 62892772 61873008 60320972 58363396 
817.670 56164524 53901064 51714424 49704592 47925444 46391732 45096860 
821.045 44023700 43151928 42456664 41906912 41469064 41108284 40797772 
824.420 40524220 40287632 40096048 39956892 39871024 39830020 39821088 
827.794 39832892 39862128 39914068 39998420 40121888 40283056 40471008 
831.169 40671384 40872540 41071788 41276264 41498484 41748936 42030668 
834.544 42337788 42659524 42988012 43322500 43671092 44046144 44459328 
837.919 44915228 45411340 45941680 46502984 47098688 47739928 48440116 
841.294 49209344 50050204 50957780 51924272 52945324 54024760 55174716 
844.669 56410380 57741564 59167240 60671484 62226608 63792772 65322196 
848.043 66762468 68049808 69114384 69887840 70307312 70335832 69973504 
851.418 69265848 68297408 67178208 66030280 64956488 64032540 63302940 
854.793 62780620 62456596 62307412 62303512 62409884 62589528 62810288 
858.168 63044996 63278100 63508032 63744688 64005472 64307748 64666292 
861.543 65090344 65585932 66158444 66812784 67549744 68357680 69205936 
864.917 70039920 70779264 71335120 71619448 71560640 71123096 70309536 
868.292 69163848 67759096 66194372 64581320 63025304 61629352 60478728 
871.667 59632052 59127028 58976060 59175176 59712716 60579400 61775092 
875.042 63311488 65210528 67499496 70206080 73347240 76918112 80872288 
878.417 85112200 89464496 93670760 97428248 100393080 102247648 102779344 
881.792 101908992 99734664 96504064 92598672 88449880 84454920 80967096 
885.166 78232936 76393856 75512608 75581808 76547440 78314800 80760096 
888.541 83721072 86980432 90285360 93333176 95788464 97348640 97759240 
891.916 96872448 94681344 91322680 87061568 82223144 77173304 72241496 
895.291 67668680 63617276 60151664 57264252 54902072 52994100 51469200 
898.666 50259432 49307176 48560488 47970212 47496932 47110136 46790772 
902.040 46530496 46325488 46171056 46058416 45973944 45903600 45838492 
905.415 45777372 45726312 45694392 45688432 45708308 45748396 45799096 
908.790 45853332 45909528 45971592 46046184 46137924 46246492 46367328 
912.165 46494540 46625032 46760804 46908692 47076568 47268748 47483556 
915.540 47714408 47953784 48197032 48446344 48708804 48993568 49306284 
918.914 49646116 50006220 50377000 50751900 51129764 51516020 51919232 
922.289 52348312 52809248 53305848 53843072 54429184 55077360 55801168 
925.664 56606768 57484328 58401072 59305852 60130356 60804820 61276692 
929.039 61517060 61531224 61354956 61051600 60697164 60366584 60131648 
932.414 60046832 60148240 60455080 60968472 61676208 62553516 63568176 
935.789 64679028 65834984 66981116 68058152 69010640 69800904 70415704 
939.163 70874896 71227744 71551192 71932744 72449792 73164304 74109880 
942.538 75290656 76687056 78261424 79964552 81732288 83491232 85157504 
945.913 86635104 87832344 88668336 89083504 89053888 88591296 87743728 
949.288 86581712 85193464 83674752 82112848 80591968 79184096 77941944 
952.663 76902408 76080840 75474368 75066264 74834224 74756952 74817328 
956.037 75004312 75309848 75724936 76238472 76837536 77509376 78246504 
959.412 79047816 79918024 80865024 81896304 83016952 84229632 85538336 
962.787 86952216 88487336 90168512 92024928 94083168 96364264 98877696 
966.162 101620872 104580880 107740184 111084320 114607696 118319728 
969.055 122245536 126422536 130885200 135648624 140683312 145902176 
971.947 151141952 156161360 160686656 164422592 167112608 168602800 
974.840 168864560 168023168 166324864 164126240 161821744 159769440 
977.733 158283504 157567184 157698128 158623712 160162624 162029616 
980.625 163840480 165195472 165718048 165099760 163177200 159937584 
983.518 155526368 150197840 144283312 138136400 132059560 126311768 
986.411 121078816 116464320 112514456 109220896 106539408 104402088 
989.304 102733464 101463136 100524992 99865368 99440112 99209752 99141184 
992.678 99205880 99379088 99643080 99985528 100398088 100875024 101409360 
996.053 101992320 102614728 103267152 103943152 104640272 105359520 
998.946 106103040 106872840 107668464 108487376 109326576 110183552 
1001.839 111058008 111951672 112866992 113805952 114769464 115757784 
1004.731 116772032 117815776 118895144 120017952 121191232 122419040 
1007.624 123700760 125032096 126406040 127816472 129259136 130732504 
1010.517 132236544 133771360 135335872 136928032 138546000 140190368 
1013.409 141865392 143579968 145345664 147174672 149078576 151066496 
1016.302 153145440 155321600 157600960 159989984 162495056 165120976 
1019.195 167869760 170738896 173720512 176797744 179940944 183106128 
1022.087 186224944 189205040 191939296 194303968 196183696 197494560 
1024.980 198196272 198310512 197916368 197147072 196156880 195098000 
1027.873 194107216 193274432 192640976 192193136 191865632 191542256 
1030.766 191060000 190237872 188875728 186781920 183812064 179874096 
1033.659 174957376 169135296 162566208 155475792 148119184 140780624 
1036.552 133721096 127148776 121220888 116015184 111541704 107757808 
1039.446 104589520 101951184 99757424 97938344 96434592 95195768 94180904 
1042.821 93352888 92680368 92140152 91715016 91392888 91164680 91020384 
1046.196 90948712 90939528 90984384 91080776 91230656 91438496 91706216 
1049.571 92028736 92390312 92765976 93124184 93429152 93649056 93757928 
1052.947 93737856 93583088 93300600 92912328 92451560 91964040 91500912 
1056.322 91108080 90824416 90674272 90666640 90798896 91061080 91439072 
1059.697 91913592 92458568 93037928 93599688 94082176 94419648 94548232 
1063.072 94422776 94021488 93350472 92439712 91339448 90112776 88822712 
1066.448 87532144 86297648 85162024 84156752 83298280 82589272 82022992 
1069.823 81588088 81274632 81076544 80991608 81020088 81159744 81404736 
1073.198 81745048 82167936 82662088 83218936 83832984 84500360 85216648 
1076.573 85975680 86771152 87599192 88462672 89371760 90345448 91407696 
1079.948 92582304 93892240 95357896 96997584 98832808 100889072 103194696 
1083.324 105782200 108682448 111920632 115514936 119470928 123778256 
1086.217 128401976 133282992 138330944 143422784 148424240 153193616 
1089.110 157602064 161557216 165002560 167916384 170297088 172141696 
1092.003 173428320 174114592 174145472 173484592 172146976 170228784 
1094.896 167913936 165450304 163141968 161280240 160106144 159793280 
1097.789 160406704 161901168 164109984 166773152 169539216 171986592 
1100.682 173705136 174306112 173486368 171089104 167105344 161682720 
1103.575 155078256 147636480 139727808 131689000 123832944 116403280 
1106.468 109565264 103425456 98022336 93343896 89342816 85952488 83099600 
1109.844 80707792 78708376 77035800 75626448 74424464 73378464 72444624 
1113.219 71591752 70797472 70048104 69336864 68660088 68017064 67409360 
1116.594 66842228 66323704 65862784 65468072 65144120 64890540 64702944 
1119.969 64575128 64501784 64479992 64509280 64589968 64720980 64899312 
1123.344 65120324 65379628 65675692 66010260 66388480 66816300 67298704 
1126.720 67838728 68437456 69096328 69818488 70609024 71474544 72419648 
1130.095 73444616 74543056 75702096 76904264 78127616 79349328 80545856 
1133.470 81691176 82761224 83733376 84591128 85329344 85957624 86503544 
1136.845 87007280 87520712 88099640 88793648 89646728 90692848 91954736 
1140.221 93447104 95175680 97138368 99323352 101710400 104271400 106967360 
1143.596 109751952 112570576 115354016 118024784 120492368 122652072 
1146.489 124400176 125633616 126260984 126219512 125476064 124032912 
1149.382 121923784 119210432 115974504 112304824 108302592 104070256 
1152.275 99704608 95300824 90941280 86691456 82607424 78730816 75093552 
1155.650 71722736 68636800 65846668 63354304 61152404 59226552 57557708 
1159.026 56125840 54909744 53886284 53031120 52315460 51707932 51179752 
1162.401 50705048 50265424 49850880 49457564 49084304 48731232 48397408 
1165.776 48081980 47786084 47513752 47271664 47067704 46908284 46796344 
1169.151 46731692 46712396 46737596 46808816 46930436 47106740 47340684 
1172.527 47631284 47974284 48364372 48798404 49277000 49805468 50391664 
1175.902 51042292 51762276 52552824 53413452 54343824 55345480 56420716 
1179.277 57570648 58791156 60070992 61389952 62723532 64045592 65332792 
1182.652 66570236 67751464 68878984 69963272 71022328 72080968 73167016 
1186.028 74312160 75544784 76883936 78334520 79882264 81494024 83116488 
1189.403 84685384 86133016 87389896 88398256 89113928 89506680 89563528 
1192.778 89285104 88683504 87777312 86589240 85143800 83464656 81580216 
1196.153 79527488 77353496 75123296 72913960 70801648 68857048 67127272 
1199.529 65628244 64346208 63244180 62276396 61397048 60574292 59792144 
1202.904 59049168 58353924 57719460 57159884 56686688 56308936 56032304 
1206.279 55857800 55781880 55795820 55889380 56051832 56276044 56560268 
1209.654 56907152 57321452 57807192 58365784 58996104 59696256 60466312 
1213.030 61310004 62234216 63248044 64358772 65571332 66887720 68309280 
1216.405 69838728 71482984 73252240 75160280 77222192 79451496 81862096 
1219.780 84468272 87285728 90333824 93633648 97204552 101061400 105208984 
1223.155 109639728 114327768 119228608 124278064 129380744 134416080 
1226.048 139233248 143640848 147432080 150386624 152288144 152970848 
1228.941 152331888 150358896 147132496 142823072 137671392 131941912 
1231.834 125923928 119894784 114085848 108696792 103869832 99686104 96183288 
1235.210 93357088 91176536 89592848 88549088 87985328 87836280 88039752 
1238.585 88536320 89269400 90193024 91267160 92454672 93720184 95021672 
1241.960 96307928 97524208 98611088 99514728 100196760 100636048 100833568 
1245.335 100808408 100597408 100248064 99813336 99354384 98931160 98597696 
1248.711 98399872 98364464 98497128 98781640 99186352 99669632 100187712 
1252.086 100705608 101197904 101651984 102068056 102458056 102846184 
1254.979 103264160 103753768 104359448 105120128 106065776 107207632 
1257.872 108536376 110019176 111603696 113223208 114793632 116225144 
1260.765 117424032 118291184 118737888 118688112 118085096 116903904 
1263.658 115150312 112862224 110099136 106938880 103470696 99782728 95970480 
1267.033 92130688 88351144 84717040 81297880 78141816 75282536 72737752 
1270.409 70514968 68616504 67039876 65776684 64810752 64118556 63671328 
1273.784 63438088 63393036 63516236 63794272 64218572 64781368 65473312 
1277.159 66285104 67207328 68234168 69365472 70605400 71961256 73440304 
1280.534 75049520 76795192 78685656 80733048 82953376 85363392 87976120 
1283.910 90792568 93797480 96952472 100201480 103470776 106672016 109717776 
1287.285 112520680 115000240 117092208 118745296 119924088 120609576 
1290.178 120794640 120479904 119668040 118358584 116546776 114228624 
1293.071 111409184 108116016 104405208 100372160 96139832 91848616 87654408 
1296.446 83701504 80121640 77033464 74525032 72658432 71464080 70936416 
1299.822 71036496 71695144 72829240 74340864 76128656 78099376 80156624 
1303.197 82205808 84157960 85920032 87406872 88549120 89291536 89601520 
1306.572 89467872 88897360 87914936 86566504 84931088 83117688 81272592 
1309.947 79571104 78176888 77223648 76776168 76805832 77183480 77693784 
1313.323 78094936 78145264 77671400 76605032 74982648 72931832 70623872 
1316.698 68251544 65977476 63913136 62121576 60616084 59378784 58377608 
1320.073 57581924 56968308 56520300 56226712 56076448 56056804 56155288 
1323.448 56360012 56661808 57054600 57531948 58085336 58702616 59366932 
1326.823 60059196 60762364 61461480 62146124 62810248 63449472 64060608 
1330.199 64641536 65191776 65713464 66212780 66699148 67182576 67672240 
1333.574 68174696 68692960 69228280 69781912 70356872 70957792 71590224 
1336.949 72258360 72963776 73704776 74478784 75284032 76122016 76997456 
1340.324 77918280 78891872 79922768 81012576 82159688 83362552 84620840 
1343.700 85938240 87321744 88780808 90324600 91960232 93691320 95518584 
1347.075 97440232 99454608 101561048 103759576 106049864 108429016 110889704 
1350.450 113419648 116005360 118633904 121299384 124006376 126770568 
1353.343 129617008 132575024 135676880 138951920 142426896 146125280 
1356.236 150060944 154231648 158605536 163118096 167661472 172092448 
1359.129 176266160 180046096 183341056 186121680 188419296 190312848 
1362.022 191895696 193266000 194500432 195648656 196743152 197799680 
1364.916 198822976 199808784 200747408 201629200 202454768 203246112 
1367.809 204054016 204957232 206041200 207386576 209052176 211066976 
1370.702 213439488 216168608 219257392 222712896 226541712 230737904 
1373.595 235269504 240081216 245112576 250321024 255701488 261282288 
1376.488 267101552 273165088 279410656 285674976 291715712 297228352 
1379.381 301872000 305332416 307312384 307540448 305815872 302034848 
1382.274 296262400 288743744 279884704 270140384 259865648 249275120 
1385.167 238401920 227165376 215473184 203330032 190888528 178425792 
1388.060 166256992 154645856 143772544 133727624 124554856 116290840 
1390.953 108954928 102555184 97072984 92451920 88610312 85455384 82910624 
1394.328 80909896 79395432 78308448 77567720 77079880 76761344 76551352 
1397.704 76437440 76458256 76699192 77262168 78234008 79671720 81591496 
1401.079 83983480 86823152 90077784 93692760 97562664 101527560 105351192 
1404.454 108735560 111388376 113050896 113557216 112862736 111033056 
1407.347 108225680 104644160 100532800 96142440 91703800 87441192 83534608 
1410.722 80105904 77224680 74904136 73122544 71844544 71039112 70684272 
1414.098 70760424 71242776 72091528 73252120 74672968 76312480 78152648 
1417.473 80202344 82482888 85006720 87752528 90664152 93665952 96694656 
1420.848 99720944 102748488 105794336 108859472 111908368 114861184 
1423.741 117588192 119948904 121820472 123116568 123793944 123829632 
1426.634 123198496 121871224 119825488 117077320 113698744 109830704 
1429.527 105661536 101378480 97155352 93129608 89400616 86048744 83129040 
1432.903 80664776 78649400 77042840 75786864 74821152 74109368 73652712 
1436.278 73486144 73652368 74166512 74996624 76073024 77311528 78633672 
1439.653 79983232 81316904 82602136 83814976 84932744 85936784 86815824 
1443.028 87566192 88192072 88701952 89103888 89399968 89585232 89651368 
1446.404 89596144 89433680 89203192 88963080 88775960 88691424 88727392 
1449.779 88874104 89106000 89401640 89756232 90184992 90713512 91363128 
1453.154 92134696 93007224 93936448 94868088 95753440 96552520 97246536 
1456.529 97837144 98342640 98779392 99151056 99453104 99681720 99843976 
1459.905 99960624 100060704 100173736 100322776 100518552 100762648 
1462.798 101052616 101389896 101784272 102256120 102828848 103527544 
1465.691 104374664 105390128 106599328 108030256 109707976 111647432 
1468.584 113846856 116288800 118935104 121740472 124651848 127593128 
1471.477 130464536 133133304 135442496 137246960 138440048 138963536 
1474.370 138800944 137958544 136462864 134367808 131764112 128774928 
1477.263 125525520 122126344 118644256 115100768 111494456 107821336 
1480.156 104094248 100355712 96668032 93096512 89696624 86499216 83512392 
1483.531 80729496 78135392 75713144 73447128 71324848 69339896 67495200 
1486.906 65803020 64282000 62951372 61823644 60902020 60182264 59661016 
1490.282 59338328 59218844 59303800 59583628 60032872 60614368 61282568 
1493.657 61996208 62724644 63448744 64163304 64869612 65565428 66235392 
1497.032 66848836 67365400 67749720 67979792 68054696 67993896 67834776 
1500.407 67626200 67417448 67257032 67183080 67217584 67366680 67616752 
1503.783 67937672 68280192 68587832 68809912 68922984 68952104 68969544 
1507.158 69065248 69292200 69651472 70103664 70598496 71091328 71552872 
1510.533 71972008 72349552 72696272 73026616 73355712 73694136 74046104 
1513.908 74408304 74771000 75123096 75456040 75772544 76091104 76445024 
1517.284 76869656 77387392 77996664 78670928 79364728 80025736 80616824 
1520.659 81132336 81609848 82112928 82704664 83412008 84215952 85066928 
1524.034 85906376 86690768 87395728 88023680 88596376 89145952 89700048 
1527.409 90276104 90885600 91539936 92255072 93050616 93941640 94930424 
1530.785 96001264 97128584 98285224 99458608 100663792 101945816 103365008 
1534.160 104962472 106749024 108699848 110776624 112938240 115155544 
1537.053 117422040 119739928 122127840 124617056 127248880 130062072 
1539.946 133076728 136301248 139716304 143293632 147017680 150881024 
1542.839 154886864 159034960 163307472 167653424 171985504 176202864 
1545.732 180203360 183902240 187238064 190141936 192525120 194287280 
1548.625 195326432 195597504 195146736 194116800 192684128 190980944 
1551.518 189054304 186863936 184338656 181454592 178293632 175051824 
1554.411 171987920 169298992 167055584 165168768 163430256 161553504 
1557.304 159243312 156300048 152718576 148777728 144947984 141652544 
1560.198 139055952 137075792 135505408 134131920 132781088 131307720 
1563.091 129603472 127601624 125295672 122748504 120077624 117418000 
1565.984 114855912 112401128 109980416 107471392 104744048 101719736 
1568.877 98416456 94959536 91543368 88349720 85492056 82991200 80802320 
1572.252 78852856 77071328 75398248 73785816 72197512 70615888 69063304 
1575.627 67619424 66417628 65611176 65310224 65555416 66327868 67581176 
1579.002 69274680 71390144 73936880 76939624 80424424 84403280 88856984 
1582.378 93723760 98900496 104221568 109465840 114379544 118669960 122063712 
1585.753 124344584 125364960 125077696 123537440 120913152 117467192 
1588.646 113540648 109530944 105802696 102670800 100371704 99038992 98732304 
1592.021 99448024 101140056 103729160 107112896 111179840 115795464 
1594.914 120811832 126080528 131444376 136762928 141921520 146819008 
1597.807 151363408 155455280 158966352 161756912 163692848 164671824 
1600.700 164654448 163668880 161805104 159187056 155966528 152314816 
1603.594 148400656 144397824 140461968 136703840 133191080 129941928 
1606.487 126938448 124147152 121536992 119091944 116807800 114685752 
1609.380 112722952 110907072 109221072 107652248 106199328 104873160 
1612.273 103689104 102654632 101755928 100953400 100182832 99373168 98463464 
1615.648 97435344 96333448 95266784 94370152 93743864 93427256 93393320 
1619.023 93579592 93912264 94330136 94794672 95287416 95813296 96394632 
1622.398 97067720 97871256 98837424 99986440 101320688 102829096 104489744 
1625.774 106275888 108154056 110086192 112036576 113972712 115872944 
1628.667 117730472 119552040 121352968 123149920 124958528 126791344 
1631.560 128661152 130580616 132566928 134644608 136846192 139216816 
1634.453 141814448 144710640 147963280 151604192 155635216 160020256 
1637.346 164722624 169721216 175015728 180623584 186569456 192880608 
1640.239 199566864 206616096 213999744 221662816 229537040 237556704 
1643.132 245640704 253718400 261742976 269691072 277585440 285481344 
1646.025 293452992 301520032 309622144 317632704 325392096 332772032 
1648.918 339689440 346098656 351897792 356838912 360482496 362077728 
1651.811 360681952 355574272 346896256 335980576 324661568 314230368 
1654.704 304944224 296395328 287967648 279190304 269832320 259896960 
1657.597 249543152 238993472 228466208 218075296 207839088 197706496 
1660.490 187597200 177456672 167291984 157190160 147316016 137885040 
1663.384 129108936 121148136 114074512 107864112 102424664 97621528 93310296 
1666.759 89365856 85704640 82298352 79177456 76414840 74094280 72275344 
1670.134 70972816 70156928 69768960 69747488 70038520 70600800 71411192 
1673.509 72461104 73760848 75336096 77220128 79437808 81987256 84850240 
1676.885 88003952 91439512 95170032 99222120 103621296 108360760 113396888 
1680.260 118659768 124069424 129589360 135248288 141141872 147411664 
1683.153 154183728 161475888 169096656 176679344 183812720 190184432 
1686.046 195622832 200041760 203391360 205605968 206627632 206430624 
1688.939 205024288 202463184 198840080 194298016 189028400 183256864 
1691.832 177228384 171120896 164994272 158766624 152224336 145118416 
1694.725 137329872 129043776 120788864 113247424 106902976 101868888 
1697.618 97901976 94592472 91506016 88338960 85028368 81777008 78943608 
1700.993 76794952 75344920 74377240 73599992 72735680 71585488 70022632 
1704.369 67978976 65448188 62484144 59195564 55719792 52201104 48769080 
1707.744 45515052 42493788 39719272 37169544 34805072 32589816 30509450 
1711.119 28577772 26825304 25275838 23929856 22753858 21692408 20685738 
1714.494 19699564 18735482 17825108 17005322 16292403 15665628 15083219 
1717.870 14508716 13941199 13417479 12988196 12686094 12507157 12414478 
1721.245 12353486 12278222 12165520 12024880 11888713 11793918 11757933 
1724.620 11769575 11795450 11800114 11765797 11699076 11624707 11568999 
1727.995 11543614 11538000 11526023 11482269 11399434 11293829 11197294 
1731.371 11136405 11118014 11118082 11091535 10991510 10803691 10562208 
1734.746 10336873 10187733 10131869 10145165 10181763 10199198 10170875 
1738.121 10095784 9993378 9894047 9818801 9768983 9726626 9669635 9585858 
1741.979 9480490 9371323 9276669 9203426 9142985 9074432 8978321 8848583 
1745.836 8695627 8542183 8409029 8305026 8220263 8133118 8020204 7872128 
1749.693 7698839 7525552 7378621 7272103 7201757 7151665 7106565 7061805 
1753.551 7024931 7009003 7022371 7060694 7106598 7135565 7130647 7091779 
1757.408 7038400 6997588 6991325 7023112 7078846 7131624 7157493 7146377 
1761.266 7107542 7064668 7041835 7051130 7087232 7133914 7175077 7204755 
1765.123 7228910 7259704 7307382 7371982 7441918 7500167 7533340 7541432 
1768.980 7537150 7539409 7560413 7598177 7635269 7647409 7618712 7552861 
1772.838 7474581 7415729 7398405 7423279 7473232 7523192 7554850 7563684 
1776.695 7560649 7563077 7585296 7628457 7680155 7720459 7733647 7717490 
1780.553 7685821 7661269 7660730 7688316 7731859 7771695 7789911 7781545 
1784.410 7756178 7732938 7730004 7753176 7795780 7843685 7885151 7917679 
1788.268 7949264 7992461 8055848 8136730 8219418 8280744 8303270 8283614 
1792.125 8236943 8189164 8162896 8166103 8189874 8216784 8232554 8233905 
1795.982 8228974 8231709 8253085 8294387 8345050 8389503 8414298 8417136 
1799.840 8408083 8404130 8418622 8453961 8500283 8542589 8569117 8579221 
1803.697 8582600 8594598 8627010 8680685 8746302 8808851 8857376 8889503 
1807.555 8913685 8942805 8987252 9047908 9115711 9176486 9221532 9251587 
1811.412 9278734 9318882 9383071 9471652 9574172 9675226 9763053 9836696 
1815.270 9904691 9980969 10075538 10189158 10311119 10426633 10523065 
1818.645 10597822 10658125 10715721 10779132 10847853 10912268 10959024 
1822.020 10978903 10970781 10942033 10904080 10865722 10828217 10786809 
1825.395 10735624 10674663 10612659 10563803 10539394 10541838 10560646 
1828.771 10576398 10568895 10529074 10464443 10397073 10350684 10338604 
1832.146 10358183 10394189 10426904 10443026 10441159 10431656 10430061 
1835.521 10446895 10482059 10524491 10560306 10579658 10584920 10588417 
1838.896 10607227 10652896 10725672 10814391 10902449 10976422 11030083 
1842.271 11066382 11093167 11117199 11138751 11153165 11155409 11147012 
1845.647 11138241 11144122 11175705 11234729 11311411 11389467 11453079 
1849.022 11495232 11521021 11545418 11584312 11645774 11726409 11813631 
1852.397 11894093 11960537 12017045 12075332 12148244 12240526 12345066 
1855.772 12445164 12523458 12570421 12588397 12589591 12588465 12593342 
1859.148 12602142 12604632 12589659 12554869 12508965 12469613 12454132 
1862.523 12471557 12517730 12578983 12638948 12687971 12727513 12767844 
1865.898 12820021 12888382 12965835 13036404 13084583 13103912 13102750 
1869.273 13100838 13119928 13170199 13247464 13336290 13419290 13485729 
1872.649 13535667 13577030 13619663 13667258 13713866 13746935 13755007 
1876.024 13734863 13695878 13655769 13630775 13629407 13647289 13670130 
1879.399 13682987 13679533 13665138 13655051 13664762 13701828 13761333 
1882.774 13829706 13891658 13939488 13978084 14021235 14083932 14172724 
1886.150 14281633 14394372 14493847 14568400 14619731 14659792 14705204 
1889.525 14766699 14845516 14933092 15018867 15097181 15170877 15248085 
1892.900 15337424 15440481 15550430 15654499 15741276 15807727 15861576 
1896.275 15917666 15988993 16080650 16186118 16293470 16390594 16474111 
1899.651 16551310 16636340 16742632 16874782 17026032 17182640 17331444 
1903.026 17466362 17590696 17713580 17841956 17974098 18097332 18193134 
1906.401 18247658 18257024 18231902 18190612 18153054 18130048 18120650 
1909.776 18115226 18103896 18085172 18067590 18065828 18093014 18153506 
1913.152 18240436 18340694 18441110 18536158 18629912 18731332 18846650 
1916.527 18973490 19099432 19208616 19290530 19347894 19395738 19455094 
1919.902 19541108 19654286 19781120 19900950 19996836 20064012 20113048 
1923.277 20163164 20232828 20328372 20441548 20554644 20651996 20727962 
1926.653 20790454 20855492 20937474 21040582 21156514 21268546 21361396 
1930.028 21431496 21488624 21551642 21637134 21751382 21886286 22025940 
1933.403 22153502 22261990 22356726 22450052 22552262 22663922 22773656 
1936.778 22864486 22924840 22955406 22970950 22993170 23039602 23112770 
1940.154 23198848 23272918 23313822 23313226 23281590 23241806 23217584 
1943.529 23221358 23248728 23284628 23313472 23330220 23342210 23365322 
1946.904 23411446 23481878 23564358 23640274 23694192 23725196 23746264 
1950.279 23780002 23843844 23940710 24055776 24167122 24254216 24311014 
1953.655 24348756 24389410 24452816 24545648 24657154 24765286 24850992 
1957.030 24906010 24939908 24972544 25025330 25105928 25207570 25311204 
1960.405 25399302 25466228 25520690 25579870 25658458 25759670 25873318 
1963.780 25983794 26080154 26164396 26253298 26368096 26520432 26704500 
1967.156 26896256 27064296 27184848 27253566 27285532 27307724 27342868 
1970.531 27396086 27455168 27497914 27505646 27474052 27417544 27358396 
1973.906 27317640 27302750 27305326 27311570 27313934 27317394 27340258 
1977.281 27400250 27501762 27627802 27747414 27825478 27842788 27803894 
1980.656 27733074 27661664 27613218 27593798 27591610 27588504 27571874 
1984.032 27542146 27514294 27506246 27528026 27574732 27627376 27665090 
1987.407 27676426 27667352 27657958 27672788 27726080 27813538 27913450 
1990.782 27997834 28047278 28059580 28051026 28044804 28060004 28099592 
1994.157 28151346 28196034 28220642 28224920 28223508 28235070 28272270 
1997.533 28333062 28403450 28463696 28500702 28517544 28529928 28559156 
2000.908 28618786 28706246 28803248 28887984 28943798 28970682 28983680 
2004.283 29005500 29051800 29123012 29202492 29266430 29297552 29293898 
2007.658 29269018 29244030 29234530 29240840 29249700 29243462 29211142 
2011.034 29158056 29103596 29069088 29069230 29101754 29149444 29190410 
2014.409 29211106 29213124 29212418 29229712 29274616 29342322 29413404 
2017.784 29465564 29485990 29480846 29469676 29478152 29521524 29595934 
2021.159 29682030 29755334 29798840 29812608 29812324 29820166 29851008 
2024.535 29905776 29969140 30020940 30049380 30055240 30052682 30060138 
2027.910 30087730 30131092 30174350 30198112 30192324 30163446 30130274 
2031.285 30113654 30125198 30159468 30197650 30217932 30206070 30164548 
2034.660 30108468 30057370 30021828 30000098 29978052 29940740 29881248 
2038.036 29805262 29727160 29662800 29618352 29587136 29553762 29504678 
2041.411 29435742 29357778 29290036 29249028 29239492 29250232 29258596 
2044.786 29241230 29188176 29106608 29018640 28948932 28914330 28914792 
2048.161 28936962 28959488 28964694 28947162 28911994 28869604 28829662 
2051.537 28795812 28766250 28738884 28715202 28700830 28704372 28731238 
2054.912 28778536 28836000 28888586 28924212 28940256 28944116 28947624 
2058.287 28962216 28991188 29027958 29059876 29075712 29071142 29052648 
2061.662 29033060 29022502 29025336 29035786 29041846 29032314 29003976 
2065.038 28962746 28922620 28897438 28893224 28906754 28928180 28946242 
2068.413 28955060 28957116 28959560 28969794 28989666 29012406 29026612 
2071.788 29023000 28997884 28956582 28910542 28871268 28844604 28828848 
2075.163 28816348 28799034 28774288 28744726 28717610 28699202 28690034 
2078.539 28684194 28672654 28647772 28608028 28559262 28511636 28473070 
2081.914 28446042 28424994 28400692 28364400 28313824 28253138 28192146 
2085.289 28139678 28099486 28069440 28042966 28014446 27982852 27952460 
2088.664 27930270 27920306 27921260 27925074 27920164 27898610 27859428 
2092.040 27810254 27763908 27732898 27723750 27735158 27759494 27787116 
2095.415 27812620 27834592 27855190 27876918 27898258 27913310 27915958 
2098.790 27902710 27875114 27841164 27810360 27788388 27775070 27762672 
2102.165 27741056 27703126 27648636 27583808 27519484 27464944 27423014 
2105.541 27390932 27362314 27332212 27301092 27274948 27260446 27262246 
2108.916 27278052 27299502 27315452 27318628 27308254 27291106 27277134 
2112.291 27273500 27281192 27294282 27303314 27300704 27285708 27263728 
2115.666 27244712 27236526 27240866 27252544 27263092 27263656 27251308 
2119.042 27229120 27203684 27181426 27164812 27150808 27134020 27111518 
2122.417 27084290 27058582 27042502 27040810 27052096 27068880 27081046 
2125.792 27081400 27070044 27054316 27045076 27051742 27076992 27115610 
2129.167 27157686 27193982 27220194 27239314 27259106 27287014 27326920 
2132.542 27377276 27433108 27490642 27549984 27615230 27691470 27780794 
2135.918 27877870 27971542 28050248 28106450 28141094 28161846 28179664 
2139.293 28202362 28230120 28256286 28271844 28272942 28263252 28253882 
2142.668 28258054 28283832 28329100 28384242 28434474 28470276 28491646 
2146.043 28507636 28530424 28568604 28621228 28677504 28723768 28749894 
2149.419 28754674 28747098 28740124 28742248 28753294 28764162 28761506 
2152.794 28736654 28691414 28635456 28585024 28552964 28542456 28549212 
2156.169 28567826 28597164 28648234 28739416 28885398 29088750 29331580 
2159.544 29579832 29795076 29951888 30042066 30076012 30074022 30052470 
2162.920 30020512 29978442 29922246 29852784 29778470 29712790 29668052 
2166.295 29647618 29642650 29634920 29607960 29551208 29467514 29371106 
2169.670 29278268 29199198 29133820 29071886 29000220 28912454 28811320 
2173.045 28710848 28627988 28575010 28552858 28552292 28557918 28557494 
2176.421 28545992 28526780 28505586 28486444 28467126 28439604 28397402 
2179.796 28339676 28274674 28217886 28185002 28182952 28207066 28243026 
2183.171 28272870 28282702 28269510 28238960 28200842 28163472 28127906 
2186.546 28089270 28041518 27982356 27916100 27852858 27803152 27772634 
2189.922 27760024 27756986 27754054 27745860 27732192 27717676 27706656 
2193.297 27699240 27689070 27667174 27626812 27567002 27496644 27429614 
2196.672 27377312 27345480 27330166 27320498 27305360 27279286 27244182 
2200.047 27209538 27185482 27176450 27179592 27186434 27187492 27178286 
2203.423 27161954 27146400 27141426 27151902 27175076 27202838 27226614 
2206.798 27241854 27250216 27258894 27274876 27301198 27335108 27368490 
2210.173 27393722 27408580 27416308 27425520 27444014 27474970 27513588 
2213.548 27552208 27580382 27593446 27593728 27588468 27585748 27590622 
2216.924 27601178 27611028 27613430 27603860 27583064 27556092 27528380 
2220.299 27502114 27475534 27443626 27401910 27350104 27292518 27235714 
2223.674 27185942 27144776 27108308 27069726 27023144 26967152 26906374 
2227.049 26849624 26804334 26775116 26760810 26756368 26755630 26754678 
2230.425 26752176 26747876 26740900 26726628 26698158 26649748 26579994 
2233.800 26494232 26403552 26321168 26256676 26212682 26184102 26160700 
2237.175 26133780 26099154 26058094 26016968 25982142 25956218 25937856 
2240.550 25922802 25906658 25889072 25872930 25862134 25859286 25862978 
2243.926 25866882 25864244 25850916 25827250 25800068 25778058 25767370 
2247.301 25769234 25778972 25788746 25791560 25785300 25772080 25757770 
2250.676 25747574 25742230 25738786 25732386 25719028 25699588 25679690 
2254.051 25666438 25665630 25678672 25700150 25721944 25736816 25741070 
2257.427 25735586 25724654 25712348 25699516 25684050 25661306 25628196 
2260.802 25585212 25536574 25488082 25444374 25406186 25369652 25329926 
2264.177 25282968 25228886 25173020 25122708 25083880 25058782 25044496 
2267.552 25034772 25023262 25006308 24984126 24959946 24937346 24917800 
2270.927 24900500 24882744 24862360 24838958 24814610 24791806 24772022 
2274.303 24754202 24734982 24710744 24679984 24644600 24609358 24580638 
2277.678 24561776 24552484 24548628 24543578 24530852 24508030 24475532 
2281.053 24436552 24394632 24351980 24308738 24264202 24217884 24170766 
2284.428 24125332 24083582 24046354 24011896 23976740 23936860 23890542 
2287.804 23838942 23784902 23732966 23686004 23644088 23605322 23566630 
2291.179 23525914 23483276 23440750 23400466 23363716 23329624 23295608 
2294.554 23258796 23218492 23175782 23134472 23098722 23070802 23050642 
2297.929 23036176 23024088 23012490 23001554 22993310 22990026 22993206 
2301.305 23001800 23012978 23024474 23034744 23044912 23058400 23078526 
2304.680 23106516 23141670 23180114 23217408 23250930 23280050 23307038 
2308.055 23335114 23366618 23401514 23437846 23472014 23501570 23526264 
2311.430 23547636 23568030 23589964 23613894 23638838 23663750 23688034 
2314.806 23712634 23739964 23771918 23808700 23848150 23885852 23917394 
2318.181 23940360 23955240 23965360 23975234 23988610 24005908 24024572 
2321.556 24039350 24044570 24035288 24008778 23964028 23901814 23824068 
2324.931 23733910 23636074 23536896 23443756 23364134 23303228 23262292 
2328.307 23238416 23226216 23219018 23211432 23201644 23190600 23180290 
2331.682 23172776 23168092 23164702 23160682 23155370 23149640 23146250 
2335.057 23148136 23156070 23168686 23182458 23193082 23197800 23196088 
2338.432 23189622 23181058 23172460 23163862 23154078 23141496 23124966 
2341.808 23104838 23081704 23054662 23020490 22973326 22906608 22816710 
2345.183 22705988 22583010 22462892 22362274 22294776 22269350 22288358 
2348.558 22348458 22442376 22561720 22696948 22838224 22977238 23105642 
2351.933 23217268 23309346 23382000 23438722 23484292 23523464 23558234 
2355.309 23588214 23610116 23620436 23617392 23600844 23572856 23536616 
2358.684 23494050 23445960 23391478 23330112 23261838 23189238 23115356 
2362.059 23043026 22973850 22907202 22840738 22772608 22701660 22628560 
2365.434 22555088 22483374 22413522 22344832 22275278 22203436 22129096 
2368.810 22054070 21980382 21909982 21843322 21779006 21714874 21649708 
2372.185 21583226 21516930 21453114 21393138 21336928 21282640 21227662 
2375.560 21169908 21108892 21045764 20982782 20922070 20864740 20810476 
2378.935 20758234 20707110 20656688 20607904 20561696 20518654 20478884 
2382.311 20441580 20405706 20371570 20340736 20315526 20298652 20291362 
2385.686 20292958 20301152 20312576 20324554 20336012 20347540 20360144 
2389.061 20374800 20390982 20406816 20420152 20429806 20436198 20441442 
2392.436 20448526 20459086 20473188 20488818 20502572 20511882 20515530 
2395.812 20514522 20511048 20507332 20503894 20499724 20493194 20482392 
2399.187 20467212 20449292 20431510 20416506 20406262 20400218 20397162 
2402.562 20395566 20394490 20393794 20394490 20397094 20401434 20406434 
2405.937 20411158 20414874 20418486 20423696 20431892 20443770 20457836 
2409.313 20471068 20480342 20483676 20481386 20476000 20471034 20469714 
2412.688 20473396 20481592 20492152 20503060 20513306 20522928 20532758 
2416.063 20543390 20553986 20562982 20568262 20568820 20564998 20559058 
2419.438 20553360 20549746 20548670 20548706 20547522 20544084 20538212 
2422.813 20531718 20526818 20525430 20527514 20531614 20535330 20536372 
2426.189 20534252 20529390 20522998 20515980 20508200 20498232 20484928 
2429.564 20468046 20448910 20430398 20415602 20406434 20403100 20403518 
2432.939 20404838 20404108 20400184 20392822 20383098 20371846 20358686 
2436.314 20342922 20323616 20300040 20273134 20244596 20215646 20187146 
2439.690 20158478 20128076 20095000 20059570 20023970 19991388 19964988 
2443.065 19945942 19933280 19924572 19916072 19905806 19893838 19881594 
2446.440 19871292 19864390 19860228 19856586 19851176 19841984 19828874 
2449.815 19813336 19797800 19783652 19771446 19760106 19748316 19735486 
2453.191 19722344 19710242 19701020 19695056 19691174 19686944 19679802 
2456.566 19668570 19653870 19637888 19623536 19613380 19608250 19607868 
2459.941 19611680 19619620 19632204 19650508 19675156 19705112 19737706 
2463.316 19769434 19797176 19819858 19838516 19855892 19875212 19898244 
2466.692 19924468 19951388 19976194 19996560 20011894 20023414 20032922 
2470.067 20041700 20050098 20057488 20063040 20066962 20070744 20076400 
2473.442 20085840 20098852 20113498 20126476 20134182 20134980 20129358 
2476.817 20120336 20111034 20104544 20102046 20102602 20104786 20107390 
2480.193 20109750 20112352 20116204 20121064 20126374 20130990 20134252 
2483.568 20136646 20140638 20148898 20163960 20186350 20214188 20244076 
2486.943 20272580 20297438 20318304 20336914 20355284 20374764 20395044 
2490.318 20414424 20430502 20441962 20448806 20452556 20454988 20457418 
2493.694 20459712 20461238 20460684 20457904 20454188 20451478 20451340 
2497.069 20454430 20459780 20464886 20467596 20466380 20461692 20455230 
2500.444 20449466 20445750 20444532 20444742 20445158 20445264 20445264 
2503.819 20446026 20448666 20453530 20459572 20465408 20469714 20471936 
2507.195 20472702 20472874 20473466 20473604 20471798 20465790 20454294 
2510.570 20437378 20417340 20397336 20380528 20368512 20361082 20356394 
2513.945 20352678 20347956 20342366 20336116 20329936 20323096 20314622 
2517.320 20302438 20285598 20264316 20240468 20216964 20196346 20179824 
2520.696 20167328 20157540 20148898 20140638 20133210 20127136 20122764 
2524.071 20118808 20112596 20101282 20082370 20055336 20021610 19984068 
2527.446 19945560 19908164 19872332 19837546 19802378 19766762 19730770 
2530.821 19695680 19662294 19630470 19599132 19566792 19532480 19496332 
2534.197 19459878 19424878 19392726 19364074 19337640 19312040 19286476 
2537.572 19261260 19237706 19218000 19202902 19191922 19183022 19173014 
2540.947 19159404 19141502 19119756 19096386 19073362 19051792 19031714 
2544.322 19012328 18992840 18973074 18954246 18937320 18922748 18910636 
2547.698 18899978 18889594 18879420 18870942 18866132 18867584 18876030 
2551.073 18890596 18908282 18925864 18940364 18951476 18960682 18970478 
2554.448 18983702 19001874 19024374 19049646 19076062 19102168 19127826 
2557.823 19153552 19179662 19206260 19232616 19258142 19282734 19307292 
2561.198 19333310 19361476 19391790 19422766 19451248 19474880 19492346 
2564.574 19504616 19514422 19525480 19540106 19559652 19583084 19608006 
2567.949 19632862 19656782 19680460 19705388 19732608 19761840 19792042 
2571.324 19820792 19846284 19868136 19887212 19904972 19922664 19940634 
2574.699 19958014 19973280 19985596 19994686 20001522 20007662 20014010 
2578.075 20020500 20026122 20029452 20029348 20026260 20021020 20015296 
2581.450 20010124 20005268 19999682 19992152 19981988 19969878 19958014 
2584.825 19948370 19943062 19942716 19946428 19952740 19960304 19968526 
2588.200 19977512 19987990 20000306 20013976 20028202 20041874 20054678 
2591.576 20067378 20081432 20097986 20117418 20139006 20160942 20181212 
2594.951 20198844 20214118 20228628 20244008 20260880 20278584 20295076 
2598.326 20307714 20314346 20314622 20309590 20301048 20291154 20280946 
2601.701 20270670 20259768 20247722 20234704 20221686 20209676 20199226 
2605.077 20190306 20182150 20173090 20162296 20149350 20134530 20118636 
2608.452 20102254 20085458 20068316 20051104 20034274 20019458 20008218 
2611.827 20001312 19998848 19999092 19999196 19996802 19989898 19978276 
2615.202 19962872 19945560 19927798 19910384 19893596 19876738 19859706 
2618.578 19842956 19826828 19812366 19799742 19788472 19777374 19765446 
2621.953 19751680 19736318 19720090 19703864 19688158 19673424 19659382 
2625.328 19645758 19632828 19620900 19610606 19602184 19594836 19587000 
2628.703 19577364 19564608 19548770 19531232 19513766 19498516 19486732 
2632.079 19478624 19473426 19470654 19469544 19470342 19473668 19479838 
2635.454 19488674 19499522 19511234 19522984 19535182 19548666 19565232 
2638.829 19585890 19610848 19639136 19668776 19697484 19723938 19747586 
2642.204 19768670 19788368 19807336 19825962 19844100 19861754 19879130 
2645.580 19896996 19916072 19937166 19960028 19983480 20006412 20027438 
2648.955 20045690 20061686 20076018 20089414 20102530 20114956 20125818 
2652.330 20134496 20140362 20143414 20144108 20142722 20139006 20132690 
2655.705 20123388 20111484 20098192 20085630 20076192 20071854 20073588 
2659.081 20080738 20092086 20106036 20121550 20138520 20157504 20179130 
2662.456 20203636 20230608 20258900 20287404 20315386 20342540 20369380 
2665.831 20396502 20424182 20451618 20478120 20502224 20523414 20541200 
2669.206 20556070 20568090 20577644 20584244 20587580 20587614 20584696 
2672.582 20580110 20575628 20572710 20572606 20575524 20581048 20588690 
2675.957 20598176 20609642 20623678 20641052 20661866 20685842 20712254 
2679.332 20740300 20769496 20799596 20830568 20862168 20893804 20925062 
2682.707 20954720 20982678 21009316 21035608 21062876 21092126 21123536 
2686.083 21156514 21190156 21223312 21255776 21288346 21321824 21357498 
2689.458 21396062 21437310 21480896 21526678 21574694 21625990 21682584 
2692.833 21745842 21816806 21895556 21981254 22072616 22168426 22267920 
2696.208 22370994 22477758 22588490 22703336 22822262 22945032 23071154 
2699.583 23200036 23330568 23461000 23589018 23711620 23826028 23930068 
2702.959 24022366 24102566 24171150 24228430 24274398 24308878 24331478 
2706.334 24341748 24340344 24328816 24309122 24283438 24254074 24222262 
2709.709 24189262 24155806 24122916 24091428 24062534 24036688 24014174 
2713.084 23994842 23978176 23964204 23953210 23945648 23942392 23943898 
2716.460 23950094 23960562 23975060 23993478 24016238 24044324 24078154 
2719.835 24117626 24161482 24207478 24252988 24296262 24336140 24373076 
2723.210 24407880 24441704 24474830 24506346 24534744 24557848 24574152 
2726.585 24583758 24587196 24586354 24583444 24580008 24577798 24577166 
2729.961 24578430 24581164 24584950 24588808 24591824 24592912 24591510 
2733.336 24587442 24581446 24574888 24568964 24565036 24563632 24564756 
2736.711 24567980 24572644 24578676 24586250 24595892 24608340 24624014 
2740.086 24642916 24665184 24690822 24719758 24752414 24789142 24830432 
2743.462 24876150 24926958 24982336 25042180 25106558 25175126 25247006 
2746.837 25321320 25396876 25472694 25548418 25624716 25702576 25783754 
2750.212 25869976 25962054 26060346 26164642 26274490 26389678 26510256 
2753.587 26636254 26767506 26903236 27041832 27181530 27321028 27459722 
2756.963 27598106 27737736 27879884 28025792 28175492 28327900 28481526 
2760.338 28634464 28785368 28933562 29078900 29221632 29362068 29500174 
2763.713 29636124 29769848 29901480 30030774 30157408 30280598 30399274 
2767.088 30512188 30618622 30718258 30811586 30899738 30983458 31063602 
2770.464 31140628 31214604 31285354 31353298 31419088 31483240 31546480 
2773.839 31608626 31669352 31728304 31785696 31842884 31902004 31965912 
2777.214 32037280 32117728 32207820 32306824 32413486 32526638 32645718 
2780.589 32771006 32902836 33041716 33187438 33339288 33496488 33658432 
2783.965 33824992 33996628 34174140 34358036 34547644 34741748 34938456 
2787.340 35135428 35330516 35522128 35709080 35890856 36067092 36237564 
2790.715 36402952 36563752 36721184 36876440 37030888 37185060 37339508 
2794.090 37494044 37648892 37803936 37959580 38115600 38271716 38427060 
2797.466 38579812 38728056 38870508 39006672 39137184 39263856 39388748 
2800.841 39513456 39638896 39764440 39888384 40008808 40123416 40230632 
2804.216 40329516 40420276 40503416 40580096 40652064 40720436 40786124 
2807.591 40849644 40909856 40965636 41015340 41057584 41092040 41119868 
2810.967 41143180 41165036 41188056 41214032 41243980 41277576 41314308 
2814.342 41353664 41395580 41440300 41487836 41537856 41589268 41640284 
2817.717 41689260 41734712 41776152 41813800 41848200 41879652 41908296 
2821.092 41933040 41952712 41966104 41972416 41971540 41963880 41950740 
2824.468 41933332 41913296 41892316 41872248 41855096 41842876 41836784 
2827.843 41837660 41845536 41860060 41880856 41908556 41943984 41989096 
2831.218 42046180 42116708 42201928 42302320 42417352 42547100 42691660 
2834.593 42851732 43028988 43225348 43442228 43680912 43942084 44225500 
2837.969 44530760 44857360 45204800 45573156 45962712 46374408 46809592 
2841.344 47269668 47755980 48269268 48809936 49377220 49969304 50583484 
2844.719 51214944 51856764 52499984 53131540 53735628 54294332 54786696 
2848.094 55192808 55494288 55675948 55727856 55645928 55432616 55095676 
2851.469 54648540 54109080 53495856 52829120 52127912 51406984 50678424 
2854.845 49949936 49225524 48506988 47795260 47091008 46395384 45710000 
2858.220 45036176 44375428 43728984 43098068 42485492 41894980 41331472 
2861.595 40800392 40306868 39853704 39442152 39071236 38738848 38442372 
2864.970 38180068 37950648 37753368 37587864 37453264 37348136 37270980 
2868.346 37219788 37192280 37186468 37199500 37228344 37269896 37320336 
2871.721 37376156 37434592 37493396 37550580 37605024 37655720 37701940 
2875.096 37743788 37782356 37819224 37856896 37897968 37944464 37997188 
2878.471 38055920 38119436 38186256 38255148 38325280 38396508 38468548 
2881.847 38541176 38613560 38684332 38752396 38816992 38877652 38934836 
2885.222 38988984 39040748 39090812 39139284 39186424 39232588 39278252 
2888.597 39323848 39369520 39415052 39459860 39502932 39543544 39581216 
2891.972 39615808 39647536 39676648 39702932 39725768 39744432 39758304 
2895.348 39767020 39771412 39772644 39772320 39772320 39774208 39779252 
2898.723 39788476 39802640 39822144 39847272 39878144 39914540 39956388 
2902.098 40003756 40057024 40117016 40185236 40262804 40351732 40453700 
2905.473 40570860 40706352 40864204 41049208 41267628 41525568 41828936 
2908.849 42183200 42592896 43061292 43590488 44180708 44829552 45530728 
2912.224 46274652 47046512 47828028 48599432 49339580 50028488 50650088 
2915.599 51190972 51642024 51998592 52259660 52427564 52507612 52508324 
2918.974 52439564 52312432 52138108 51926028 51683596 51415600 51123952 
2922.350 50808472 50467576 50098504 49698536 49265312 48796848 48292524 
2925.725 47752684 47179056 46574792 45944372 45293240 44627800 43955576 
2929.100 43284936 42625240 41986724 41379252 40812696 40295308 39833036 
2932.475 39430252 39088780 38808840 38588976 38426660 38317460 38255180 
2935.851 38232856 38241760 38272804 38317928 38369976 38423404 38475024 
2939.226 38522780 38565980 38604656 38639164 38669736 38696868 38721172 
2942.601 38743304 38764424 38786160 38810544 38840796 38880368 38932552 
2945.976 39000872 39087876 39195096 39323628 39474084 39646408 39840444 
2949.352 40054804 40286036 40527748 40770112 41000664 41204340 41366348 
2952.727 41474132 41517988 41492612 41397036 41233888 41008200 40726656 
2956.102 40397184 40028284 39629096 39209672 38779276 38346704 37919836 
2959.477 37504448 37104900 36724212 36364076 36025764 35709692 35415776 
2962.853 35143080 34889692 34653604 34431952 34222248 34022464 33831044 
2966.228 33647012 33469860 33299610 33135794 32978654 32828144 32684260 
2969.603 32546960 32416378 32292760 32176490 32068138 31968656 31878542 
2972.978 31798388 31728412 31668744 31619672 31582114 31557988 31549402 
2976.354 31558986 31588920 31639914 31711444 31801026 31906034 32023408 
2979.729 32150838 32287192 32432194 32586138 32749210 32920674 33099212 
2983.104 33282652 33468142 33652524 33832692 34005300 34166756 34313964 
2986.479 34443504 34552740 34639788 34703632 34744264 34762496 34759444 
2989.854 34736544 34695088 34636308 34561352 34471592 34368832 34255268 
2993.230 34134032 34009420 33885636 33767864 33660368 33566356 33487290 
2996.605 33423264 33372596 33333850 33305622 33288092 33282618 33291310 
2999.980 33315710 33356604 33413030 33482562 33561664 33647548 33737820 
3003.355 33831044 33927228 34026084 34127436 34230748 34335372 34440632 
3006.731 34546856 34654680 34765368 34879780 34998140 35119620 35242752 
3010.106 35365776 35487032 35605632 35721524 35834932 35946532 36057156 
3013.481 36167300 36277580 36388756 36501652 36616884 36735108 36856348 
3016.856 36980120 37106164 37233432 37361968 37491844 37623416 37757416 
3020.232 37894172 38034328 38177788 38324552 38474520 38627324 38782140 
3023.607 38937844 39092912 39245828 39395204 39540604 39682204 39820904 
3026.982 39957548 40093036 40226924 40358604 40487340 40612404 40733976 
3030.357 40853172 40971676 41091384 41213632 41339416 41468588 41600828 
3033.733 41735732 41873048 42013188 42156652 42304148 42456408 42614820 
3037.108 42780096 42953700 43137144 43331284 43536536 43752656 43977980 
3040.483 44210824 44449048 44690448 44933456 45175752 45414760 45646652 
3043.858 45866628 46069208 46249368 46403532 46530348 46631376 46710956 
3047.234 46774496 46828708 46879092 46930104 46984296 47042820 47105964 
3050.609 47173588 47245804 47322984 47405976 47495308 47591092 47692628 
3053.984 47798552 47906792 48015284 48122472 48227056 48328924 48428376 
3057.359 48525992 48622412 48717996 48813088 48907712 49002288 49097436 
3060.735 49193168 49289616 49386392 49482184 49575692 49665772 49751592 
3064.110 49833344 49912020 49988932 50065036 50140860 50215916 50289308 
3067.485 50360184 50428056 50493372 50557240 50621200 50686652 50754240 
3070.860 50823776 50894480 50965528 51036032 51106168 51176804 51249316 
3074.236 51325608 51407652 51496768 51593400 51697296 51807148 51920504 
3077.611 52034820 52147224 52255584 52358968 52457808 52553536 52648380 
3080.986 52744072 52841504 52939896 53036436 53127496 53208500 53275544 
3084.361 53326004 53359384 53377292 53383064 53381640 53378640 53378792 
3087.737 53385984 53402248 53427540 53460368 53498364 53539444 53582252 
3091.112 53627536 53676756 53732816 53798104 53874428 53961804 54059280 
3094.487 54164744 54276124 54391852 54511448 54634864 54762304 54893312 
3097.862 55026168 55158236 55285564 55404124 55511076 55604688 55685400 
3101.238 55755244 55818200 55878448 55940068 56006556 56080144 56162000 
3104.613 56252508 56351112 56457468 56571176 56691784 56819716 56955764 
3107.988 57101348 57259188 57433156 57628192 57850992 58109428 58411912 
3111.363 58767560 59185616 59674816 60243924 60900764 61651992 62503464 
3114.739 63458220 64516580 65673880 66919608 68235680 69592856 70952528 
3118.114 72264584 73466520 74493768 75279704 75762368 75897272 75657528 
3121.489 75040344 74066024 72776504 71230480 69491472 67628136 65704636 
3124.864 63774348 61884204 60070232 58358548 56768016 55308896 53984576 
3128.240 52791960 51723084 50767424 49913028 49148564 48464236 47851264 
3131.615 47302144 46809960 46367880 45969820 45610072 45283600 44986116 
3134.990 44713772 44462884 44229684 44010280 43800736 43597524 43397956 
3138.365 43199836 43001768 42803204 42604368 42406208 42210620 42019716 
3141.740 41835724 41660488 41494144 41335552 41181976 41030672 40878368 
3145.116 40723164 40564852 40403876 40241428 40078680 39916284 39754056 
3148.491 39592068 39429780 39267408 39105096 38943136 38781380 38619468 
3151.866 38456200 38290860 38122620 37951368 37777548 37602028 37425600 
3155.241 37249064 37072780 36897220 36722484 36548832 36376360 36205112 
3158.617 36034832 35865088 35695700 35526588 35358260 35191260 35026228 
3161.992 34863228 34701908 34541404 34380844 34219740 34058084 33897060 
3165.367 33737604 33580604 33426128 33273782 33122454 32971252 32819602 
3168.742 32667506 32515534 32364328 32214422 32065928 31918942 31773434 
3172.118 31629794 31488586 31350594 31216276 31085526 30957624 30831610 
3175.493 30706452 30581506 30456882 30333038 30210402 30089328 29969780 
3178.868 29851150 29732874 29614556 29495704 29376178 29256150 29135414 
3182.243 29013966 28892196 28770392 28649508 28530602 28414380 28300880 
3185.619 28189954 28079938 27969492 27857732 27743704 27627590 27509740 
3188.994 27390828 27271454 27152114 27033018 26914518 26797532 26682478 
3192.369 26569464 26458344 26347712 26235874 26121358 26002966 25880526 
3195.744 25754888 25627634 25500660 25375624 25253538 25135136 25020662 
3199.120 24910010 24802752 24698292 24595682 24493726 24391618 24288728 
3202.495 24185582 24083022 23982132 23883576 23787212 23691498 23594862 
3205.870 23495554 23392912 23287286 23180744 23075414 22973642 22876674 
3209.245 22784514 22696704 22612086 22529786 22449424 22370820 22293974 
3212.621 22218816 22145030 22072510 22001366 21931798 21864264 21799004 
3215.996 21735078 21670778 21604120 21532876 21456108 21374168 21288624 
3219.371 21202438 21118214 21037972 20962406 20891058 20822642 20755940 
3222.746 20689664 20623018 20555512 20487186 20417790 20347888 20277994 
3226.122 20209050 20142340 20078828 20018626 19961552 19906916 19853708 
3229.497 19801650 19751020 19702510 19657026 19614628 19574384 19534178 
3232.872 19491618 19444178 19390716 19331196 19267010 19200858 19135408 
3236.247 19073050 19015824 18964800 18920430 18882674 18850628 18822876 
3239.623 18797652 18772846 18746518 18716768 18682900 18644440 18601724 
3242.998 18555558 18506768 18456392 18405504 18355520 18307272 18261724 
3246.373 18219012 18178518 18138924 18098612 18056158 18010706 17961942 
3249.748 17910664 17857630 17804188 17750580 17697704 17645802 17595216 
3253.124 17546430 17499856 17455186 17412176 17369412 17325720 17279964 
3256.499 17232076 17182536 17132488 17083582 17036680 16992194 16949918 
3259.874 16909370 16869892 16831348 16793738 16757095 16721487 16686263 
3263.249 16650420 16613444 16574889 16535580 16497066 16461411 16430853 
3266.625 16407007 16390489 16380202 16374696 16370533 16364375 16352573 
3270.000 16332034 16301140 16259449 16208954 16152482 16094128 16037190 
3273.375 15983973 15935162 15889827 15846180 15802676 15758902 15715474 
3276.750 15673975 15636155 15602873 15573611 15546858 15520176 15491297 
3280.125 15459158 15423452 15385277 15345972 15307014 15269467 15234016 
3283.501 15200626 15169230 15139380 15110698 15082773 15055570 15028952 
3286.876 15003501 14980590 14961556 14947941 14940499 14938612 14940465 
3290.251 14943209 14943482 14938510 14926611 14907098 14880490 14847881 
3293.626 14810648 14769784 14725804 14679156 14630183 14579365 14527593 
3297.002 14475588 14424513 14375603 14330088 14289338 14254583 14226918 
3300.377 14207335 14196448 14194736 14201720 14216956 14238697 14264307 
3303.752 14290057 14311459 14323102 14320636 14300912 14262767 14207403 
3307.127 14138048 14059358 13975757 13891623 13810243 13733837 13663872 
3310.503 13600961 13545580 13497315 13455139 13417410 13382110 13347599 
3313.878 13312919 13278380 13244799 13213953 13187345 13165760 13149468 
3317.253 13138164 13131436 13129012 13131163 13138061 13149571 13164940 
3320.628 13182837 13201691 13220306 13238103 13255320 13272675 13290541 
3324.004 13308854 13326859 13343020 13356551 13367041 13375208 13382486 
3327.379 13390345 13399708 13410712 13422605 13433984 13443896 13452200 
3330.754 13459070 13465495 13472433 13480328 13489010 13497896 13506304 
3334.129 13513551 13519328 13523157 13524524 13522370 13515295 13501725 
3337.505 13480499 13451038 13413378 13368202 13316712 13260205 13199813 
3340.880 13136491 13071027 13003901 12935384 12865480 12793881 12720484 
3344.255 12645327 12568716 12492187 12416898 12345202 12278222 12216500 
3347.630 12159455 12105177 12051485 11995314 11934483 11867361 11793237 
3351.006 11712555 11626749 11537761 11448146 11360488 11276894 11198654 
3354.381 11126547 11060264 10999259 10942848 10890659 10842688 10799173 
3357.756 10759805 10723940 10689639 10654798 10617074 10574803 10527783 
3361.131 10476730 10424020 10371961 10323334 10280244 10243604 10213886 
3364.507 10190990 10173928 10161412 10151372 10141298 10128241 10109079 
3367.882 10081643 10044273 9996904 9940252 9876319 9807515 9736418 9666247 
3371.739 9599645 9539250 9486891 9443375 9407991 9378974 9353447 9328529 
3375.597 9302091 9272878 9241332 9208671 9176724 9146470 9118215 9091451 
3379.454 9064688 9037014 9007717 8977138 8946188 8915951 8887609 8861941 
3383.312 8839149 8818860 8800669 8784203 8769089 8755904 8745322 8738256 
3387.169 8736160 8740081 8750156 8765607 8784000 8801751 8814667 8818218 
3391.026 8809528 8787212 8752218 8707526 8657058 8604940 8554652 8508122 
3394.884 8466394 8429365 8396665 8368289 8344476 8325832 8312829 8305466 
3398.741 8302629 8302426 8302156 8298879 8289727 8272773 8247581 8214320 
3402.599 8174747 8131430 8087409 8045215 8007244 7974474 7947644 7925946 
3406.456 7908231 7892878 7878336 7863456 7847666 7831473 7815886 7802561 
3410.313 7792744 7787482 7786099 7787077 7787920 7785897 7778745 7765286 
3414.171 7745756 7721538 7694826 7667576 7641575 7617802 7596895 7578924 
3418.028 7563886 7551850 7542342 7534655 7527912 7520664 7511528 7499830 
3421.886 7485469 7469154 7451861 7434874 7418931 7404336 7390957 7378487 
3425.743 7366590 7355368 7344651 7334306 7324028 7313076 7300744 7286558 
3429.601 7270654 7253808 7237367 7222610 7210853 7202363 7196670 7192762 
3433.458 7189057 7183599 7175077 7162478 7145333 7123978 7099458 7073492 
3437.315 7047728 7024190 7003851 6986880 6972469 6958664 6943480 6925131 
3441.173 6902474 6875913 6846695 6816806 6788533 6763191 6741384 6722572 
3445.030 6705781 6688956 6671325 6652180 6631523 6610462 6590479 6573020 
3448.888 6558791 6547690 6539180 6531578 6523304 6513079 6500163 6484927 
3452.745 6468212 6451162 6434885 6419551 6404923 6390363 6374963 6357916 
3456.603 6339222 6319016 6297870 6276221 6254707 6233563 6213262 6194137 
3460.460 6176425 6160327 6145674 6132467 6120201 6108675 6097788 6088178 
3464.317 6079777 6072856 6066908 6060558 6052595 6041642 6026926 6008784 
3468.175 5988056 5966724 5946234 5927490 5910629 5895111 5879662 5863272 
3472.032 5845204 5824752 5801783 5776432 5749402 5721636 5695114 5671917 
3475.890 5654226 5643283 5639020 5639859 5642578 5643551 5640127 5630762 
3479.747 5615691 5596459 5575516 5554305 5533666 5512792 5490544 5465915 
3483.604 5439006 5410790 5383079 5358020 5336820 5320350 5307873 5298649 
3487.462 5291136 5284428 5277418 5269302 5259274 5246463 5230466 5211250 
3491.319 5189420 5166116 5142980 5121087 5101071 5083337 5067313 5052697 
3495.177 5039054 5026014 5013076 5000104 4986128 4970878 4954355 4937196 
3499.034 4920909 4907237 4897686 4892392 4890448 4889309 4886159 4878888 
3502.892 4866825 4851479 4835530 4822363 4814523 4812714 4815930 4821827 
3506.749 4827556 4831007 4831108 4828528 4824741 4821726 4821257 4823904 
3510.606 4829600 4836770 4843706 4848731 4850239 4847491 4840891 4831409 
3514.464 4820587 4810134 4801390 4794991 4791205 4789631 4790334 4793383 
3518.321 4799480 4809598 4824440 4843605 4866021 4889711 4911995 4930963 
3522.179 4945340 4955260 4961862 4966387 4970308 4974330 4978587 4982977 
3526.036 4987938 4994105 5002886 5015657 5033087 5054742 5079046 5103955 
3529.894 5127423 5148010 5165848 5182178 5198642 5216750 5237240 5259274 
3533.751 5281543 5301668 5317667 5328300 5333398 5334136 5332258 5330312 
3537.608 5330379 5334573 5344267 5360234 5382375 5409952 5441288 5474069 
3541.466 5505779 5533565 5555211 5569239 5574743 5571891 5560950 5542861 
3545.323 5518900 5490612 5460111 5429981 5402772 5381167 5366407 5358758 
3549.181 5356410 5356779 5356242 5351143 5339067 5318606 5289995 5254746 
3553.038 5214771 5172621 5129904 5088600 5049747 5014618 4983647 4957305 
3556.896 4935219 4916050 4898356 4880798 4862134 4842398 4822329 4803132 
3560.753 4786448 4772880 4762696 4755193 4749029 4742731 4733821 4719920 
3564.610 4697712 4664119 4615659 4550764 4470646 4379498 4284889 4195687 
3568.468 4119716 4062219 4024427 4004095 3996805 3997073 3999447 3999982 
3572.325 3996036 3986338 3970789 3950325 3925884 3898535 3869349 3839095 
3576.183 3808309 3778026 3748848 3721410 3696714 3675428 3658019 3644820 
3580.040 3635431 3628983 3624573 3621432 3619026 3617556 3617289 3618692 
3583.897 3620797 3621766 3618191 3605729 3580004 3538780 3482529 3415866 
3587.755 3346676 3284574 3238004 3211967 3207293 3220445 3245014 3273223 
3591.612 3297995 3313120 3314823 3302569 3278732 3248185 3216373 3189102 
3595.470 3170210 3161299 3161566 3168441 3177854 3185697 3187834 3181358 
3599.327 3164870 3138503 3104430 3066621 3029450 2997420 2974533 2962356 
3603.185 2961055 2968828 2982840 2999154 3013935 3023411 3024111 3013201 
3607.042 2989546 2953449 2907681 2856749 2806689 2761870 2724492 2693651 
3610.899 2665446 2635043 2598542 2554411 2505353 2457200 2416483 2389328 
3614.757 2377534 2378900 2387329 2394293 2391627 2371937 2331194 2269271 
3618.614 2190306 2101666 2012878 1933693 1871427 1829733 1808704 1805244 
3622.472 1815093 1833493 1857817 1887467 1923509 1967276 2018204 2071236 
3626.329 2116982 2140689 2126372 2062247 1947838 1798490 1641610 1508525 
3630.187 1419160 1377077 1371693 1385088 1399282 1400877 1384191 1351185 
3634.044 1310006 1270692 1240984 1224337 1218688 1218854 1218887 1214867 
3637.901 1205397 1191509 1175661 1160179 1146558 1135562 1127356 1122971 
3641.759 1124234 1133535 1153235 1184000 1224702 1271655 1319411 1361754 
3645.616 1392168 1405797 1398717 1369133 1317018 1243975 1153003 1049096 
3649.474 939968 835582 747982 688142 662888 673374 714194 775000 840960 
3653.813 897733 932829 938308 914069 868947 819415 782568 771847 792062 
3658.153 838337 899990 963313 1017112 1053348 1069026 1066335 1050525 
3662.010 1029135 1008710 994861 991142 999411 1020035 1053115 1097758 
3665.868 1151907 1212740 1275344 1333304 1379836 1409986 1424712 1433056 
3669.725 1453767 1513014 1634226 1832628 2108958 2452102 2841340 3249721 
3673.583 3648062 3999279 4263775 4407179 4408585 4271471 4020414 3690231 
3677.440 3311517 2907147 2495289 2092444 1717747 1391869 1129715 937810 
3681.297 811315 736863 698098 681140 678518 688806 713431 752595 802485 
3685.637 853741 894778 913006 900422 856032 787282 707490 629903 564639 
3689.977 515075 479714 455566 440740 435400 440309 455533 478984 506483 
3694.316 533255 555084 570545 580763 589755 602131 621077 647324 677987 
3698.656 708254 731519 742206 736863 715356 681140 641451 604586 578441 
3702.995 568222 575588 598979 633952 675233 717646 757375 792427 822469 
3707.335 847699 868648 884319 892287 889034 870341 833590 778784 709946 
3711.675 635279 565469 510862 479183 473047 490594 525492 570545 617825 
3716.014 660532 694945 720002 737228 749309 759366 769025 778054 784858 
3720.354 787713 786053 781473 777390 777888 785821 800958 820145 837607 
3724.693 847102 844545 829839 807597 786053 774900 781605 808692 853310 
3729.033 908424 964043 1010370 1040594 1052252 1048598 1036608 1024286 
3732.890 1016016 1010404 998880 970685 917422 837972 741542 644471 566066 
3737.230 519255 507644 526819 568189 624097 690034 765308 850388 942658 
3741.570 1033752 1106660 1138186 1106129 998880 828942 635544 474672 390030 
3745.909 395270 475103 596988 726076 829805 887407 889831 841524 757242 
3750.249 656251 555781 466678 395369 346455 324072 331533 368540 429828 
3754.588 505057 581792 648386 696406 722093 727138 715787 693585 664282 
3758.928 630235 593969 559862 535046 527316 542079 579403 632790 690631 
3763.268 739684 769258 774668 758868 730822 702612 683728 677489 680708 
3767.607 685520 684193 671151 645333 610990 575190 545165 526089 520051 
3771.947 525890 540752 560956 582854 603923 622205 637336 650079 661560 
3776.286 671980 680675 685188 681405 666439 639427 603757 566995 538065 
3780.626 523999 527880 547354 575654 605183 629472 645632 654758 660498 
3784.966 666903 676693 689436 702844 714327 722425 727735 732216 738323 
3789.305 747517 759466 773307 787946 803713 822104 845508 874624 907262 
3793.645 937910 958697 962483 944883 908192 860747 816527 788311 784493 
3797.984 804377 839532 874624 891092 873661 814037 717048 601036 495503 
3802.324 428103 414505 454306 532923 627946 713331 766934 774867 735070 
3806.664 659702 572005 498058 455367 449264 472980 514777 562881 609829 
3811.003 654160 698364 746056 797904 849226 890295 909254 895110 844379 
3815.343 764611 676129 604022 569748 582754 637635 717646 798966 857692 
3819.682 874226 837640 751799 636474 522805 439015 403229 416595 467375 
3824.022 536804 605316 659005 690000 699392 695045 688341 689337 702778 
3828.362 727735 758736 788742 811780 825091 829108 827349 824428 824527 
3832.701 830901 844545 864664 888635 911844 927981 929011 908457 862174 
3837.041 792161 706528 619551 545894 496764 475833 479847 500313 526752 
3841.380 550705 566563 572071 568090 557606 544965 534482 530568 537103 
3845.720 556577 589854 635876 692655 757474 828245 904174 984998 1069225 
3850.060 1152737 1225333 1270891 1269595 1201377 1056869 846471 606113 
3853.917 384525 224375 145814 142698 194440 276160 368640 458452 539093 
3858.257 608435 666405 713365 749475 775100 791730 801555 807265 810253 
3862.596 809622 802518 785622 758802 727437 701284 692124 708187 749210 
3866.936 805605 860149 894612 893582 851982 778585 695675 629505 598979 
3871.275 608203 646229 694116 731851 745758 732249 698695 659204 629937 
3875.615 622836 641716 682202 734573 786518 826884 846703 842022 814834 
3879.955 774037 732150 703972 700587 725711 774535 834287 889100 921706 
3884.294 919747 880235 812145 735402 673076 644504 656483 703275 769324 
3888.634 836047 885880 905569 890495 844379 779415 711008 653895 617892 
3892.973 606046 615801 641816 678584 720699 764179 805871 842354 870707 
3897.313 887905 891955 882825 862938 837341 812145 792460 780510 774900 
3901.653 770287 759765 737493 700687 651439 596490 545032 506351 486116 
3905.992 486414 505024 537567 578939 624163 669989 713663 753458 787946 
3910.332 816394 838503 854937 867619 878907 890893 905104 920743 935685 
3914.671 946477 949797 943189 926188 900455 869179 836279 804975 778386 
3919.011 758437 746820 745127 753790 772643 798999 828444 855169 873628 
3923.351 879903 873197 856763 836478 819481 811912 816759 833324 857725 
3927.690 884917 909619 928147 938574 940931 936083 925624 911114 894346 
3932.030 877114 862041 851716 848430 853310 865859 884087 904307 923366 
3936.369 938474 948336 953450 955243 955841 956306 956837 956007 952520 
3940.709 944219 930771 912940 893549 876151 864432 860979 866490 879405 
3945.049 896438 913106 925391 929841 925126 911944 892985 872234 853542 
3949.388 840661 835183 837507 846570 860348 876517 892852 907461 919049 
3953.728 926620 929575 928446 924296 919182 915828 916094 921805 933161 
3958.067 948801 966932 984500 998813 1008444 1012562 1011898 1007680 1001470 
3962.407 994695 988684 983836 980780 979386 979485 980814 982806 984931 
3966.747 986858 988452 989780 990942 992370 994263 996655 999245 1001935 
3971.086 1004459 1006684 1008743 1010869 1013260 1016780 1021563 1028305 
3974.944 1037405 1048598 1061652 1075469 1088524 1099120 1105664 1107591 
3978.801 1104933 1098256 1089586 1080452 1072414 1066734 1064276 1065073 
3982.658 1069092 1076134 1085600 1096861 1109019 1121543 1133701 1145395 
3986.516 1156657 1167588 1178252 1188220 1196526 1202374 1205132 1204766 
3990.373 1202174 1198785 1195762 1194067 1193768 1194566 1195862 1197423 
3994.231 1199749 1204035 1211145 1221346 1233873 1246301 1256469 1262052 
3998.088 1262052 1257366 1249590 1241250 1233474 1226762 
##END=
