
##TITLE=1132a_2_c
##JCAMP-DX=5.01  $$ Nicolet v. 1
##DATATYPE=INFRARED SPECTRUM
##ORIGIN=UniL
##OWNER=Nicolet
##LONGDATE=2011/09/21
##TIME=14:15:20
##SPECTROMETER/DATA SYSTEM=Nicolet iS5
##DATA PROCESSING=
Ratio against background
%Transmittance->Absorbance
Truncated
ElementMultiply or ElementDivide
##COMMENTS=
Number of sample scans: 32
Collection length: 51.19 sec
Sample gain: 2.0
Background collected on: Mer Sep 21 14:09:10 2011 (GMT+02:00);
Number of background scans: 32
Background gain: 2.0
Sample spacing:  1.000
Number of scan points: 12415
Resolution points: 8192
Number of FFT points: 65536
Apodization: N-B fort;
Phase correction: Mertz;
Laser frequency: 15798.0 cm-1
Number of rejected sample scans: 0
Number of rejected background scans: 0
Bench serial number: ASB1000141;
##RESOLUTION=4.000
##XUNITS=1/CM
##YUNITS=ABSORBANCE
##FIRSTX=649.893372
##LASTX=4000.122314
##FIRSTY=0.077204
##MAXX=4000.122314
##MINX=649.893372
##MAXY=0.308403
##MINY=0.003184
##XFACTOR=1.000000
##YFACTOR=1.000000E-009
##NPOINTS=6950
##DELTAX=0.482117
##ZPD=6100
##XYDATA=(X++(Y..Y))
649.893 77204456 77753064 78295672 78843992 79412384 80013192 80659744 
653.268 81366208 82150400 83033440 84032928 85158232 86407232 87768712 
656.643 89232088 90799792 92491488 94346808 96416592 98743832 101361320 
660.018 104283568 107504448 110997504 114706976 118536032 122326456 
662.911 125875936 128975856 131432552 133118048 133957656 133894192 
665.803 132858144 130761120 127561272 123374400 118584312 113795656 
668.696 109567360 106197512 103675768 101814688 100381720 99187728 98119224 
672.071 97126768 96212600 95403288 94730224 94209840 93841520 93611192 
675.446 93501056 93499040 93600432 93807800 94127984 94565904 95122344 
678.820 95794168 96576112 97465736 98467368 99594904 100867632 102311216 
682.195 103950944 105808120 107905224 110267808 112928400 115934432 
685.088 119344304 123219264 127624824 132622184 138270496 144634672 
687.981 151778304 159741440 168492064 177862352 187471376 196642416 
690.873 204490368 209968912 212064432 210112448 203919328 193878000 
693.766 180851808 166054000 150804768 136242528 123313576 112615016 
696.659 104383888 98597408 95021752 93326440 93151080 94204616 96305328 
700.034 99369632 103379712 108296424 113951000 119989080 125825600 130675736 
703.408 133765992 134455808 132439744 127842352 121191280 113292752 
706.301 104978880 97021608 89962096 84056376 79346744 75709744 72955120 
709.676 70880208 69322328 68165392 67320056 66717304 66295296 65997644 
713.051 65785168 65637572 65552792 65539308 65602736 65738364 65930844 
716.425 66158676 66404620 66663564 66940636 67245896 67585856 67956816 
719.800 68345384 68736160 69118280 69493616 69876592 70289592 70752424 
723.175 71276624 71861624 72497872 73171328 73867000 74570984 75269104 
726.550 75942376 76568744 77126176 77600280 77993416 78330352 78656344 
729.925 79023808 79483960 80070480 80793064 81642232 82596760 83638392 
733.300 84757752 85959360 87254944 88656512 90168112 91784600 93497112 
736.674 95302800 97213624 99260600 101485240 103932000 106635336 109611152 
740.049 112860416 116378192 120166224 124243792 128650728 133442448 
742.942 138692144 144491072 150954288 158242000 166544432 176041040 
745.835 186822512 198764176 211407520 223804880 234625584 242303520 
748.727 245367952 243023504 235421520 223755568 209835328 195751648 
751.620 183399376 174051120 168410512 166525728 167930768 171766080 
754.513 176985728 182601808 187714288 191685712 194150656 194940032 
757.405 194029952 191456352 187267744 181516848 174287648 165744400 
760.298 156154096 145904032 135492832 125432136 116230120 108321600 
763.191 101984368 97348472 94366480 92844504 92464960 92850328 93644496 
766.566 94515944 95213184 95576056 95512432 95001552 94079632 92833880 
769.940 91386184 89877936 88457352 87242592 86310216 85687440 85357208 
773.315 85277288 85402184 85703272 86170344 86806400 87615032 88589184 
776.690 89707704 90943080 92269328 93671584 95148088 96703304 98338736 
780.065 100045392 101801240 103578096 105350944 107101872 108824480 
782.958 110516080 112170656 113772448 115294520 116702928 117967616 
785.850 119065840 119983712 120713560 121245016 121560008 121634800 
788.743 121441664 120959728 120182224 119117880 117787752 116216264 
791.636 114425600 112431264 110244576 107879528 105357528 102708744 99969472 
795.010 97171608 94337296 91478288 88600152 85713240 82842576 80026816 
798.385 77318304 74770880 72423840 70301160 68408168 66738164 65279104 
801.760 64019256 62946320 62043484 61286540 60645764 60087468 59584196 
805.135 59119476 58687940 58292644 57937496 57622744 57344328 57098172 
808.510 56887584 56728556 56650596 56692956 56892532 57278428 57863444 
811.885 58642012 59586136 60644924 61746520 62788084 63647344 64200872 
815.259 64331496 63964768 63084952 61742432 60043864 58129160 56150576 
818.634 54231600 52459756 50883492 49516496 48354296 47382736 46586188 
822.009 45945252 45435548 45030328 44701504 44426256 44193108 44000016 
825.384 43851724 43751700 43697836 43679812 43684572 43701060 43726636 
828.759 43766876 43832696 43932332 44066572 44227444 44402620 44581096 
832.133 44759020 44941064 45137592 45358076 45606388 45878924 46167848 
835.508 46466844 46774792 47097432 47443896 47822076 48234576 48678116 
838.883 49146820 49637724 50154212 50706612 51307672 51967892 52691548 
842.258 53476292 54316900 55210868 56161056 57176932 58269832 59445648 
845.633 60701276 62021084 63379884 64743788 66073140 67325320 68449208 
849.008 69387752 70084000 70483704 70552352 70285352 69715464 68910480 
852.382 67961536 66973612 66038384 65226392 64582400 64122588 63842244 
855.757 63721128 63731372 63839020 64008960 64211512 64423336 64633264 
859.132 64842604 65062940 65310336 65599420 65940336 66337176 66791840 
862.507 67306048 67883312 68525320 69224928 69959224 70684816 71335080 
865.882 71834888 72107960 72090904 71749976 71084496 70128544 68942432 
869.256 67609552 66224932 64879612 63663616 62652984 61901436 61444724 
872.631 61296840 61456440 61914656 62663244 63700752 65035416 66683612 
876.006 68666840 71006808 73716440 76790680 80189944 83831824 87570888 
879.381 91191048 94439336 97027776 98688304 99238064 98602440 96852944 
882.756 94187488 90919544 87410848 84000080 80995288 78616480 76994968 
886.131 76194512 76215640 77016536 78517776 80612152 83158736 85967640 
889.505 88818360 91447616 93564512 94907088 95255632 94482240 92580176 
892.880 89666360 85967920 81764456 77371040 73072128 69076976 65527364 
896.255 62480932 59933428 57842208 56148500 54793084 53718792 52876124 
899.630 52219300 51704496 51295812 50965380 50695108 50477032 50307204 
903.005 50181288 50091588 50026260 49973244 49925476 49882176 49849100 
906.379 49834160 49843004 49875264 49925216 49984320 50045928 50109472 
909.754 50178648 50259472 50356240 50467876 50589332 50714208 50838380 
913.129 50963108 51094580 51240928 51407504 51595008 51799084 52013828 
916.504 52235560 52465136 52707820 52970292 53256516 53565344 53890672 
919.879 54224392 54561300 54901020 55248536 55611696 55998304 56413512 
923.254 56860200 57342628 57867800 58446936 59091836 59808420 60588120 
926.628 61402852 62207448 62942488 63546160 63971756 64192876 64213164 
930.003 64062604 63795952 63479388 63179060 62958844 62868612 62941684 
933.378 63197040 63636720 64250500 65015832 65903036 66874384 67883976 
936.753 68883216 69820864 70649376 71336920 71871944 72271272 72576584 
940.128 72853104 73175640 73611064 74213680 75013408 76015472 77204216 
943.502 78548544 80007056 81525528 83041504 84483776 85769584 86819352 
946.877 87561936 87943296 87940584 87561936 86847552 85858168 84670528 
950.252 83367360 82024112 80712416 79493472 78411944 77499904 76772656 
953.627 76230368 75861912 75650504 75579008 75632016 75797912 76067384 
957.002 76430048 76875232 77391944 77970496 78606192 79299376 80055176 
960.377 80879592 81778288 82753808 83807064 84940320 86161256 87483664 
963.751 88929648 90524632 92291784 94249152 96404224 98753648 101285584 
967.126 103984192 106836480 109837368 112995016 116331024 119876976 
970.019 123661728 127697464 131958440 136370416 140795648 145031456 
972.912 148848400 151999584 154269888 155529344 155751872 155039168 
975.804 153595424 151719488 149744960 147977360 146687904 146054736 
978.697 146149408 146932112 148252384 149870464 151461584 152686880 
981.590 153224880 152809952 151296176 148663408 145023920 140584144 
984.482 135618464 130424232 125259680 120349264 115856632 111876864 
987.375 108455424 105590792 103249032 101375256 99907032 98785176 97954000 
990.750 97367664 96988712 96782584 96720112 96775096 96924176 97150016 
994.125 97440232 97786624 98184184 98628136 99112832 99632040 100179864 
997.500 100751328 101344664 101959600 102596896 103256264 103935832 
1000.392 104632392 105342664 106064416 106797960 107545832 108311392 
1003.285 109097776 109907136 110740368 111599112 112485864 113405448 
1006.178 114363640 115365560 116414320 117509664 118648008 119824224 
1009.070 121033936 122274072 123543432 124841600 126167760 127519400 
1011.963 128893448 130287216 131700752 133138176 134608656 136123888 
1014.856 137696080 139336672 141053568 142852176 144736544 146710352 
1017.748 148778144 150944864 153214928 155590560 158070160 160646800 
1020.641 163305680 166020384 168752400 171442896 174012544 176370528 
1023.534 178411696 180037968 181177936 181796752 181912176 181591072 
1026.427 180946624 180109952 179210896 178366224 177652960 177107520 
1029.320 176720160 176438224 176166688 175771120 175100928 173987504 
1032.213 172266912 169811792 166536816 162423296 157523712 151963600 
1035.106 145928192 139631600 133316456 127210112 121497496 116322104 
1037.999 111759752 107826952 104493328 101698672 99370384 97433808 95826720 
1041.374 94495792 93396072 92491936 91752144 91150984 90670312 90296088 
1044.750 90018064 89827848 89715000 89667784 89675568 89729744 89827448 
1048.125 89970616 90164112 90410696 90707016 91039792 91387168 91720464 
1051.500 92007032 92217336 92327072 92319536 92189312 91942576 91599008 
1054.875 91188344 90751688 90335008 89979384 89719848 89578064 89561240 
1058.250 89666360 89882376 90195184 90586256 91031864 91501360 91951224 
1061.626 92329904 92583256 92657600 92515056 92136664 91527256 90712120 
1065.001 89733896 88646432 87503968 86360384 85264224 84251632 83349256 
1068.376 82570720 81918072 81385552 80964304 80646984 80429848 80313064 
1071.751 80298120 80384432 80566680 80836048 81180032 81587336 82049448 
1075.127 82560824 83118488 83719352 84359624 85034888 85742544 86484336 
1078.502 87268024 88108000 89023304 90033272 91157328 92413600 93819072 
1081.877 95393720 97160704 99145216 101375544 103878128 106674168 109777936 
1085.252 113193112 116908976 120894032 125095472 129434720 133805128 
1088.146 138091488 142173120 145940656 149317264 152256192 154741520 
1091.039 156774288 158354736 159466352 160074432 160132048 159606480 
1093.932 158507280 156911776 154972064 152896544 150942976 149360864 
1096.825 148358256 148086272 148602928 149870976 151748800 154014256 
1099.718 156367584 158449776 159912128 160424400 159728144 157687984 
1102.611 154292432 149662160 144010864 137628128 130827784 123897456 
1105.504 117106136 110665288 104720392 99366840 94641672 90538056 87018408 
1108.879 84027992 81505384 79386128 77611296 76124744 74870832 73800552 
1112.254 72867952 72033600 71268664 70552352 69872120 69222328 68601016 
1115.630 68009280 67450152 66929504 66454424 66032244 65668756 65366336 
1119.005 65123640 64936556 64800212 64711140 64668028 64671180 64720592 
1122.380 64814484 64948908 65118788 65319620 65550448 65813772 66115312 
1125.755 66461144 66855872 67301720 67798720 68346848 68947840 69605888 
1129.131 70327064 71116064 71974080 72896096 73871944 74886536 75921496 
1132.506 76957544 77974776 78951280 79866216 80699808 81436624 82071256 
1135.881 82611032 83078856 83509024 83946616 84440672 85034408 85766880 
1139.256 86668072 87758616 89051736 90553280 92261424 94165592 96247216 
1142.632 98479920 100827672 103248784 105695128 108107056 110419128 
1145.525 112555376 114427544 115947808 117027784 117588144 117573856 
1148.418 116954472 115730880 113931016 111607072 108828608 105671848 
1151.311 102222952 98570504 94797560 90987080 87210872 83526136 79981600 
1154.686 76613176 73448032 70509744 67814560 65372808 63187764 61255096 
1158.061 59563484 58096852 56837732 55766432 54861620 54101048 53458864 
1161.437 52907596 52422516 51981488 51568960 51176732 50801580 50443128 
1164.812 50101812 49777416 49469780 49180176 48912568 48673076 48468532 
1168.187 48304520 48183516 48104964 48066692 48067024 48106480 48187996 
1171.562 48315260 48490984 48715288 48986040 49300124 49656076 50055704 
1174.938 50503828 51007040 51570864 52198636 52890604 53645492 54462124 
1178.313 55341112 56284152 57291396 58359420 59478024 60629496 61792432 
1181.688 62943788 64063452 65138920 66165084 67145640 68090624 69016848 
1185.063 69946456 70903328 71913744 73000736 74179176 75451664 76804360 
1188.438 78208144 79616520 80974048 82222704 83303664 84168128 84779904 
1191.814 85114656 85162704 84925496 84413224 83640688 82625536 81386632 
1195.189 79942608 78316536 76539976 74653456 72713584 70787608 68941584 
1198.564 67237616 65716976 64394668 63260196 62283396 61426020 60649880 
1201.939 59927536 59245236 58601020 58001112 57455848 56976584 56572688 
1205.315 56251832 56018656 55874044 55814468 55832176 55917532 56060576 
1208.690 56254660 56497808 56792488 57143520 57555288 58030612 58570152 
1212.065 59173580 59841960 60578904 61390144 62282628 63261732 64330684 
1215.440 65490296 66740796 68084416 69526664 71076568 72745744 74547344 
1218.816 76492952 78594480 80864184 83315584 85965256 88831576 91931320 
1222.191 95277096 98872952 102711008 106767208 111000720 115352896 119738880 
1225.566 124052664 128164424 131911736 135121408 137610208 139199088 
1228.459 139751216 139181376 137478944 134710352 131017120 126601040 
1231.352 121685040 116515360 111330224 106329256 101686280 97524920 93916256 
1234.728 90893000 88451344 86564528 85190480 84280840 83785040 83648000 
1238.103 83817112 84241576 84872232 85668760 86595704 87620464 88712760 
1241.478 89837024 90950192 92006344 92955264 93750568 94359032 94761624 
1244.853 94958088 94964272 94811000 94538640 94192352 93823880 93483920 
1248.229 93218376 93066256 93050616 93176984 93432880 93792296 94220784 
1251.604 94681760 95145112 95588816 96001064 96380816 96736960 97088480 
1254.979 97461464 97890352 98412624 99061304 99862200 100825792 101944600 
1258.354 103191456 104521736 105878256 107188720 108375264 109357224 
1261.247 110049144 110375584 110272168 109692616 108617512 107054472 
1264.140 105038088 102620520 99868584 96857584 93661344 90359848 87034192 
1267.516 83759320 80608208 77641560 74902016 72419528 70209976 68280000 
1270.891 66631384 65261552 64163344 63322604 62719516 62329368 62125516 
1274.266 62085532 62192080 62433372 62801904 63291244 63893676 64600892 
1277.641 65404780 66299736 67285000 68363448 69541328 70824776 72220208 
1281.017 73733400 75371168 77143704 79064032 81145760 83399360 85826392 
1284.392 88414176 91131000 93929832 96747768 99508736 102136840 104555752 
1287.767 106694592 108497880 109921048 110934784 111524016 111684544 
1290.660 111418648 110730104 109618920 108080792 106110736 103710768 
1293.553 100901024 97726624 94266728 90625488 86923968 83297512 79873064 
1296.928 76766960 74084024 71902368 70277128 69235232 68772416 68855144 
1300.304 69423704 70405848 71716600 73268040 74978984 76765816 78546840 
1303.679 80245384 81781928 83083664 84091120 84756424 85051216 84964576 
1307.054 84501648 83683112 82548120 81164816 79627296 78061616 76618944 
1310.429 75439832 74639600 74273080 74315312 74654320 75104112 75456672 
1313.805 75503936 75096544 74175792 72772312 70994944 68991336 66927380 
1317.180 64944640 63140668 61571768 60250584 59163292 58282296 57581468 
1320.555 57040244 56644068 56383064 56247456 56226108 56308068 56482904 
1323.930 56742568 57081584 57494312 57973356 58508120 59084244 59685572 
1327.306 60297176 60906480 61504768 62086868 62649384 63189716 63705936 
1330.681 64196952 64663992 65111436 65546668 65978132 66414036 66860476 
1334.056 67320792 67796312 68288104 68798112 69329744 69886984 70473064 
1337.431 71089296 71734504 72406384 73103416 73826784 74580384 75371168 
1340.807 76206160 77090360 78025688 79011608 80046496 81129504 82262792 
1344.182 83451920 84704992 86030568 87435808 88925008 90499120 92156496 
1347.557 93894912 95712344 97608048 99580896 101628784 103745656 105921808 
1350.932 108145512 110405880 112697304 115023080 117396632 119838768 
1353.825 122374720 125031384 127833144 130801768 133956072 137306688 
1356.719 140850912 144561552 148383856 152227216 155971712 159496464 
1359.612 162688352 165472224 167824208 169770384 171374944 172713632 
1362.505 173865360 174892400 175836528 176727328 177582432 178410496 
1365.398 179212512 179982816 180713472 181403424 182068112 182746336 
1368.291 183500928 184401728 185515968 186894096 188562432 190530656 
1371.184 192800704 195376688 198265584 201471152 204984560 208772816 
1374.077 212782896 216958032 221259504 225683584 230257168 235017632 
1376.970 239975744 245086320 250220240 255183696 259732816 263594240 
1379.863 266516384 268258896 268597248 267358368 264440176 259872256 
1382.756 253831648 246632192 238638816 230144192 221332496 212239104 
1385.649 202801488 192942608 182661808 172082064 161433744 150985568 
1388.542 140968256 131545472 122805816 114798080 107564208 101130104 
1391.435 95510328 90694360 86636680 83267128 80503944 78277616 76527376 
1394.811 75200312 74244584 73590888 73160584 72883472 72708808 72625760 
1398.186 72666544 72902088 73417824 74286328 75556304 77242096 79336880 
1401.561 81821008 84667144 87827360 91208416 94669440 98002984 100949224 
1404.936 103254832 104697328 105135288 104532320 102946632 100514720 
1407.829 97412160 93849176 90041912 86189136 82485216 79086608 76100816 
1411.205 73590264 71568496 70018936 68912344 68222728 67931240 68020480 
1414.580 68468368 69240120 70288424 71569120 73046960 74705872 76551952 
1417.955 78598888 80850456 83280336 85833248 88442360 91055720 93655016 
1421.330 96250528 98862264 101493984 104114928 106653456 108993256 111009656 
1424.706 112595784 113678592 114225344 114221336 113650096 112488656 
1427.599 110717968 108348768 105438368 102103304 98502080 94794592 91131824 
1430.974 87634496 84391536 81475160 78935936 76796496 75053464 73674232 
1434.349 72609512 71806424 71230440 70876696 70767680 70933608 71385104 
1437.724 72096496 73013320 74069368 75202640 76367624 77528064 78654520 
1441.100 79724184 80714568 81607128 82390152 83059592 83618912 84076040 
1444.475 84439464 84712408 84892376 84972672 84950352 84834440 84654424 
1447.850 84455680 84289576 84199144 84203160 84297984 84466224 84692552 
1451.225 84973120 85320152 85753960 86292352 86937488 87674264 88468968 
1454.601 89278672 90063112 90785048 91420584 91959408 92405808 92767984 
1457.976 93051760 93260848 93400472 93483464 93532496 93575312 93639608 
1461.351 93747112 93908528 94125096 94392592 94708096 95073680 95499960 
1464.726 96002256 96600688 97317048 98172840 99194472 100408816 101838648 
1468.102 103496848 105381552 107478384 109755840 112175936 114693176 
1470.995 117239184 119722024 122019656 123990152 125506712 126481952 
1473.888 126874048 126677024 125901576 124571808 122731704 120455640 
1476.781 117846120 115010080 112043912 109008208 105924472 102793200 
1479.674 99610992 96387304 93156536 89970168 86883128 83943640 81179272 
1483.049 78598968 76198896 73967488 71891144 69956848 68153648 66475244 
1486.424 64923012 63506036 62238652 61135540 60205404 59448572 58858728 
1489.800 58430296 58161248 58055188 58114428 58333532 58694316 59168264 
1493.175 59719220 60313512 60925392 61537904 62145128 62746160 63336864 
1496.550 63903152 64418264 64848916 65166256 65353320 65410672 65356396 
1499.925 65223044 65052852 64888196 64770712 64732940 64794056 64959220 
1503.301 65217264 65542312 65890856 66210924 66452496 66584764 66618368 
1506.676 66608868 66636136 66756368 66983700 67295176 67653152 68021024 
1510.051 68372488 68695560 68988688 69259168 69519160 69782424 70060248 
1513.426 70357848 70673976 71000248 71325704 71639616 71940128 72238560 
1516.802 72560560 72935832 73385808 73913272 74499784 75109704 75698904 
1520.177 76233888 76704848 77137768 77581864 78089664 78686968 79362504 
1523.552 80078680 80789152 81457736 82062656 82603936 83097832 83569632 
1526.927 84042384 84531432 85047952 85603016 86211528 86891912 87658296 
1530.302 88514872 89450120 90443128 91470352 92517280 93590152 94718560 
1533.678 95946680 97307184 98813216 100452072 102200728 104032776 105930352 
1537.053 107892056 109921392 112033320 114249360 116595008 119090464 
1539.946 121739904 124540912 127474424 130520208 133672776 136934160 
1542.839 140313552 143814080 147419840 151083568 154725632 158256880 
1545.732 161590672 164659968 167420976 169824272 171801664 173271664 
1548.625 174145664 174379360 174003936 173133184 171915312 170464992 
1551.518 168828496 166976160 164848848 162422176 159757584 157013424 
1554.411 154405760 152105664 150183600 148578480 147128400 145601888 
1557.304 143752800 141402800 138520128 135300720 132110624 129299920 
1560.198 127025528 125245496 123809232 122551136 121330056 120023496 
1563.091 118536160 116805416 114818488 112622576 110313944 108007744 
1565.984 105780512 103645736 101545512 99377208 97028856 94427968 91582976 
1569.359 88593896 85623800 82829424 80314184 78103544 76165568 74442712 
1572.734 72875912 71413888 70014584 68644136 67284808 65952136 64711556 
1576.109 63675584 62975772 62707684 62908208 63563532 64635380 66090660 
1579.485 67915120 70116936 72717424 75737320 79184648 83039336 87244984 
1582.860 91710272 96291304 100798632 105016096 108696576 111609736 113574728 
1586.235 114467304 114247072 112958656 110741656 107815440 104467200 
1589.128 101034472 97829336 95123624 93123528 91947120 91648928 92228280 
1592.503 93646960 95837920 98712344 102173648 106104608 110376696 114861440 
1595.879 119423736 123943864 128325088 132482456 136339168 139811872 
1598.772 142792592 145163664 146812496 147652816 147652304 146834720 
1601.665 145275456 143078288 140369312 137290736 133983272 130592216 
1604.558 127249016 124048120 121048296 118266344 115688760 113287248 
1607.451 111036480 108923336 106945320 105104896 103401072 101824448 
1610.344 100361056 98999912 97739200 96587576 95558424 94658848 93878792 
1613.719 93186888 92530560 91850376 91094096 90243064 89330320 88442688 
1617.094 87690328 87157944 86880784 86840592 86988528 87266288 87624728 
1620.470 88032688 88474696 88953352 89484808 90095608 90814496 91665792 
1623.845 92665968 93818656 95117272 96546312 98084792 99704896 101372744 
1627.220 103055000 104720768 106348808 107931560 109475216 110994760 
1630.113 112507120 114029576 115576760 117163720 118805968 120523064 
1633.006 122340600 124289400 126407904 128739312 131329328 134206936 
1635.899 137378832 140833872 144541088 148478720 152641584 157039632 
1638.792 161693344 166624192 171851168 177375616 183180016 189234848 
1641.686 195492576 201898928 208406288 214958144 221509040 228033392 
1644.579 234523312 241000880 247504560 254071856 260685328 267260848 
1647.472 273671264 279784704 285515712 290830848 295730752 300175520 
1650.365 304012864 306938944 308402944 307677792 304153472 297819712 
1653.258 289578272 280796544 272512960 265002720 258008512 251082448 
1656.151 243865152 236171776 227996256 219455872 210721472 201965152 
1659.044 193278880 184679440 176128144 167561072 158933952 150252432 
1661.937 141588672 133081944 124918104 117285328 110331584 104131184 
1664.830 98674672 93891912 89672304 85894344 82449792 79264056 76308688 
1668.205 73605096 71211080 69195552 67608272 66462808 65735936 65380356 
1671.581 65346808 65592564 66085212 66807568 67753480 68930360 70356016 
1674.956 72051208 74028184 76279464 78787736 81537240 84525912 87770256 
1678.331 91295744 95122720 99240528 103605984 108155080 112819728 117574376 
1681.706 122452248 127543848 132973072 138839168 145133408 151661456 
1684.599 158085488 164051792 169313824 173756384 177335040 180028240 
1687.492 181793024 182585168 182381600 181183360 179026928 175980112 
1690.385 172153472 167701296 162810256 157686736 152483824 147255952 
1693.279 141937744 136348560 130274368 123606408 116493648 109383008 
1696.172 102862096 97355728 92974224 89518856 86642912 83973792 81246384 
1699.547 78398928 75596208 73140080 71260032 69973120 69099824 68393936 
1702.922 67618840 66602996 65234632 63450508 61240868 58648268 55765604 
1706.297 52713172 49618668 46597772 43731584 41069384 38623524 36374992 
1709.673 34289724 32337126 30505754 28808878 27274030 25922168 24753642 
1713.048 23738144 22825616 21962014 21115814 20286500 19500352 18788416 
1716.423 18163938 17609016 17087372 16569693 16057201 15585185 15199322 
1719.798 14929320 14771430 14692797 14644919 14586492 14495697 14379610 
1723.174 14264787 14182583 14147734 14151329 14165501 14161495 14125519 
1726.549 14064834 14001249 13956971 13941062 13942977 13939145 13907840 
1729.924 13844175 13764001 13696733 13666505 13677858 13706958 13710001 
1733.299 13640417 13481081 13260922 13044326 12889577 12817291 12810159 
1736.675 12829167 12837187 12809544 12743925 12655868 12570490 12505589 
1740.050 12462043 12424298 12373293 12298503 12204368 12105654 12018136 
1743.425 11947766 11887044 11818943 11727703 11609597 11475260 11344979 
1746.800 11237212 11158775 11099659 11039089 10954945 10837288 10693579 
1750.176 10545029 10414483 10314445 10242586 10186614 10134990 10085712 
1753.551 10046715 10030235 10043832 10083813 10133600 10170739 10178642 
1756.926 10155713 10117862 10088595 10087408 10118643 10170367 10220264 
1760.301 10247708 10243637 10215786 10183934 10168603 10180203 10214260 
1763.677 10257377 10296157 10325981 10351736 10383770 10429824 10489425 
1767.052 10551955 10602847 10632047 10641114 10642744 10653881 10684545 
1770.427 10731276 10776076 10794723 10771422 10708963 10630587 10566553 
1773.802 10539462 10551683 10588825 10628516 10653881 10660062 10655817 
1777.177 10656190 10673780 10710152 10754915 10790952 10804370 10793059 
1780.553 10768535 10749617 10751145 10776347 10814697 10849789 10866742 
1783.928 10861781 10843742 10829338 10833007 10859233 10900716 10944548 
1787.303 10980194 11006463 11031646 11068285 11125255 11200286 11279376 
1790.678 11340558 11366100 11350828 11307058 11257545 11224325 11216946 
1794.054 11230343 11250881 11266897 11274819 11280906 11295903 11328143 
1797.429 11377086 11432430 11479241 11504894 11506629 11492781 11478833 
1800.804 11477539 11493394 11519728 11545418 11561478 11567365 11570768 
1804.179 11584040 11615825 11666195 11726001 11781899 11824390 11851698 
1807.555 11871277 11894740 11931282 11982097 12039426 12091481 12130356 
1810.930 12156661 12180310 12214421 12268372 12342510 12428116 12513092 
1814.305 12588738 12654777 12719973 12796133 12891591 13005471 13127406 
1817.680 13242817 13339775 13415291 13475372 13530300 13587765 13647528 
1821.056 13701521 13738967 13752236 13740676 13711301 13674370 13638023 
1824.431 13604380 13569817 13529958 13485387 13443075 13414130 13406646 
1827.806 13419973 13442426 13455071 13439555 13388808 13312270 13232775 
1831.181 13174606 13151484 13162036 13191923 13222937 13241314 13244526 
1834.557 13240597 13242647 13260000 13292728 13330925 13361984 13376916 
1837.932 13376916 13373123 13381016 13412284 13468913 13542879 13620586 
1841.307 13690510 13746525 13789653 13824746 13855909 13882147 13898603 
1844.682 13901579 13893197 13883721 13887074 13913690 13965389 14033657 
1848.058 14104092 14162899 14203158 14229007 14252700 14287899 14341595 
1851.433 14411190 14486379 14555962 14614145 14664453 14716516 14780651 
1854.808 14860019 14947427 15028128 15087953 15119583 15127269 15123529 
1858.183 15122843 15133650 15154236 15174548 15183607 15176744 15159108 
1861.559 15144114 15145281 15170019 15215107 15269535 15320537 15360972 
1864.934 15393447 15427297 15472789 15532915 15600709 15661368 15700668 
1868.309 15712349 15704205 15694175 15702041 15737221 15796147 15863845 
1871.684 15924539 15967473 15992396 16007487 16023610 16046990 16075458 
1875.060 16099390 16108673 16099216 16076557 16053591 16044136 16055515 
1878.435 16085291 16122738 16155338 16175697 16185740 16194612 16212326 
1881.810 16243970 16285833 16328732 16363412 16387016 16406009 16433777 
1885.185 16482886 16558195 16653726 16754994 16847194 16921014 16977344 
1888.561 17025996 17079342 17145414 17223526 17305928 17383722 17452944 
1891.936 17516622 17582276 17656602 17740088 17826006 17902928 17961664 
1895.311 18001518 18031634 18067970 18123794 18205054 18306234 18415392 
1898.686 18519906 18613900 18701166 18791738 18896030 19017692 19151614 
1902.062 19287030 19413376 19525618 19627246 19725742 19827140 19930158 
1905.437 20024594 20095000 20129532 20124984 20090074 20040972 19994858 
1908.812 19962490 19944068 19933558 19923496 19912466 19906534 19916940 
1912.187 19952534 20015574 20099652 20193638 20286536 20374486 20460162 
1915.563 20550510 20649634 20755072 20856744 20942446 21005490 21050388 
1918.938 21091116 21145348 21224146 21326418 21438912 21543218 21625434 
1922.313 21682446 21724628 21769148 21831650 21916640 22016284 22115080 
1925.688 22199006 22264258 22317866 22373750 22444400 22533312 22633062 
1929.063 22729626 22810530 22873042 22925958 22984960 23063466 23165680 
1932.439 23283406 23402422 23509334 23599444 23679112 23761068 23855396 
1935.814 23963120 24073568 24170694 24242302 24286100 24312030 24337120 
1939.189 24376654 24434450 24502350 24563388 24603186 24616580 24611882 
1942.564 24604202 24608094 24627522 24654208 24674128 24675988 24659820 
1945.940 24638182 24629380 24647580 24694540 24759288 24822890 24869202 
1949.315 24894500 24907800 24927134 24966964 25030982 25108946 25183342 
1952.690 25238716 25270464 25287006 25304216 25336142 25385320 25442406 
1956.065 25491630 25522730 25536398 25548838 25581134 25651182 25760864 
1959.441 25895474 26029104 26140078 26220460 26278572 26332326 26398378 
1962.816 26482572 26576860 26666412 26738960 26794394 26845430 26911662 
1966.191 27006008 27128200 27261292 27382852 27473770 27528978 27559376 
1969.566 27582394 27612052 27648742 27680100 27688892 27664526 27610960 
1972.942 27548184 27501232 27490006 27518742 27574910 27639418 27699806 
1976.317 27757092 27824666 27918114 28041518 28178676 28300774 28375472 
1979.692 28384384 28332354 28244970 28155234 28090226 28060356 28057316 
1983.067 28064246 28064880 28054736 28041412 28039256 28057422 28094856 
1986.443 28138618 28172240 28185144 28179416 28168456 28170578 28197448 
1989.818 28247056 28305476 28353188 28378052 28380528 28374480 28377840 
1993.193 28404264 28453754 28513512 28565278 28597056 28607284 28607214 
1996.568 28612168 28632554 28667522 28705504 28730920 28733396 28715982 
1999.944 28692794 28684052 28702636 28749718 28812986 28876192 28925028 
2003.319 28957010 28980598 29009644 29052400 29108096 29163158 29202458 
2006.694 29216528 29208270 29190834 29180770 29187148 29206532 29224714 
2010.069 29226414 29205790 29171486 29143634 29143990 29182932 29254520 
2013.445 29339344 29412518 29457478 29473612 29474358 29479074 29500492 
2016.820 29538972 29581142 29611188 29618176 29607002 29593558 29598878 
2020.195 29636656 29706404 29793978 29881888 29956928 30016962 30071326 
2023.570 30131660 30202908 30278644 30342846 30377738 30375322 30341850 
2026.946 30295128 30256868 30242124 30252178 30277222 30302872 30321030 
2030.321 30333572 30352226 30388328 30445830 30515956 30581330 30624278 
2033.696 30636722 30623638 30600422 30583462 30579764 30584706 30583284 
2037.071 30561350 30512862 30444088 30369780 30305610 30259496 30226742 
2040.447 30194630 30150518 30090322 30021648 29960052 29919796 29906450 
2043.822 29912874 29922104 29917310 29890832 29847920 29804410 29776874 
2047.197 29775204 29796036 29826874 29849482 29851894 29831772 29794864 
2050.572 29751146 29708426 29669330 29632826 29597672 29566708 29546454 
2053.948 29545108 29566778 29607604 29656132 29697640 29722194 29728652 
2057.323 29727088 29732766 29759130 29810940 29881922 29956998 30019982 
2060.698 30060992 30078570 30080344 30075550 30072142 30070864 30068910 
2064.073 30061630 30048528 30033794 30023994 30024312 30034256 30046220 
2067.448 30050942 30040716 30014904 29980784 29949614 29931226 29928456 
2070.824 29936196 29943650 29942196 29927642 29904428 29881284 29867052 
2074.199 29865028 29870778 29875178 29868968 29848062 29815446 29779250 
2077.574 29747774 29725528 29710944 29698208 29681322 29657338 29628958 
2080.949 29601858 29580150 29564542 29550498 29530814 29499534 29455776 
2084.325 29403868 29352036 29307688 29273234 29246050 29220320 29190622 
2087.700 29155434 29118228 29084108 29057574 29038728 29022502 29002452 
2091.075 28974612 28940504 28907814 28886070 28883238 28900872 28933774 
2094.450 28971388 29003692 29024982 29035220 29038302 29038762 29037098 
2097.826 29030402 29013894 28984600 28944010 28898678 28857352 28826476 
2101.201 28807036 28793972 28779846 28758534 28728160 28692582 28658284 
2104.576 28630678 28611142 28596562 28581698 28563296 28542172 28523488 
2107.951 28513122 28515280 28527806 28544508 28556468 28558132 28549320 
2111.327 28535448 28524232 28521190 28526072 28533502 28534846 28523488 
2114.702 28498192 28463730 28428742 28400762 28383782 28376496 28374338 
2118.077 28372430 28368184 28362454 28357078 28353012 28347952 28337590 
2121.452 28317112 28285850 28247906 28211698 28185852 28175846 28180266 
2124.828 28192110 28202186 28203424 28195328 28182810 28172842 28171674 
2128.203 28180160 28193842 28206676 28214102 28216930 28221704 28237508 
2131.578 28270856 28323302 28390398 28464510 28539376 28612948 28687098 
2134.953 28765826 28849846 28934872 29011910 29072134 29111036 29131480 
2138.329 29141862 29152456 29169538 29192960 29215182 29228718 29228684 
2141.704 29218654 29208162 29208624 29227018 29262318 29307546 29352744 
2145.079 29392344 29428864 29470846 29527410 29601822 29686996 29768356 
2148.454 29829892 29860804 29861620 29843662 29822224 29809342 29807426 
2151.830 29808918 29802282 29777298 29732376 29674048 29615870 29569544 
2155.205 29542448 29536524 29553690 29600332 29689408 29836846 30050480 
2158.580 30322166 30624846 30919198 31165296 31339232 31437288 31473692 
2161.955 31469882 31445838 31411320 31366978 31309638 31237782 31158354 
2165.331 31082394 31021250 30979330 30951150 30924534 30887072 30832322 
2168.706 30763568 30691444 30628116 30579160 30541940 30506534 30463066 
2172.081 30408442 30348992 30298076 30270154 30272284 30299748 30337514 
2175.456 30366440 30372656 30351338 30308452 30253740 30195946 30138406 
2178.832 30078250 30011886 29939924 29868968 29811118 29776980 29769386 
2182.207 29781024 29797704 29803772 29790748 29759948 29721518 29687918 
2185.582 29667910 29659858 29655246 29642972 29615690 29573516 29524964 
2188.957 29480102 29446558 29424610 29407696 29387594 29358736 29321868 
2192.333 29284152 29253316 29234388 29225138 29218406 29203414 29173150 
2195.708 29125988 29066324 29001142 28936254 28873782 28812916 28751948 
2199.083 28691874 28636694 28593694 28567650 28559474 28563898 28573242 
2202.458 28580706 28584564 28588882 28600986 28627138 28668796 28720760 
2205.833 28773084 28816740 28847366 28866346 28879768 28894712 28914542 
2209.209 28937848 28960268 28977304 28988780 28998912 29014602 29040286 
2212.584 29076104 29114828 29147036 29163726 29161492 29143668 29118830 
2215.959 29095128 29076528 29061506 29044572 29020412 28987362 28948898 
2219.334 28912880 28886460 28872792 28869356 28869392 28865886 28854908 
2222.710 28837274 28816384 28795670 28775420 28751840 28719060 28673538 
2226.085 28616344 28554238 28497412 28453472 28425454 28409960 28398886 
2229.460 28384242 28361676 28331720 28299286 28269864 28244794 28222480 
2232.835 28198226 28167150 28128508 28086300 28045900 28012890 27987904 
2236.211 27966948 27942778 27909916 27866036 27815056 27763838 27720184 
2239.586 27688504 27668304 27655522 27645704 27636416 27628154 27623670 
2242.961 27625118 27631650 27639842 27643798 27639206 27625224 27605840 
2246.336 27586596 27572616 27565270 27561918 27557080 27545994 27526932 
2249.712 27502610 27478286 27459826 27450084 27448534 27452556 27458768 
2253.087 27465722 27474086 27485912 27501620 27519906 27535864 27543912 
2256.462 27540946 27527074 27506420 27484712 27466428 27452238 27438896 
2259.837 27420472 27391958 27351196 27300174 27243406 27185658 27129612 
2263.213 27075334 27020818 26964862 26907714 26852796 26804686 26766906 
2266.588 26740194 26722434 26709222 26696536 26682232 26666270 26650346 
2269.963 26635586 26621704 26606414 26587286 26562982 26534664 26505782 
2273.338 26479686 26459402 26444926 26434116 26424150 26412638 26399960 
2276.714 26388132 26379400 26374364 26371582 26367250 26357288 26339122 
2280.089 26313494 26282830 26251362 26221690 26193958 26166154 26135750 
2283.464 26100844 26061858 26020942 25980698 25942252 25904934 25865652 
2286.839 25821588 25771342 25715828 25658424 25602854 25551894 25506002 
2290.215 25463206 25420976 25377450 25333368 25290378 25251360 25217192 
2293.590 25187100 25158028 25126746 25091112 25051306 25009852 24969842 
2296.965 24933838 24902360 24874078 24846994 24819908 24793490 24770198 
2300.340 24753292 24744696 24744626 24751150 24761780 24774232 24788194 
2303.716 24804296 24824258 24848924 24877202 24907236 24936082 24962262 
2307.091 24985600 25007640 25030422 25055588 25082686 25110736 25137524 
2310.466 25161642 25183342 25203812 25224286 25245178 25265582 25283214 
2313.841 25296418 25304778 25310362 25316754 25328274 25347382 25374008 
2317.217 25405800 25439492 25471112 25498800 25521920 25541072 25557202 
2320.592 25569360 25575898 25573966 25560506 25533202 25490648 25432042 
2323.967 25357920 25269586 25169580 25063170 24956928 24858850 24776338 
2327.342 24714216 24672830 24648070 24633588 24621700 24606656 24586388 
2330.718 24562162 24537198 24514830 24497232 24484996 24477494 24474164 
2334.093 24475216 24480894 24491132 24504664 24518792 24529836 24535164 
2337.468 24534182 24528048 24519316 24510412 24502280 24493934 24483700 
2340.843 24469956 24452992 24434660 24416714 24399188 24378228 24347634 
2344.219 24299626 24229620 24138574 24035288 23934198 23851580 23800826 
2347.594 23790082 23821092 23889388 23986998 24104528 24232038 24359760 
2350.969 24479422 24584354 24670516 24736840 24785844 24822258 24851168 
2354.344 24876816 24900500 24920606 24933416 24934926 24923168 24898290 
2357.719 24862606 24819136 24770584 24718460 24663046 24605078 24545436 
2361.095 24486152 24429402 24375496 24323454 24270228 24212488 24148100 
2364.470 24077664 24003736 23930558 23861872 23798936 23741014 23685900 
2367.845 23631108 23575620 23520388 23466838 23416376 23368924 23322598 
2371.220 23274912 23224608 23171552 23117836 23066016 23018114 22974304 
2374.596 22933294 22892218 22849258 22803580 22756544 22710318 22667134 
2377.971 22628210 22593378 22561546 22531462 22502708 22475942 22452286 
2381.346 22432572 22416522 22403056 22390252 22377378 22364332 22352086 
2384.721 22342390 22336702 22335204 22337366 22342250 22349122 22357982 
2388.097 22369912 22385612 22405044 22426396 22446912 22463414 22474266 
2391.472 22479886 22482504 22485504 22491646 22501834 22514920 22528252 
2394.847 22539174 22546156 22549610 22551006 22551844 22553134 22554600 
2398.222 22555332 22554496 22552018 22548948 22546748 22546504 22547970 
2401.598 22549854 22550098 22547866 22543084 22537708 22534010 22533904 
2404.973 22537848 22544618 22552228 22558160 22561580 22562662 22562244 
2408.348 22561372 22560010 22558020 22554704 22550552 22547236 22547342 
2411.723 22553310 22566258 22584998 22606500 22627060 22643710 22655510 
2415.099 22663468 22669962 22677676 22687346 22698622 22710318 22720794 
2418.474 22730010 22738354 22747082 22756684 22766602 22774912 22779242 
2421.849 22778090 22771420 22760876 22748690 22737028 22726764 22717300 
2425.224 22707246 22695726 22682878 22669786 22658510 22649714 22643500 
2428.600 22638544 22633762 22628210 22622698 22618928 22618820 22622974 
2431.975 22630410 22638510 22644372 22645910 22642872 22636692 22629678 
2435.350 22623534 22618264 22612258 22603220 22589642 22571666 22550830 
2438.725 22529438 22509476 22491296 22473918 22455426 22434664 22412056 
2442.101 22389728 22370052 22355120 22345492 22339704 22335272 22329796 
2445.476 22321946 22311866 22300706 22289684 22279534 22269768 22260038 
2448.851 22250168 22240854 22233114 22228266 22225858 22224570 22221536 
2452.226 22213724 22199774 22180282 22157512 22134744 22115008 22099426 
2455.602 22087676 22078158 22069374 22061076 22054140 22050166 22050548 
2458.977 22055500 22064040 22074114 22083980 22092280 22098868 22104482 
2462.352 22109432 22114382 22119508 22124772 22131152 22140148 22153434 
2465.727 22172644 22197752 22227534 22259304 22290346 22318460 22342738 
2469.103 22363494 22381634 22397752 22411952 22423604 22432084 22437770 
2472.478 22441608 22445098 22449354 22454134 22458112 22459228 22455426 
2475.853 22446388 22433060 22417918 22403684 22391996 22383378 22376854 
2479.228 22371030 22364994 22359028 22354492 22352714 22354632 22360040 
2482.604 22367784 22376960 22387496 22400334 22417150 22439376 22467184 
2485.979 22499008 22532230 22563816 22591980 22616134 22637112 22656138 
2489.354 22674012 22689930 22702742 22710844 22713810 22712658 22709550 
2492.729 22707072 22707246 22710178 22715312 22720408 22724320 22726204 
2496.104 22726380 22725262 22723270 22720164 22715312 22708260 22699740 
2499.480 22691258 22684728 22682494 22685532 22693142 22703928 22715904 
2502.855 22727774 22739472 22751622 22764960 22779520 22794118 22806444 
2506.230 22814442 22816536 22812450 22803406 22791080 22776972 22761922 
2509.605 22745966 22728788 22710808 22692374 22674744 22659176 22646084 
2512.981 22635262 22625278 22614806 22602904 22589328 22574774 22560220 
2516.356 22546400 22533940 22522982 22513454 22505254 22498590 22493284 
2519.731 22488748 22484038 22478280 22470674 22461532 22451518 22442236 
2523.106 22434210 22427304 22419556 22408916 22392902 22370994 22344376 
2526.482 22315738 22288322 22264014 22242878 22223000 22201624 22176236 
2529.857 22145832 22111280 22074778 22038872 22005094 21974038 21945112 
2533.232 21917720 21891512 21867052 21845170 21826144 21809526 21793916 
2536.607 21777334 21758244 21736298 21712576 21688820 21666772 21647374 
2539.983 21630866 21615856 21601474 21586918 21572222 21557562 21543426 
2543.358 21529604 21515918 21501506 21486152 21469964 21453358 21436614 
2546.733 21419906 21402432 21383808 21364144 21344482 21327566 21315976 
2550.108 21312044 21316464 21327774 21342948 21358924 21373578 21386384 
2553.484 21398602 21412248 21428782 21448554 21470624 21493326 21515572 
2556.859 21537018 21558782 21582148 21607950 21635880 21664334 21691188 
2560.234 21714492 21733754 21749256 21762458 21774792 21786844 21798968 
2563.609 21810988 21822730 21834646 21847608 21862346 21878862 21896880 
2566.985 21915210 21933088 21950374 21967974 21987248 22009694 22035524 
2570.360 22064144 22093532 22121670 22147332 22169996 22190638 22210166 
2573.735 22228928 22246540 22261922 22274616 22284382 22292614 22301298 
2577.110 22312146 22325576 22340714 22355156 22366530 22372772 22373296 
2580.486 22369180 22361994 22353202 22343610 22333180 22321320 22308240 
2583.861 22294742 22282602 22273464 22268582 22268374 22272314 22279672 
2587.236 22289962 22303392 22319784 22339528 22361574 22384042 22404904 
2590.611 22422382 22435956 22446668 22456856 22468964 22484702 22504278 
2593.987 22526646 22549784 22571912 22591526 22608280 22621788 22631980 
2597.362 22638718 22641860 22641896 22639974 22638194 22637914 22639974 
2600.737 22643988 22647514 22647830 22642628 22631144 22614214 22594492 
2604.112 22574530 22556170 22540012 22525320 22510698 22495414 22479536 
2607.488 22463974 22449948 22438224 22428560 22420360 22412404 22404416 
2610.863 22396706 22389972 22384982 22381878 22379646 22376680 22371796 
2614.238 22364436 22355436 22346296 22338552 22333040 22329134 22325472 
2617.613 22320622 22313680 22304750 22295264 22286300 22278592 22271792 
2620.989 22264676 22255714 22244272 22230532 22215676 22201134 22187954 
2624.364 22176098 22164764 22152526 22138404 22122122 22104514 22086456 
2627.739 22068956 22052292 22036466 22021198 22006628 21993244 21982228 
2631.114 21974246 21969508 21967556 21967138 21967242 21967242 21967416 
2634.490 21968914 21972890 21980382 21991082 22004502 22019524 22035280 
2637.865 22051108 22067002 22083074 22099182 22114696 22129026 22142066 
2641.240 22154234 22166542 22180212 22196008 22214072 22233498 22252818 
2644.615 22270814 22287068 22301926 22316610 22332062 22348668 22365796 
2647.990 22382612 22397614 22410278 22420744 22429990 22438678 22447260 
2651.366 22455006 22460764 22463382 22462124 22457448 22450820 22443562 
2654.741 22437318 22432502 22428838 22425906 22422838 22419768 22417010 
2658.116 22415476 22415720 22417918 22421860 22427232 22433758 22442026 
2661.491 22452878 22467254 22485678 22507942 22533278 22560672 22588734 
2664.867 22616832 22644232 22670800 22695900 22719046 22739332 22756684 
2668.242 22770618 22782036 22791568 22800542 22809028 22817164 22824184 
2671.617 22829352 22832286 22833264 22833088 22832776 22833160 22834764 
2674.992 22837664 22841890 22847302 22854986 22865638 22880306 22899482 
2678.368 22922850 22949538 22978356 23008228 23038238 23068182 23098478 
2681.743 23128984 23159878 23190984 23221742 23251910 23281378 23310430 
2685.118 23339624 23368994 23398784 23429070 23459670 23490692 23522556 
2688.493 23555612 23590314 23627188 23665990 23707210 23750918 23797608 
2691.869 23848080 23903216 23963610 24029474 24100746 24176756 24257020 
2695.244 24340976 24428594 24519878 24614722 24712814 24814014 24917836 
2698.619 25023962 25132432 25242968 25355392 25468686 25581310 25691186 
2701.994 25795604 25892484 25979854 26056722 26122556 26176994 26219966 
2705.370 26251256 26271040 26279944 26279064 26270158 26254916 26235312 
2708.745 26212786 26188256 26162670 26136806 26111716 26088458 26068508 
2712.120 26052324 26039974 26030830 26024144 26018726 26014576 26011690 
2715.495 26010846 26012712 26017776 26026432 26038850 26055104 26075934 
2718.871 26101724 26132972 26169322 26209618 26251996 26294272 26334756 
2722.246 26372462 26407390 26440138 26471550 26502260 26531422 26558190 
2725.621 26580912 26598454 26610572 26617864 26621386 26622972 26624100 
2728.996 26625792 26628610 26632448 26637380 26643088 26649078 26654996 
2732.372 26660280 26664368 26667080 26668208 26668244 26667468 26666552 
2735.747 26665848 26665776 26666412 26667962 26670498 26674162 26679414 
2739.122 26686460 26695936 26708024 26723562 26743084 26767292 26796790 
2742.497 26832034 26872958 26919136 26970114 27025048 27083092 27143860 
2745.873 27206610 27270996 27336658 27403074 27470346 27538580 27608840 
2749.248 27681724 27758222 27838902 27923874 28012642 28104646 28199252 
2752.623 28296776 28397190 28500774 28607886 28718176 28831254 28946418 
2755.998 29063206 29181372 29301344 29423794 29549008 29676922 29807002 
2759.374 29938646 30070864 30203582 30336414 30469606 30602660 30735152 
2762.749 30866116 30993920 31117454 31236108 31349812 31459480 31565830 
2766.124 31669422 31770442 31868450 31962808 32052622 32137066 32215886 
2769.499 32289084 32356936 32419912 32479360 32536496 32592960 32650430 
2772.875 32710054 32771934 32835398 32898940 32961172 33021160 33078972 
2776.250 33135756 33193876 33255324 33322222 33395640 33476338 33564172 
2779.625 33659652 33762492 33873064 33991148 34115928 34246376 34381132 
2783.000 34519268 34660312 34805180 34954936 35110744 35273260 35442168 
2786.375 35615772 35791896 35967948 36141804 36311840 36476928 36636460 
2789.751 36790240 36937912 37080144 37217188 37350484 37481508 37611456 
2793.126 37741548 37872404 38004168 38136656 38269404 38402300 38535056 
2796.501 38667380 38798768 38928532 39055500 39179172 39299072 39415340 
2799.876 39528736 39640312 39750316 39859364 39966884 40072284 40174660 
2803.252 40272872 40366168 40453880 40535428 40610296 40678440 40739868 
2806.627 40795188 40845128 40890560 40932356 40970588 41005324 41036060 
2810.002 41063084 41086356 41107228 41127040 41147296 41169480 41194140 
2813.377 41221464 41251380 41283444 41317584 41354032 41392768 41433740 
2816.753 41476608 41520212 41563196 41604072 41641416 41674164 41701516 
2820.128 41722964 41738576 41748460 41753460 41754336 41752036 41747516 
2823.503 41741276 41733432 41723876 41712460 41699692 41686344 41674564 
2826.878 41666176 41663152 41666800 41677740 41695172 41718700 41747768 
2830.254 41782532 41823940 41873232 41932236 42001944 42083340 42176956 
2833.629 42283112 42402592 42536500 42686320 42853744 43040184 43246356 
2837.004 43472660 43718540 43983480 44267140 44569272 44890172 45230868 
2840.379 45591960 45974572 46379308 46806896 47256924 47729088 48222648 
2843.755 48735680 49266424 49810748 50363124 50915828 51457824 51975472 
2847.130 52453472 52874324 53220932 53477944 53632256 53675336 53603504 
2850.505 53418620 53126972 52739584 52271060 51737044 51154252 50538704 
2853.880 49903808 49260592 48617184 47978280 47346740 46723724 46109704 
2857.256 45504788 44909720 44324824 43751192 43190064 42642896 42112184 
2860.631 41601008 41112544 40651260 40220528 39823268 39461132 39134756 
2864.006 38843116 38585208 38359084 38163064 37995668 37855376 37741080 
2867.381 37651564 37585696 37542304 37519872 37516872 37531000 37559500 
2870.757 37599352 37646832 37698216 37750080 37799416 37844492 37884260 
2874.132 37919336 37950972 37981636 38013788 38049372 38089704 38135064 
2877.507 38184988 38238176 38294192 38352352 38412800 38476112 38541972 
2880.882 38610016 38678572 38745624 38808880 38866888 38919324 38966840 
2884.258 39011240 39053944 39096684 39139904 39183452 39226424 39268316 
2887.633 39308832 39347792 39385444 39422232 39458408 39493972 39528664 
2891.008 39562524 39595588 39627748 39659080 39689356 39717636 39743056 
2894.383 39764732 39781288 39792436 39798500 39800064 39798572 39795848 
2897.759 39794000 39794796 39800100 39810704 39826864 39847924 39872732 
2901.134 39899976 39928816 39959476 39992932 40031408 40077444 40133264 
2904.509 40201264 40283452 40381400 40497596 40634668 40795988 40985588 
2907.884 41207624 41466328 41766156 42111232 42505696 42952824 43453764 
2911.260 44007784 44609296 45249804 45916232 46592720 47262800 47908976 
2914.635 48515176 49067832 49554784 49967000 50298384 50545740 50709372 
2918.010 50792976 50803592 50750332 50643052 50492364 50306904 50093484 
2921.385 49857236 49600356 49323692 49025804 48704580 48356628 47978316 
2924.760 47566912 47120740 46640120 46126980 45585668 45021140 44439104 
2928.136 43845708 43247236 42650388 42063160 41494108 40952308 40447224 
2931.511 39986648 39576680 39220840 38920628 38675204 38481908 38337224 
2934.886 38236548 38174352 38145120 38142408 38160028 38192408 38234016 
2938.261 38280440 38327956 38373668 38415368 38452072 38483244 38509492 
2941.637 38531868 38551964 38571480 38591868 38614756 38641268 38673140 
2945.012 38711932 38759352 38817028 38886744 38969812 39068152 39183744 
2948.387 39318660 39474560 39651852 39848108 40057716 40271128 40476392 
2951.762 40659124 40805420 40904068 40946668 40928860 40850480 40713920 
2955.138 40523788 40285560 40006232 39692184 39350800 38990108 38617112 
2958.513 38239480 37864020 37496644 37142400 36805388 36488280 36192512 
2961.888 35918064 35663576 35426816 35205092 34996308 34798716 34611584 
2965.263 34434284 34266708 34107832 33956428 33810880 33669640 33531994 
2968.639 33398290 33269416 33146918 33032280 32926430 32829824 32742030 
2972.014 32662790 32591424 32527424 32470826 32421588 32380498 32348656 
2975.389 32327882 32320172 32327774 32352012 32393600 32451722 32524426 
2978.764 32609638 32705196 32809454 32921854 33042326 33170804 33307016 
2982.140 33450142 33598500 33750388 33903904 34057152 34208592 34355996 
2985.515 34496520 34627332 34744512 34844844 34925816 34986000 35025364 
2988.890 35044796 35045588 35028920 34995736 34946536 34881540 34801768 
2992.265 34708836 34605376 34495232 34382892 34272980 34169696 34076364 
2995.641 33994444 33924576 33865900 33817364 33778036 33747772 33727688 
2999.016 33719376 33724748 33745164 33780648 33830044 33890864 33960152 
3002.391 34035004 34113204 34193176 34273808 34354880 34436080 34517436 
3005.766 34599528 34683356 34770252 34862044 34960108 35064692 35175236 
3009.142 35289904 35406468 35522488 35636024 35745988 35852312 35955280 
3012.517 36055320 36153328 36250024 36346388 36443236 36541692 36642624 
3015.892 36746644 36853752 36963380 37074836 37187372 37300328 37413752 
3019.267 37527532 37642316 37758608 37876996 37998016 38122296 38249792 
3022.643 38380148 38512208 38644420 38774640 38901240 39023528 39141716 
3026.018 39256996 39371512 39487076 39604448 39723304 39842224 39959364 
3029.393 40073156 40183488 40291452 40399148 40509164 40623392 40742708 
3032.768 40866716 40993928 41122596 41250904 41378048 41503912 41629232 
3036.144 41755540 41884836 42019024 42160484 42311160 42472116 42644248 
3039.519 42827228 43020024 43220988 43428240 43639324 43852236 44064036 
3042.894 44272020 44472612 44661916 44836240 44991996 45126928 45240172 
3046.269 45332624 45406448 45465052 45512848 45553948 45592256 45631120 
3049.645 45672860 45719132 45771112 45829288 45893916 45964884 46041872 
3053.020 46124144 46210556 46299864 46390256 46480268 46568856 46655432 
3056.395 46740252 46823544 46906036 46987804 47068928 47148956 47227776 
3059.770 47304956 47380888 47455868 47530868 47606324 47682756 47760008 
3063.146 47838204 47916968 47996188 48075576 48154604 48232168 48306820 
3066.521 48376740 48440416 48497172 48547408 48592764 48635644 48678744 
3069.896 48723780 48771896 48822796 48875564 48929112 48983076 49037672 
3073.271 49094172 49154352 49220032 49292592 49372660 49459868 49552892 
3076.646 49649612 49747692 49844488 49937708 50025852 50108472 50186232 
3080.022 50260960 50334956 50410044 50487416 50566736 50645884 50721692 
3083.397 50790408 50848292 50893476 50925700 50946528 50958860 50966572 
3086.772 50973132 50981028 50991612 51005064 51020788 51037968 51056676 
3090.147 51077548 51102556 51134124 51174568 51225532 51287236 51359020 
3093.523 51438988 51524748 51614592 51707224 51802484 51900488 52002064 
3096.898 52107028 52214704 52323048 52429324 52530460 52623768 52707672 
3100.273 52782012 52848128 52908304 52965908 53024048 53085072 53151160 
3103.648 53223180 53301692 53386884 53478988 53577752 53683168 53794768 
3107.024 53912056 54034552 54162452 54297148 54441956 54601912 54783952 
3110.399 54996456 55247968 55547336 55902796 56321572 56810500 57375716 
3113.774 58022280 58754396 59574240 60481508 61471788 62536144 63659316 
3117.149 64816868 65976628 67097104 68126360 69010168 69692360 70120680 
3120.525 70256832 70076720 69576016 68769192 67688576 66380680 64897044 
3123.900 63294740 61629084 59947616 58294160 56703864 55202292 53808344 
3127.275 52531396 51373604 50330308 49392628 48550264 47792228 47109692 
3130.650 46495680 45944112 45450152 45008388 44612748 44257196 43935780 
3134.026 43643172 43375548 43129684 42903152 42693668 42498608 42314812 
3137.401 42139092 41967784 41797784 41626788 41453896 41278996 41103656 
3140.776 40930172 40761156 40598944 40444972 40298904 40159468 40024252 
3144.151 39890932 39757284 39622048 39484788 39345540 39204632 39062464 
3147.527 38919540 38776924 38635580 38497256 38362920 38232712 38105548 
3150.902 37978488 37848184 37711084 37564960 37409420 37246612 37079672 
3154.277 36912512 36748376 36588984 36434516 36283960 36135540 35987928 
3157.652 35840112 35691956 35543596 35395828 35248824 35103308 34959392 
3161.028 34816664 34674992 34533796 34392752 34251364 34109764 33968752 
3164.403 33828968 33691340 33556368 33423874 33293028 33162616 33031240 
3167.778 32898512 32764572 32630176 32496392 32364186 32234016 32105562 
3171.153 31978466 31852618 31727806 31604740 31483884 31366088 31251382 
3174.529 31139488 31029826 30921688 30814324 30707554 30601166 30495126 
3177.904 30389394 30283832 30178756 30074450 29971732 29871096 29772934 
3181.279 29676496 29580930 29484500 29385820 29284116 29179954 29074580 
3184.654 28969866 28867868 28769578 28675134 28583644 28493662 28403592 
3188.030 28312126 28218380 28122252 28023634 27923344 27821806 27720042 
3191.405 27618692 27518246 27418780 27319758 27220652 27120758 27019476 
3194.780 26917162 26814166 26711510 26610008 26510008 26411334 26313528 
3198.155 26215954 26118298 26020732 25923612 25827672 25733090 25640216 
3201.531 25548732 25458322 25368878 25280264 25192718 25106312 25020908 
3204.906 24936224 24851834 24767426 24682826 24598558 24514726 24432172 
3208.281 24350860 24270962 24192520 24115560 24040262 23967252 23896600 
3211.656 23828444 23762152 23697236 23632996 23569430 23507166 23446940 
3215.031 23389378 23334624 23281482 23228210 23172496 23112352 23047394 
3218.407 22978044 22906084 22833858 22763354 22695900 22632086 22571806 
3221.782 22514118 22458844 22405078 22352366 22300078 22247202 22193044 
3225.157 22137080 22079240 22019908 21959852 21899910 21840848 21783606 
3228.532 21729156 21678720 21633618 21595066 21563308 21537262 21514284 
3231.908 21491130 21464080 21429966 21387778 21338320 21283754 21226932 
3235.283 21170498 21116162 21064788 21016550 20971308 20929442 20891510 
3238.658 20858030 20829524 20805504 20784996 20766366 20748050 20728588 
3242.033 20706936 20682506 20654950 20624512 20591540 20556660 20520670 
3245.409 20484580 20448630 20412858 20376084 20337538 20296326 20252164 
3248.784 20205788 20158582 20112456 20068490 20027300 19988544 19951284 
3252.159 19914790 19878820 19843302 19809176 19776508 19744986 19713642 
3255.534 19681258 19646660 19609498 19570362 19530366 19490892 19452738 
3258.910 19416008 19380390 19345262 19310480 19275944 19242244 19209584 
3262.285 19177862 19146316 19113870 19079628 19043484 19006062 18969474 
3265.660 18935970 18907694 18886410 18872360 18864884 18862568 18862568 
3269.035 18861874 18857168 18845300 18823776 18791702 18749770 18700370 
3272.411 18646894 18593252 18542382 18495840 18453524 18414560 18377126 
3275.786 18339794 18302364 18265008 18228136 18192338 18157824 18124450 
3279.161 18091874 18060544 18030460 18002036 17975480 17950268 17925510 
3282.536 17900476 17874582 17848274 17822552 17798596 17777194 17758242 
3285.912 17740432 17722450 17703262 17682898 17663470 17647562 17637554 
3289.287 17634620 17637658 17643698 17648148 17646596 17636624 17617506 
3292.662 17590972 17560024 17527868 17496338 17466258 17436388 17405174 
3296.037 17370928 17332788 17291340 17247830 17204530 17163406 17126386 
3299.413 17094818 17069520 17051186 17040366 17037196 17042056 17054254 
3302.788 17072346 17093334 17113014 17126904 17129868 17118426 17090508 
3306.163 17046604 16988920 16921358 16848398 16774107 16701275 16632002 
3309.538 16566938 16506324 16449848 16397681 16349925 16306611 16267806 
3312.914 16233478 16203212 16177004 16154408 16134910 16118061 16103206 
3316.289 16089315 16076248 16064078 16053831 16046576 16043894 16046645 
3319.664 16055241 16068786 16086014 16105304 16125558 16145846 16166067 
3323.039 16186014 16205207 16222918 16238363 16250540 16259104 16264573 
3326.415 16267532 16269114 16270043 16270490 16270835 16271109 16271867 
3329.790 16274136 16278712 16286589 16297769 16311221 16325463 16338812 
3333.165 16350131 16359007 16365958 16371360 16375281 16376588 16373940 
3336.540 16364925 16347516 16320990 16285626 16242594 16193753 16140791 
3339.916 16084569 16025947 15964929 15901718 15836662 15770171 15703142 
3343.291 15635777 15568082 15499916 15430833 15361212 15291363 15222451 
3346.666 15155300 15090938 15029638 14971193 14914951 14859368 14802935 
3350.041 14744280 14681727 14614659 14542874 14467297 14389851 14312829 
3353.417 14238970 14170157 14107412 14050528 13998443 13949684 13902742 
3356.792 13857380 13813424 13771286 13731170 13692801 13655085 13616893 
3360.167 13577064 13535086 13490924 13445502 13399879 13355663 13314252 
3363.542 13276740 13244253 13217301 13196192 13180207 13167774 13156231 
3366.917 13142638 13123889 13097730 13062934 13019674 12968839 12911695 
3370.293 12849883 12784667 12717414 12649966 12584099 12522469 12467737 
3373.668 12421467 12384271 12355498 12332794 12313331 12294685 12274473 
3377.043 12252285 12227951 12202596 12177208 12152743 12129436 12107051 
3380.418 12084872 12062216 12038711 12014150 11989216 11964659 11941431 
3383.794 11920145 11901210 11884013 11868315 11853162 11838554 11825037 
3387.169 11813699 11806141 11803723 11806617 11814039 11823437 11831745 
3390.544 11835320 11831473 11818943 11797663 11769167 11735430 11699007 
3393.919 11662043 11625762 11591356 11559267 11530140 11504588 11483119 
3397.295 11466653 11455256 11448724 11445663 11443792 11440322 11432055 
3400.670 11416442 11392392 11360181 11321716 11280124 11238946 11200796 
3404.045 11167206 11138139 11112134 11087557 11062949 11037390 11011424 
3407.420 10985767 10961946 10940776 10922971 10908565 10897047 10887601 
3410.796 10879006 10870071 10859029 10844319 10824651 10799988 10771151 
3414.171 10740650 10711374 10686379 10667600 10655579 10648924 10645154 
3417.546 10641487 10635409 10625392 10611165 10593442 10573377 10552735 
3420.921 10532502 10513797 10496926 10482059 10468856 10456772 10445334 
3424.297 10433896 10422560 10411870 10402469 10395376 10390388 10386689 
3427.672 10382446 10375150 10362255 10342642 10316413 10284756 10250457 
3431.047 10216261 10184273 10156324 10132819 10113691 10098836 10088018 
3434.422 10080625 10075776 10072147 10068011 10061194 10050309 10034236 
3437.798 10013281 9988462 9961305 9933269 9905572 9878895 9853474 9829273 
3441.655 9806024 9783724 9762002 9740485 9718290 9694505 9668551 9639991 
3445.512 9609164 9576916 9544771 9514560 9487703 9465557 9448862 9437281 
3449.370 9429527 9423668 9417099 9407144 9392416 9372372 9347725 9321048 
3453.227 9295185 9272337 9253821 9239098 9226508 9213579 9198213 9179431 
3457.085 9157366 9133442 9109180 9085868 9063808 9042799 9021994 9000850 
3460.942 8979133 8957621 8937191 8918826 8903301 8890585 8879865 8870396 
3464.800 8861062 8850984 8839758 8827280 8813653 8799113 8783730 8767568 
3468.657 8750528 8732509 8713307 8693058 8672573 8652495 8633939 8617681 
3472.514 8603723 8591016 8578038 8562695 8543264 8519475 8492410 8464671 
3476.372 8439467 8419737 8406765 8400346 8398083 8396732 8392780 8383929 
3480.229 8368525 8347178 8321137 8292226 8261967 8232250 8203885 8177684 
3484.087 8153882 8132376 8112626 8094059 8075965 8057602 8039072 8020947 
3487.944 8004071 7989391 7976937 7966272 7956452 7945417 7932020 7915283 
3491.802 7895409 7873106 7849758 7826783 7804923 7785289 7767883 7752873 
3495.659 7740258 7729970 7721403 7714185 7707676 7701200 7694758 7688418 
3499.516 7682583 7677423 7672668 7667340 7659549 7647240 7628930 7604516 
3503.374 7575855 7545949 7519046 7499088 7488200 7487256 7494099 7505831 
3507.231 7518270 7527643 7531688 7529699 7522923 7513450 7504212 7497571 
3511.089 7494470 7494908 7497807 7501516 7504449 7505831 7505123 7502662 
3514.946 7498718 7493964 7488806 7483817 7479638 7477446 7478222 7483076 
3518.803 7492683 7506808 7524473 7543994 7563751 7582329 7598885 7613384 
3522.661 7626232 7637967 7649027 7659279 7668486 7676142 7681976 7685450 
3526.518 7686967 7686630 7684775 7682043 7679581 7678334 7679345 7683494 
3530.376 7690711 7701065 7713915 7728216 7743597 7759652 7776451 7793959 
3534.233 7812007 7829752 7845508 7858294 7866965 7871925 7874490 7877020 
3538.091 7882284 7892203 7907623 7927937 7952268 7978253 8004206 8028777 
3541.948 8050717 8068843 8082076 8088793 8087274 8076370 8056016 8026887 
3545.805 7991752 7954191 7918590 7888661 7867100 7855224 7851918 7854313 
3549.663 7858294 7859340 7853403 7837815 7812513 7779318 7741202 7702482 
3553.520 7666227 7633887 7605662 7580475 7557042 7534554 7512843 7492245 
3557.378 7473232 7455670 7438716 7420785 7400764 7377880 7352773 7327128 
3561.235 7303776 7284738 7271935 7265196 7262703 7261490 7256941 7243734 
3565.093 7217355 7173931 7112392 7034898 6947015 6857500 6775172 6707296 
3568.950 6657396 6624962 6606055 6595054 6586341 6575677 6560742 6540963 
3572.807 6517687 6492293 6466127 6440434 6415650 6392280 6370458 6350721 
3576.665 6333305 6318176 6304628 6292021 6279683 6267413 6255681 6245429 
3580.522 6237362 6232522 6230942 6232354 6236421 6243177 6252286 6262841 
3584.380 6273296 6279683 6276691 6259278 6222875 6167283 6096982 6021315 
3588.237 5951877 5898873 5868041 5859746 5869821 5890510 5913618 5932696 
3592.094 5942774 5941564 5929338 5907370 5878553 5845842 5813033 5783248 
3595.952 5759442 5743493 5735737 5735066 5738457 5742184 5742586 5736912 
3599.809 5724121 5705521 5683666 5661913 5643350 5630427 5623713 5623277 
3603.667 5628044 5636603 5646908 5656441 5662115 5660335 5647714 5622471 
3607.524 5584611 5537558 5487122 5440281 5402940 5377510 5362649 5353793 
3611.382 5344200 5328031 5301533 5265143 5222719 5180869 5146099 5122428 
3615.239 5110760 5107709 5107039 5101407 5083471 5047434 4991892 4918832 
3619.096 4834960 4749263 4672056 4610870 4570084 4549759 4546913 4557293 
3622.954 4576580 4602766 4634948 4674434 4721795 4776096 4831811 4879189 
3626.811 4904087 4891152 4829700 4719518 4575877 4425388 4298843 4216397 
3630.669 4181870 4185450 4210441 4238513 4255175 4253335 4232992 4200471 
3634.526 4165143 4135504 4116003 4106804 4103961 4102322 4098241 4089946 
3638.384 4077905 4064260 4051183 4039945 4031317 4025163 4022154 4023826 
3642.241 4032320 4049745 4077470 4114330 4157716 4202747 4243397 4273780 
3646.098 4288938 4285123 4259960 4213419 4147179 4064226 3970254 3873595 
3649.956 3783909 3712187 3667609 3654811 3673657 3718302 3779096 3843274 
3653.813 3898434 3933774 3941565 3920634 3876904 3823351 3775419 3746242 
3657.671 3742599 3763788 3802460 3847753 3889475 3919030 3931936 3928893 
3661.528 3914182 3894991 3878944 3872826 3880281 3902681 3939124 3987141 
3665.385 4043624 4105600 4169693 4232122 4288470 4334149 4366378 4386694 
3669.243 4403329 4432819 4498098 4619041 4808828 5067748 5385193 5741546 
3673.100 6110625 6463336 6762922 6970987 7056484 7004423 6826062 6551794 
3676.958 6219615 5859846 5491215 5125914 4774656 4449958 4167050 3938455 
3680.815 3770974 3661795 3601586 3576830 3575293 3589625 3616520 3655780 
3684.673 3706506 3764456 3821178 3865605 3885028 3870385 3819072 3737318 
3688.530 3637971 3537811 3450866 3384609 3340532 3316325 3308045 3313053 
3692.387 3329046 3353554 3383574 3415031 3444187 3467833 3485201 3497693 
3696.245 3508950 3522745 3541820 3566039 3592064 3615050 3628482 3627546 
3700.102 3609170 3574825 3529393 3480492 3437140 3407183 3395696 3404111 
3703.960 3431329 3473444 3525785 3583612 3642482 3699054 3751021 3796243 
3707.817 3833179 3860189 3874965 3874431 3856278 3818705 3761850 3689363 
3711.675 3609337 3531430 3466597 3423647 3406716 3415799 3446525 3491681 
3715.532 3543356 3594202 3638272 3673089 3698452 3716364 3730200 3743167 
3719.389 3756602 3770239 3782238 3790159 3792298 3788789 3780968 3771341 
3723.247 3762785 3756769 3752792 3749484 3744403 3736583 3727292 3720207 
3727.104 3721210 3736048 3768334 3817635 3880181 3948185 4011987 4063758 
3730.962 4097405 4112223 4111855 4102523 4089679 4074327 4052152 4015766 
3734.819 3958952 3881016 3789357 3698619 3625274 3580471 3568044 3584380 
3738.677 3622033 3674392 3737887 3811418 3894958 3985536 4074360 4145640 
3742.534 4177822 4150926 4054761 3901243 3726591 3581206 3504708 3508516 
3746.391 3578801 3686689 3801189 3894456 3948887 3956812 3921805 3854840 
3750.249 3770005 3679705 3592264 3513660 3450131 3409855 3398768 3419206 
3754.106 3467031 3532266 3601619 3663265 3707943 3731670 3735748 3724786 
3757.964 3703632 3675228 3640811 3601352 3560159 3524148 3502303 3502336 
3761.821 3527322 3573355 3630854 3686656 3729297 3751589 3753427 3741696 
3765.678 3726858 3718871 3721410 3732071 3743267 3745707 3731771 3699221 
3769.536 3651603 3597410 3547331 3509785 3489577 3486838 3497727 3516466 
3773.393 3538212 3558289 3575026 3588523 3600951 3614248 3629751 3645756 
3777.251 3658387 3662597 3653508 3629618 3594403 3555884 3524650 3509150 
3781.108 3513259 3534771 3566741 3599414 3624506 3637269 3636902 3626811 
3784.966 3612377 3598679 3588155 3581473 3577097 3573689 3570583 3568144 
3788.823 3566841 3567442 3569714 3573656 3579502 3588589 3603156 3625675 
3792.680 3656849 3694943 3734711 3769503 3792031 3797880 3787184 3765894 
3796.538 3743835 3731403 3735113 3755165 3785547 3813691 3825022 3806738 
3800.395 3751957 3664602 3560494 3465161 3402141 3384409 3411391 3469069 
3804.253 3537444 3593033 3616086 3595672 3532299 3440212 3342969 3266947 
3808.110 3228190 3230460 3265545 3320365 3382205 3442583 3499430 3554681 
3811.968 3612144 3672855 3733542 3785714 3817869 3819306 3785547 3721811 
3815.825 3645556 3580805 3548033 3558055 3608034 3683415 3762384 3822883 
3819.682 3844945 3817033 3740928 3633460 3523313 3437574 3394093 3395495 
3823.540 3432497 3487973 3544024 3587521 3610673 3613814 3604092 3592031 
3827.397 3587554 3595505 3615284 3641813 3668611 3689463 3701192 3704701 
3831.255 3703866 3703999 3710182 3725889 3751723 3785948 3824220 3860991 
3835.112 3889642 3903215 3896963 3868379 3820175 3758942 3695578 3640377 
3838.969 3600283 3577498 3569346 3570549 3574859 3578233 3577832 3572854 
3842.827 3564369 3552810 3539782 3527389 3517835 3514394 3520307 3537911 
3846.684 3568210 3611074 3665203 3729297 3802760 3884861 3974066 4065631 
3850.542 4150123 4211412 4230148 4185450 4066066 3878676 3655179 3441415 
3854.399 3280635 3195477 3183561 3226988 3302970 3391588 3479055 3557453 
3858.257 3623837 3677633 3719472 3749851 3769637 3780332 3783909 3782806 
3862.114 3778929 3772378 3761281 3744069 3720776 3695612 3677433 3675395 
3865.971 3696815 3742064 3802894 3864368 3909735 3923376 3897732 3837792 
3869.829 3760680 3690432 3646458 3636601 3654711 3687558 3717467 3731804 
3873.686 3725822 3703565 3675629 3655279 3652907 3672120 3710081 3758942 
3877.544 3808777 3850093 3875333 3880749 3867577 3842238 3814159 3794504 
3881.401 3791864 3809479 3843675 3885028 3920166 3935212 3919698 3870920 
3885.259 3797111 3716364 3650367 3617656 3625809 3669848 3735614 3805334 
3889.116 3861192 3889241 3883290 3845447 3786014 3719505 3660692 3619728 
3892.973 3601118 3603858 3624372 3658052 3700992 3749584 3800822 3850963 
3896.831 3896027 3932136 3955843 3965539 3962229 3949623 3931635 3912878 
3900.688 3895459 3878141 3857715 3829669 3790226 3738822 3679070 3616988 
3904.546 3561496 3520374 3497760 3494119 3506445 3529527 3557487 3585716 
3908.403 3611041 3632525 3650768 3667208 3683582 3701460 3721477 3743769 
3912.260 3768033 3793168 3818103 3841469 3861392 3876503 3885897 3888873 
3916.118 3885897 3878241 3867410 3855242 3843441 3833011 3825089 3820343 
3919.975 3819875 3823819 3832410 3844377 3856946 3866942 3870786 3866407 
3923.833 3854172 3837123 3820042 3809011 3808409 3819641 3841302 3868346 
3927.690 3895459 3917358 3930464 3933908 3928525 3916622 3900507 3881752 
3931.548 3861626 3840566 3820008 3801791 3788655 3783107 3786583 3798749 
3935.405 3817401 3839095 3860055 3877272 3888906 3895058 3896629 3895125 
3939.262 3891882 3886833 3879679 3869483 3855308 3837658 3817668 3797713 
3943.120 3780734 3769403 3765326 3768902 3779163 3793502 3809111 3822415 
3946.977 3830872 3832777 3827964 3817501 3803630 3789190 3776322 3766495 
3950.835 3760546 3757805 3757805 3759878 3763186 3767297 3772144 3777391 
3954.692 3783307 3790193 3798248 3808108 3820510 3834917 3850662 3866440 
3958.550 3880181 3889876 3894389 3892651 3885329 3873260 3857916 3840901 
3962.407 3823685 3807440 3793635 3783675 3779230 3781201 3790326 3805802 
3966.264 3825490 3847185 3867544 3883624 3893587 3896796 3893620 3885797 
3970.122 3875667 3865371 3857548 3853737 3854673 3860490 3870018 3882053 
3973.979 3894924 3907729 3919464 3930565 3941130 3951462 3960892 3968616 
3977.837 3973030 3973130 3968582 3960022 3949289 3939057 3931601 3928491 
3981.694 3930565 3937352 3947349 3959186 3971257 3982259 3991187 3997674 
3985.552 4001252 4002590 4002390 4002289 4004028 4009111 4017739 4029411 
3989.409 4042186 4053791 4061918 4065631 4065029 4061785 4058239 4056433 
3993.266 4058239 4063825 4072420 4082622 4092756 4100884 4106470 4109313 
3997.124 4109213 4107339 4104664 4101820 4099345 4097539 4095766 4093124 
##END=
