
##TITLE=1132a_1_a
##JCAMP-DX=5.01  $$ Nicolet v. 1
##DATATYPE=INFRARED SPECTRUM
##ORIGIN=UniL
##OWNER=Nicolet
##LONGDATE=2011/09/21
##TIME=13:50:22
##SPECTROMETER/DATA SYSTEM=Nicolet iS5
##DATA PROCESSING=
Ratio against background
%Transmittance->Absorbance
Truncated
ElementMultiply or ElementDivide
##COMMENTS=
Number of sample scans: 32
Collection length: 51.19 sec
Sample gain: 2.0
Background collected on: Mer Sep 21 13:48:37 2011 (GMT+02:00);
Number of background scans: 32
Background gain: 2.0
Sample spacing:  1.000
Number of scan points: 12415
Resolution points: 8192
Number of FFT points: 65536
Apodization: N-B fort;
Phase correction: Mertz;
Laser frequency: 15798.0 cm-1
Number of rejected sample scans: 0
Number of rejected background scans: 0
Bench serial number: ASB1000141;
##RESOLUTION=4.000
##XUNITS=1/CM
##YUNITS=ABSORBANCE
##FIRSTX=649.893372
##LASTX=4000.122314
##FIRSTY=0.077829
##MAXX=4000.122314
##MINX=649.893372
##MAXY=0.309109
##MINY=0.002066
##XFACTOR=1.000000
##YFACTOR=1.000000E-009
##NPOINTS=6950
##DELTAX=0.482117
##ZPD=6100
##XYDATA=(X++(Y..Y))
649.893 77829048 78464936 79130704 79841200 80604896 81423760 82293784 
653.268 83214512 84193952 85252000 86412088 87696728 89117592 90675544 
656.643 92367768 94198352 96183952 98357024 100757128 103418056 106363072 
660.018 109601344 113127192 116919768 120928776 125059840 129145864 
662.911 132962096 136266432 138823040 140463024 141080208 140597008 
665.803 138945568 136070672 132015824 127024696 121623088 116507728 
668.696 112232656 109018640 106753904 105169384 103982472 102981704 
671.589 102051296 101150392 100293720 99518232 98861224 98341896 97959440 
674.963 97702016 97557688 97521640 97598880 97799208 98132056 98602728 
678.338 99209920 99949160 100816848 101813808 102947976 104235000 105693440 
681.713 107342904 109201848 111286512 113617256 116224496 119150096 
684.606 122454840 126209632 130485696 135353168 140872784 147097504 
687.498 154081440 161872496 170491680 179878064 189828640 199915472 
690.391 209403280 217347536 222649328 224263520 221531056 214300432 
693.284 203039472 188700464 172589520 156108912 140456656 126620784 
696.177 115217704 106483344 100380640 96649944 94932448 94838200 96054008 
699.551 98384160 101738576 106095384 111407600 117484088 123933160 130116392 
702.926 135186944 138321984 138857776 136504240 131436496 124254816 
705.819 115838720 107072576 98757184 91434816 85344792 80502824 76759128 
709.194 73905888 71731376 70073912 68824240 67902456 67246632 66800304 
712.569 66509104 66332696 66248708 66250904 66340148 66512732 66751808 
715.943 67029984 67316032 67588336 67842448 68092176 68360704 68668000 
719.318 69023296 69421568 69849976 70296056 70757112 71241688 71766440 
722.693 72347592 72993448 73701832 74460728 75253264 76059640 76861272 
726.068 77637408 78363840 79016576 79574488 80029728 80395240 80709264 
729.443 81031144 81423040 81940032 82612872 83442928 84408352 85478176 
732.817 86627784 87848008 89148352 90547968 92066176 93710968 95476888 
736.192 97351168 99326056 101408984 103629168 106030320 108661600 111564712 
739.567 114763120 118265520 122073544 126194032 130649240 135480656 
742.460 140743840 146513120 152883728 159977824 167966032 177048720 
745.352 187407856 199118816 212015600 225564368 238701008 249961008 
748.245 257654048 260242944 256965968 248113760 235084752 219882208 
751.138 204741888 191632480 181834064 176015840 174164288 175744656 
754.031 179821312 185278336 191071776 196259744 200184896 202484304 
756.923 203008608 201762688 198809888 194218960 188051360 180390656 
759.816 171397264 161338416 150611200 139736304 129252448 119698416 
762.709 111535624 105055600 100391616 97485024 96120984 95953704 96575448 
766.083 97602904 98680656 99539856 100009472 99991912 99467688 98478552 
769.458 97122952 95537000 93877800 92310440 90967104 89935768 89251248 
772.833 88899840 88839424 89021024 89410024 89987816 90747480 91683016 
776.208 92778984 94009064 95345304 96764536 98258712 99832264 101495456 
779.583 103251520 105089944 106983976 108899960 110807168 112684888 
782.475 114525184 116326128 118082400 119777992 121384208 122862624 
785.368 124177848 125300544 126210776 126897304 127347752 127545264 
788.261 127468600 127094568 126407592 125405728 124102880 122524424 
791.154 120698680 118651528 116401592 113962544 111350520 108587896 
794.046 105705520 102739760 99721528 96672552 93603920 90521272 87436368 
797.421 84376600 81384352 78515824 75828256 73363480 71145968 69179744 
800.796 67455336 65957576 64670720 63579412 62664048 61898416 61251056 
804.171 60686300 60175032 59698464 59249756 58830840 58446216 58098596 
807.546 57787588 57513792 57285648 57122056 57055132 57124360 57365504 
810.920 57806096 58457248 59311208 60338028 61482512 62666684 63778228 
814.295 64683372 65246956 65342380 64890540 63877748 62363984 60469932 
817.670 58352520 56180852 54090880 52177600 50491472 49043756 47824224 
821.045 46812472 45986840 45322844 44792928 44368600 44020732 43727004 
824.420 43475992 43266964 43105276 42995440 42935708 42916504 42924040 
827.794 42946568 42979816 43027268 43097332 43196576 43325096 43475552 
831.169 43638044 43805320 43977572 44162808 44372784 44616164 44894140 
834.544 45198844 45518292 45843536 46172268 46511356 46872040 47265716 
837.919 47697620 48167416 48670852 49205968 49776376 50392180 51065172 
841.294 51804496 52612624 53485848 54418104 55406416 56454828 57573676 
844.669 58775032 60065056 61439228 62879564 64357736 65835944 67269960 
848.043 68612472 69806824 70790456 71502008 71884376 71903184 71558144 
851.418 70890848 69980480 68931288 67860344 66867120 66026500 65382012 
854.793 64945212 64704904 64633960 64699060 64862184 65085336 65337336 
858.168 65594100 65844120 66089108 66341960 66621496 66944816 67325704 
861.543 67771096 68283760 68865552 69517488 70237904 71014408 71818848 
864.917 72601328 73288600 73799168 74051136 73977264 73543592 72752048 
868.292 71644608 70291544 68788992 67245432 65762960 64441556 63363052 
871.667 62583828 62139508 62041532 62284580 62855012 63740084 64934940 
875.042 66445312 68287520 70483248 73055232 76015904 79355616 83023936 
878.417 86921416 90878048 94648632 97953128 100483016 101963832 102223368 
881.792 101215936 99055680 95985640 92363224 88581544 84995840 81915944 
885.166 79552720 78021368 77366728 77572424 78583048 80308128 82633112 
888.541 85410048 88441352 91498000 94306128 96563112 97996800 98379088 
891.916 97578512 95590136 92538312 88662448 84256064 79650424 75144368 
895.291 70958264 67241640 64055884 61396328 59217512 57456564 56050096 
898.666 54937568 54066524 53389768 52861936 52445656 52111584 51840112 
902.040 51621684 51451408 51324268 51232316 51164132 51108180 51057644 
905.415 51012480 50978532 50964040 50974696 51009872 51064056 51128680 
908.790 51197868 51271280 51353764 51452412 51571872 51711292 51865088 
912.165 52025632 52187728 52351416 52522196 52707932 52914072 53141612 
915.540 53386848 53644292 53910404 54186740 54478912 54794252 55137356 
918.914 55507240 55897708 56300560 56709756 57124516 57549616 57993004 
922.289 58462780 58964524 59501348 60077536 60699908 61379572 62127656 
925.664 62948728 63832112 64745708 65640428 66450676 67109672 67567552 
929.039 67797472 67806312 67630456 67332936 66988380 66669168 66443460 
932.414 66362000 66457712 66747940 67233784 67904232 68736424 69699944 
935.789 70755080 71851384 72935160 73949064 74840872 75576600 76146464 
939.163 76571984 76901736 77208776 77575328 78072648 78757664 79660216 
942.538 80783408 82107728 83596864 85203584 86866416 88514872 90069552 
945.913 91439400 92537736 93288608 93636232 93558672 93068512 92213232 
949.288 91062184 89701840 88225640 86717872 85259104 83917312 82741344 
952.663 81765648 81004312 80454208 80099520 79918312 79889072 79993512 
956.037 80218920 80555952 80995248 81526408 82137992 82819040 83563080 
959.412 84369080 85241080 86185904 87210152 88318544 89513928 90800776 
962.787 92188168 93692016 95336512 97150304 99159168 101383712 103832544 
966.162 106501896 109377000 112438264 115668648 119059648 122617440 
969.055 126362472 130324472 134528256 138977184 143631024 148396736 
971.947 153114080 157558240 161483712 164635280 166802256 167871136 
974.840 167843472 166857040 165151456 163060064 160943312 159123568 
977.733 157879728 157387488 157706704 158775616 160413840 162344608 
980.625 164199392 165596928 166179888 165657728 163879056 160837744 
983.518 156678624 151649424 146070592 140280960 134568672 129177544 
986.411 124279784 119969640 116286896 113220800 110728528 108745480 
989.304 107200768 106028296 105165800 104562160 104175864 103969840 
992.196 103913096 103979016 104143816 104389912 104704488 105078128 
995.089 105504520 105977248 106488936 107032264 107599656 108185720 
997.982 108788040 109406584 110042440 110696288 111367432 112053432 
1000.874 112751936 113461856 114183880 114921136 115677424 116455696 
1003.767 117257712 118084096 118935536 119814752 120727032 121679648 
1006.660 122679800 123732824 124840008 125998856 127203880 128449456 
1009.552 129731072 131046384 132394808 133776144 135189200 136632064 
1012.445 138102384 139599840 141127296 142692320 144305952 145981232 
1015.338 147731952 149569728 151504080 153542656 155691600 157955840 
1018.231 160339312 162844576 165471456 168215808 171068816 174012800 
1021.123 177017600 180039888 183013536 185850768 188451968 190703328 
1024.016 192501168 193772240 194485360 194667008 194396480 193802224 
1026.909 193030096 192221200 191498480 190938352 190569248 190365280 
1029.802 190252864 190111216 189777600 189076272 187817424 185823472 
1032.695 182965328 179166256 174427840 168829424 162529504 155745808 
1035.588 148720656 141721216 134991264 128724784 123068096 118094448 
1038.481 113813744 110187520 107147968 104615952 102512848 100773592 
1041.374 99343840 98176872 97234808 96482880 95891304 95437760 95105064 
1044.750 94881240 94757376 94724000 94770608 94887544 95066336 95303792 
1048.125 95600128 95957832 96376928 96850624 97361904 97884792 98386568 
1051.500 98830560 99184024 99420696 99523648 99488144 99322480 99049400 
1054.875 98701824 98323904 97964168 97665584 97464120 97381680 97425432 
1058.250 97591368 97868016 98240472 98689056 99188976 99706976 100195560 
1061.626 100597792 100852880 100900944 100699176 100227320 99492144 98524736 
1065.001 97376248 96111056 94792408 93482640 92236344 91093608 90083048 
1068.376 89218488 88501304 87924192 87475880 87146840 86930480 86824048 
1071.751 86827080 86936920 87147408 87448728 87828296 88274688 88779176 
1075.127 89335824 89940944 90590664 91280032 92004000 92759616 93549712 
1078.502 94383704 95278912 96257888 97342880 98556288 99918168 101446224 
1081.877 103160832 105085224 107245168 109670176 112387864 115421312 
1084.770 118786240 122485984 126508104 130816240 135350768 140023696 
1087.663 144716976 149304400 153655392 157653024 161216656 164299904 
1090.556 166889872 168992016 170610080 171729760 172315936 172320656 
1093.449 171712256 170504192 168784416 166720720 164538704 162514720 
1096.343 160911552 159943344 159759104 160405600 161826544 163853328 
1099.236 166234064 168637184 170673312 171971424 172188976 171069888 
1102.129 168495232 164483200 159192160 152872432 145847056 138454848 
1105.022 130998048 123752616 116930920 110674360 105072016 100152992 
1107.915 95901792 92271384 89198104 86612456 84443160 82626424 81101984 
1111.290 79811784 78704520 77732224 76853680 76039112 75267608 74527752 
1114.665 73815784 73132272 72480568 71865576 71294192 70774384 70313624 
1118.041 69918272 69590984 69330488 69132224 68990248 68899568 68857248 
1121.416 68862360 68914712 69012656 69152856 69330600 69541400 69783472 
1124.791 70058216 70370584 70726616 71132032 71590888 72105568 72678096 
1128.166 73311736 74011248 74782224 75628696 76550960 77542912 78592696 
1131.542 79683544 80794296 81902504 82984784 84016128 84973808 85837456 
1134.917 86593160 87237848 87782504 88254304 88691752 89144040 89663832 
1138.292 90297440 91086256 92061952 93245776 94650816 96281912 98135840 
1141.667 100199856 102452984 104866448 107400944 110010808 112643144 
1144.560 115232648 117707400 119984936 121970504 123570640 124692640 
1147.453 125254376 125199376 124498096 123153080 121195216 118680368 
1150.346 115682232 112281056 108568120 104637368 100578080 96479688 92420808 
1153.722 88464704 84665736 81064368 77690976 74570872 71721136 69151576 
1157.097 66863724 64850300 63097180 61584716 60292192 59197084 58275064 
1160.472 57501576 56848228 56285400 55786172 55326620 54890004 54467308 
1163.847 54055376 53654340 53265356 52889332 52527244 52181752 51857996 
1167.223 51563288 51305772 51091968 50924996 50804484 50728140 50694100 
1170.598 50703036 50757968 50862964 51021348 51233772 51498184 51811704 
1173.973 52172708 52582592 53046396 53570820 54161552 54822332 55553700 
1177.348 56355032 57225544 58166364 59179008 60263948 61416668 62626040 
1180.724 63872716 65133648 66384232 67603392 68778120 69903640 70983664 
1184.099 72029264 73057776 74091920 75156224 76277728 77479984 78777728 
1187.474 80172688 81649112 83173864 84695128 86151112 87477104 88607672 
1190.849 89489368 90082560 90361936 90318568 89956184 89288816 88335760 
1194.225 87120080 85667144 84001656 82154008 80162848 78076056 75957056 
1197.600 73879136 71912528 70120872 68544488 67194216 66052884 65082876 
1200.975 64238900 63477084 62767020 62094396 61458160 60866604 60331748 
1204.350 59865844 59478668 59177376 58966536 58846964 58815932 58866392 
1207.726 58989616 59176200 59419660 59717848 60072744 60488972 60970800 
1211.101 61521104 62140540 62829128 63588500 64422912 65339068 66345356 
1214.476 67448528 68652520 69958872 71367800 72880696 74502896 76243088 
1217.851 78113856 80129728 82304512 84652168 87186376 89921016 92871128 
1221.227 96051656 99474024 103143352 107053760 111186304 115503656 119950600 
1224.602 124454848 128917528 133221256 137227520 140768704 143671376 
1227.495 145757360 146860160 146860960 145699568 143394528 140040160 
1230.388 135803824 130906880 125583648 120085096 114647864 109466392 
1233.281 104706600 100484184 96862592 93867352 91488312 89693168 88434528 
1236.656 87659272 87312432 87334544 87669928 88264696 89067520 90035960 
1240.031 91132600 92322152 93571488 94841096 96083728 97249360 98284184 
1243.407 99139888 99783104 100196808 100384680 100367568 100181992 99873960 
1246.782 99493768 99097848 98741128 98472360 98332512 98344600 98511888 
1250.157 98817368 99229160 99706896 100208456 100700808 101161056 101579048 
1253.532 101956584 102306272 102650696 103018792 103447360 103975440 
1256.426 104636784 105457168 106445200 107590696 108861432 110207376 
1259.319 111565520 112857752 114001832 114913720 115506120 115702296 
1262.212 115438344 114668536 113376112 111572120 109296232 106606320 
1265.105 103575792 100286464 96818488 93257968 89692264 86201136 82862184 
1268.480 79738960 76875152 74300088 72027544 70061224 68399448 67036664 
1271.855 65962896 65161712 64611272 64285384 64155928 64199372 64397356 
1275.230 64737132 65210836 65810964 66528796 67355072 68280344 69297992 
1278.606 70406280 71607808 72908280 74313776 75830344 77463936 79221632 
1281.981 81114288 83156008 85361328 87741096 90295112 93007760 95841888 
1285.356 98744000 101644952 104463536 107121296 109541856 111657504 
1288.249 113416256 114778312 115717728 116222720 116290880 115925472 
1291.142 115130488 113906112 112246936 110146952 107607208 104647824 
1294.035 101315752 97693592 93890872 90034616 86267576 82722856 79522592 
1297.411 76776840 74567560 72952296 71958904 71581824 71783944 72499632 
1300.786 73649928 75141648 76878792 78772960 80734000 82674200 84511984 
1304.161 86162424 87548840 88608728 89293208 89574352 89444224 88911760 
1307.536 88003184 86763872 85270392 83627032 81971088 80465576 79259808 
1310.912 78472080 78152808 78264520 78675968 79178608 79545832 79557768 
1314.287 79064552 78016416 76461184 74526808 72376160 70186568 68103376 
1317.662 66223428 64599164 63239000 62125208 61228200 60520776 59982044 
1321.037 59597424 59356636 59249680 59265288 59392268 59619620 59938604 
1324.413 60342332 60824108 61375372 61985120 62638596 63319460 64012496 
1327.788 64703524 65381744 66039928 66672296 67275528 67847904 68390096 
1331.163 68905464 69400568 69884104 70365408 70852744 71352224 71867136 
1334.538 72398984 72948960 73518792 74111408 74730232 75377992 76056088 
1337.914 76764192 77501688 78268688 79067928 79904088 80784320 81714856 
1341.289 82699768 83740280 84835128 85982504 87181392 88434208 89746448 
1344.664 91127040 92584976 94128064 95760832 97484064 99295704 101192552 
1348.039 103172552 105234656 107378712 109603008 111902024 114265392 
1350.932 116680520 119134136 121619144 124138160 126704920 129342048 
1353.825 132077112 134939360 137954864 141146048 144531104 148119072 
1356.719 151903616 155850816 159897520 163941488 167850064 171492176 
1359.612 174747744 177541184 179854544 181724928 183230240 184458416 
1362.505 185499520 186423552 187277184 188094736 188896928 189695280 
1365.398 190492128 191281360 192054320 192807680 193555920 194337872 
1368.291 195217712 196265984 197548656 199111696 200973488 203134080 
1371.184 205585568 208325168 211355664 214681056 218294416 222166576 
1374.077 226247264 230481968 234833216 239297424 243899712 248672512 
1376.970 253616624 258671232 263686448 268446784 272688672 276125600 
1379.863 278502432 279584160 279162048 277086496 273287904 267834960 
1382.756 260941648 252951984 244246096 235114752 225726160 216092480 
1385.649 206129744 195746528 184941040 173846832 162712176 151823200 
1388.542 141421968 131676656 122673688 114456304 107059648 100502984 
1391.435 94794640 89918848 85826104 82443544 79687368 77487232 75780592 
1394.811 74512096 73625552 73046960 72693456 72493680 72398200 72401568 
1398.186 72543608 72904160 73575664 74634096 76126872 78063880 80431248 
1401.561 83200752 86335920 89778384 93420968 97107864 100614752 103666008 
1404.936 105997848 107383976 107687872 106885264 105052560 102347032 
1407.829 98963744 95132168 91083792 87029216 83170616 79668056 76627800 
1411.205 74107680 72114224 70623176 69597760 69006592 68826800 69038216 
1414.580 69616312 70523896 71710504 73129024 74741448 76531632 78507408 
1417.955 80688592 83086912 85683488 88427416 91250152 94092792 96927080 
1421.330 99753920 102586616 105423840 108232144 110938216 113424768 
1424.223 115565480 117250640 118403408 118986520 118979936 118362192 
1427.116 117107528 115197008 112645936 109520536 105949160 102103560 
1430.010 98155192 94264136 90558496 87131496 84058832 81392064 79152568 
1433.385 77333904 75898968 74795016 73968032 73386632 73053152 72998776 
1436.760 73258984 73842376 74714168 75806952 77041888 78346376 79668536 
1440.135 80968056 82213664 83382456 84452744 85407064 86235080 86932952 
1443.510 87503648 87953760 88289672 88513528 88622384 88611288 88481728 
1446.886 88249880 87955024 87653104 87403552 87253408 87220352 87296264 
1450.261 87457768 87685456 87973928 88336488 88795312 89369120 90057928 
1453.636 90841616 91678720 92517968 93312432 94023584 94633224 95144248 
1457.011 95578080 95955800 96286048 96567128 96795296 96975088 97123120 
1460.387 97263608 97421784 97616512 97855192 98135960 98451744 98798784 
1463.762 99181656 99616872 100127872 100743008 101490216 102393168 103478016 
1467.137 104769864 106289008 108045520 110033776 112233808 114605456 
1470.030 117099928 119658480 122199040 124619840 126795784 128592000 
1472.923 129895584 130634560 130778672 130327288 129292968 127702576 
1475.816 125606120 123086920 120257656 117231200 114104456 110933160 
1478.709 107731224 104491936 101208240 97889320 94572128 91311720 88164624 
1482.085 85178384 82377728 79768144 77343048 75090440 72997800 71054056 
1485.460 69249688 67579352 66043472 64649492 63410364 62339616 61446248 
1488.835 60731688 60190900 59819676 59616048 59581916 59716900 60011676 
1492.210 60443616 60980100 61581088 62210472 62841728 63459636 64063260 
1495.586 64659104 65251880 65833712 66380644 66856800 67227832 67470272 
1498.961 67579584 67571224 67477856 67343544 67212512 67127616 67121200 
1502.336 67210464 67396904 67663760 67979128 68292600 68546856 68691016 
1505.711 68703048 68611968 68498088 68461896 68565552 68815584 69173752 
1509.087 69587920 70010576 70409592 70771576 71096480 71394832 71681504 
1512.462 71971696 72275344 72595576 72927760 73261688 73586616 73895712 
1515.837 74193752 74500336 74847912 75268984 75781824 76381488 77039832 
1519.212 77711776 78346936 78910824 79399416 79850760 80326984 80889136 
1522.588 81563224 82330512 83142160 83940864 84683936 85347128 85933552 
1525.963 86466264 86979664 87504048 88057968 88652248 89294592 89995768 
1529.338 90769448 91626832 92568944 93581976 94643808 95730680 96831408 
1532.713 97959440 99155256 100474624 101956416 103612552 105421512 107347616 
1536.089 109350576 111399384 113483120 115598640 117759848 119994760 
1538.982 122344288 124848888 127531144 130398944 133431848 136599760 
1541.875 139884064 143275200 146773376 150374592 154058992 157777376 
1544.768 161451344 164995232 168326288 171378688 174105056 176448032 
1547.661 178329296 179659424 180349248 180363648 179752032 178649456 
1550.554 177218416 175577216 173765280 171741920 169439008 166831392 
1553.447 163988848 161083600 158343136 155940448 153935088 152245040 
1556.340 150682880 148991584 146907856 144253552 141024912 137473040 
1559.233 134021072 131050856 128711776 126930640 125521184 124290808 
1562.126 123080936 121758712 120224744 118417848 116332504 114027248 
1565.019 111610760 109207688 106897680 104690712 102520608 100276816 
1567.912 97842120 95145736 92204672 89131952 86102952 83280496 80766208 
1571.288 78578040 76675312 74992296 73464512 72038416 70670504 69327808 
1574.663 67995480 66694976 65500320 64533764 63934132 63799256 64162536 
1578.038 65003440 66277272 67945648 69990520 72419416 75252592 78510232 
1581.413 82198200 86292912 90731272 95414232 100188168 104853336 109185448 
1584.789 112930808 115857024 117784832 118596976 118263168 116840936 
1587.682 114485976 111433384 107985136 104490552 101268976 98594584 96671840 
1591.057 95615160 95473624 96240024 97870048 100288632 103399136 107096952 
1594.432 111256504 115741352 120416680 125142008 129793536 134271600 
1597.325 138489120 142367136 145820816 148741232 151011136 152520016 
1600.218 153185408 152979520 151931536 150123536 147666208 144695392 
1603.111 141364304 137823776 134227776 130711872 127369344 124254464 
1606.004 121377992 118721208 116254024 113951128 111801072 109802296 
1608.897 107956248 106259120 104698544 103258656 101928760 100708920 
1611.791 99609904 98645064 97818672 97116192 96499928 95911672 95289560 
1615.166 94582424 93777168 92915208 92092432 91425240 90999624 90848592 
1618.541 90949008 91247376 91679824 92192672 92750712 93335520 93949168 
1621.916 94611008 95354424 96216528 97227968 98407512 99754552 101255256 
1625.292 102885400 104618056 106422552 108265560 110117200 111950816 
1628.185 113749632 115509920 117241616 118962680 120692648 122449088 
1631.078 124244008 126086560 127982288 129940000 131976304 134116816 
1633.971 136402672 138887808 141637200 144698112 148088752 151797248 
1636.864 155781232 160003440 164444976 169106800 174002256 179146480 
1639.757 184552928 190217040 196116976 202221344 208480544 214836336 
1642.650 221230416 227587120 233832704 239909600 245780416 251454384 
1645.543 256983792 262459424 267947232 273457440 278940576 284299776 
1648.436 289440640 294286368 298780576 302818432 306177024 308481152 
1651.329 309108960 307293280 302462976 294763232 285319328 275662688 
1654.222 266863792 259125856 252092688 245233360 238136112 230589216 
1657.115 222575904 214213072 205674976 197137408 188692880 180355520 
1660.008 172080640 163798688 155460672 147070016 138698656 130485784 
1662.901 122614544 115266696 108581904 102625640 97383960 92785176 88721664 
1666.277 85077328 81751096 78676328 75832040 73247064 70986000 69123592 
1669.652 67712968 66767492 66259244 66133252 66331232 66802620 67510800 
1673.027 68438776 69585816 70968256 72613976 74551160 76793288 79325824 
1676.402 82120976 85151456 88407272 91898816 95647160 99669176 103950352 
1679.778 108444456 113085152 117800264 122555744 127368288 132300336 
1682.671 137440672 142856224 148530304 154301184 159900480 165045184 
1685.564 169525200 173219168 176053104 177976848 178934256 178891856 
1688.457 177855456 175871360 173020640 169404112 165150064 160411056 
1691.350 155358976 150177280 144995008 139846160 134649776 129217656 
1694.243 123333376 116888416 110028656 103189904 96941200 91689400 87532144 
1697.618 84266688 81550432 79020832 76427320 73722048 71079184 68796944 
1700.993 67089916 65955648 65199784 64568596 63823088 62793328 61372244 
1704.369 59504848 57192540 54491120 51505944 48365408 45201304 42129524 
1707.744 39230236 36551028 34102704 31864740 29799938 27874266 26072836 
1711.119 24405706 22898644 21572432 20427480 19434270 18543420 17701088 
1714.494 16875646 16067481 15303856 14617881 14025580 13510954 13038828 
1717.870 12577754 12126063 11714257 11384944 11165132 11050509 11007721 
1721.245 10988826 10953484 10881520 10782122 10684444 10621691 10609434 
1724.620 10638057 10677550 10696601 10678806 10629976 10571849 10528225 
1727.995 10510029 10508774 10502256 10468313 10400433 10312069 10229932 
1731.371 10176200 10155849 10147811 10114369 10018367 9852287 9650087 
1734.746 9473412 9371391 9353582 9393364 9447067 9475885 9457361 9393025 
1738.603 9303411 9218892 9160141 9128468 9106000 9070237 9007717 8921362 
1742.461 8826503 8740420 8670647 8610854 8543670 8452406 8331607 8190582 
1746.318 8049333 7926486 7830123 7751962 7672432 7570596 7437806 7282582 
1750.176 7127851 6997857 6906076 6849590 6814247 6785942 6759018 6738860 
1754.033 6735865 6756461 6796981 6841949 6870494 6868541 6836530 6792134 
1757.890 6759052 6755956 6785370 6834308 6878943 6898939 6886618 6852114 
1761.748 6817748 6805429 6825119 6870392 6924626 6971392 7004322 7027826 
1765.605 7053521 7091644 7144221 7202700 7253572 7285244 7297104 7298924 
1769.463 7305966 7327600 7361501 7392305 7399382 7369960 7308595 7238074 
1773.320 7186328 7172685 7196838 7243128 7289186 7318805 7328038 7326421 
1777.177 7329386 7349268 7387148 7432918 7469423 7484087 7475795 7456952 
1781.035 7446502 7457861 7492380 7537891 7576294 7592478 7583543 7560279 
1784.892 7541432 7543657 7571911 7618813 7670644 7715736 7751287 7784615 
1788.750 7826918 7886096 7959523 8032861 8085249 8101385 8079173 8034178 
1792.607 7990909 7971065 7982033 8015108 8053789 8084033 8101790 8113706 
1796.465 8131767 8165057 8214117 8268788 8314145 8337721 8337687 8323501 
1800.322 8312152 8317522 8343801 8383490 8423656 8453487 8471327 8484808 
1804.179 8506196 8545123 8601864 8667874 8729939 8778421 8811692 8837662 
1808.037 8867825 8911452 8968851 9031567 9086613 9125998 9150869 9172764 
1811.894 9206810 9264010 9345219 9441208 9537625 9623663 9697622 9766746 
1815.752 9843102 9935777 10045256 10162022 10272271 10364461 10436000 
1819.127 10493159 10546658 10604613 10666717 10724347 10765002 10779303 
1822.502 10765614 10729952 10683187 10634934 10588961 10543332 10494381 
1825.877 10441770 10391474 10352924 10333378 10332869 10341590 10343761 
1829.253 10324488 10279498 10218331 10161954 10130445 10132921 10163854 
1832.628 10206729 10242857 10260159 10258531 10248896 10246555 10261822 
1836.003 10294765 10334973 10369314 10388826 10395885 10402130 10423341 
1839.378 10470281 10542075 10627327 10709167 10773935 10815172 10836166 
1842.754 10846255 10855224 10867455 10881418 10893377 10903332 10917263 
1846.129 10945533 10995554 11067639 11153097 11237823 11308520 11359230 
1849.504 11394399 11426613 11469409 11529493 11603539 11680457 11749047 
1852.879 11803281 11847305 11891914 11948788 12022462 12106881 12187943 
1856.255 12250955 12288447 12303070 12306206 12310604 12323420 12342169 
1859.630 12356589 12355771 12336408 12304910 12275972 12264248 12277609 
1863.005 12312990 12359180 12403329 12438482 12466851 12497950 12540989 
1866.380 12598459 12662384 12717721 12750681 12756925 12746859 12740786 
1869.756 12760167 12814629 12898895 12996526 13089193 13164838 13221810 
1873.131 13267072 13309810 13354398 13396121 13424005 13426877 13401622 
1876.506 13355765 13305608 13267550 13251836 13256926 13272777 13286715 
1879.881 13292523 13293412 13300483 13325595 13373807 13440238 13512868 
1883.257 13578329 13630501 13673309 13718858 13780179 13862614 13960632 
1886.632 14059803 14144996 14206171 14245030 14272251 14303274 14348649 
1890.007 14410298 14482062 14555517 14626277 14696739 14773898 14864648 
1893.382 14969169 15080440 15186180 15275438 15345526 15403163 15461905 
1896.758 15534187 15625130 15729973 15838550 15940523 16032275 16119609 
1900.133 16213873 16325705 16457936 16603805 16750447 16885806 17004358 
1903.508 17109222 17208460 17308512 17408142 17496994 17559748 17585038 
1906.883 17570788 17527662 17473468 17426732 17397794 17386136 17383000 
1910.259 17379068 17372378 17369584 17382308 17421660 17489992 17580240 
1913.634 17679862 17775846 17862602 17943502 18026556 18118370 18218322 
1917.009 18317434 18403430 18468734 18516034 18558428 18613726 18694004 
1920.384 18799036 18916588 19028426 19120034 19187836 19241448 19297284 
1923.760 19371106 19466806 19575942 19681848 19770300 19836572 19888532 
1927.135 19941744 20010020 20098192 20198984 20297194 20379034 20440400 
1930.510 20489720 20543944 20618016 20718266 20837904 20962440 21076438 
1933.885 21172518 21254906 21335014 21423074 21521422 21621672 21709824 
1937.260 21774512 21813950 21837818 21861614 21898098 21948388 22001016 
1940.636 22036500 22038976 22004502 21945076 21883220 21840640 21828792 
1944.011 21843218 21869210 21891896 21904824 21913084 21929740 21965324 
1947.386 22021860 22089804 22153990 22201134 22229904 22249330 22276952 
1950.761 22325854 22397996 22481840 22560534 22619764 22656592 22682146 
1954.137 22714262 22766740 22841542 22925190 22996244 23037680 23044528 
1957.512 23028352 23011162 23015318 23050154 23110744 23180184 23241982 
1960.887 23290362 23332456 23383260 23455612 23552778 23665080 23777832 
1964.262 23878218 23964100 24046178 24138574 24249696 24375600 24498424 
1967.638 24596944 24656312 24677950 24677460 24678266 24697908 24738314 
1971.013 24786580 24822996 24831766 24810892 24772584 24735226 24714532 
1974.388 24713724 24724458 24736488 24746730 24765778 24814434 24910290 
1977.763 25055026 25227692 25393608 25514680 25569046 25559556 25509094 
1981.139 25449994 25407732 25392660 25398492 25410824 25417604 25416726 
1984.514 25417358 25431306 25464646 25511976 25558644 25590026 25599796 
1987.889 25596880 25600324 25630376 25696564 25791420 25892766 25974684 
1991.264 26020906 26031214 26022806 26017672 26032658 26069810 26116888 
1994.640 26155350 26173686 26171328 26161476 26161124 26181498 26220986 
1998.015 26267132 26303566 26320040 26320322 26319830 26337642 26384362 
2001.390 26455950 26533502 26595776 26627094 26627728 26613284 26606698 
2004.765 26625826 26674056 26739384 26802112 26847014 26870454 26881840 
2008.141 26895764 26921674 26956400 26985416 26991726 26965778 26913706 
2011.516 26854488 26809656 26795064 26811134 26844442 26876764 26896012 
2014.891 26902284 26908350 26930170 26975228 27038060 27101644 27146292 
2018.266 27160966 27150772 27132856 27129470 27154442 27206152 27270396 
2021.642 27327802 27365702 27385146 27398202 27421674 27466250 27529790 
2025.017 27597860 27652590 27684194 27693414 27692388 27695602 27711706 
2028.392 27737488 27761154 27770090 27760378 27740950 27730036 27744942 
2031.767 27792838 27865470 27943626 28005574 28037878 28041236 28026532 
2035.143 28008330 27994266 27981790 27961012 27923096 27867624 27805096 
2038.518 27751122 27720466 27715662 27727670 27738160 27732368 27704856 
2041.893 27664560 27629072 27613536 27623176 27649306 27673496 27676284 
2045.268 27650154 27600790 27546172 27506384 27494242 27509316 27540804 
2048.644 27572050 27589810 27590196 27576534 27555704 27532720 27509104 
2052.019 27483548 27457322 27436142 27429156 27446238 27491066 27557432 
2055.394 27631968 27697262 27741832 27765392 27778496 27795452 27828870 
2058.769 27880980 27942566 27997480 28030950 28036854 28020878 27997128 
2062.145 27979142 27975006 27983346 27995220 28000874 27995856 27982958 
2065.520 27971296 27969422 27979670 27997200 28012008 28015080 28004372 
2068.895 27985502 27969316 27966348 27980378 28005928 28031622 28046396 
2072.270 28044028 28026532 28002182 27980942 27968822 27965570 27966594 
2075.646 27966100 27962390 27957230 27955004 27958574 27965534 27968716 
2079.021 27958964 27929986 27882074 27822652 27763096 27712554 27674590 
2082.396 27645528 27617880 27584866 27544936 27502008 27464062 27436744 
2085.771 27421250 27411862 27400392 27379958 27349080 27312806 27278970 
2089.146 27254060 27239454 27230142 27217160 27194230 27160154 27120548 
2092.522 27084856 27061828 27055056 27062180 27076392 27090816 27103476 
2095.897 27116384 27133984 27159096 27189116 27215784 27230284 27226192 
2099.272 27203650 27170174 27136594 27111130 27096740 27088664 27078684 
2102.647 27059958 27030654 26994194 26958198 26929148 26908172 26891852 
2106.023 26873732 26849200 26818678 26787522 26762782 26749674 26747664 
2109.398 26751014 26751540 26744318 26729482 26713308 26704076 26706436 
2112.773 26719614 26735648 26744598 26738680 26717010 26685684 26654892 
2116.148 26633646 26625298 26626460 26630230 26629314 26620894 26607156 
2119.524 26593204 26583026 26576860 26569744 26554634 26527338 26487926 
2122.899 26442814 26400912 26369716 26351092 26341268 26332926 26320428 
2126.274 26302298 26283008 26269280 26266708 26275578 26290682 26303600 
2129.649 26307718 26301312 26288604 26277972 26276530 26288076 26311908 
2133.025 26344472 26383904 26431370 26491378 26567490 26658908 26757744 
2136.400 26849658 26922238 26967612 26987778 26992326 26994194 27003010 
2139.775 27019760 27038660 27049802 27048038 27035098 27019160 27011332 
2143.150 27018138 27037072 27059570 27072972 27070150 27053012 27032030 
2146.526 27020112 27026000 27048780 27077520 27098610 27101854 27085526 
2149.901 27058160 27031570 27013554 27002904 26990176 26961936 26909406 
2153.276 26833762 26744810 26658098 26586512 26533570 26496730 26471972 
2156.651 26460704 26476938 26540934 26669970 26867882 27115644 27377840 
2160.027 27613218 27792486 27904368 27958008 27972780 27967408 27953450 
2163.402 27933874 27906594 27872714 27838974 27816894 27816470 27839328 
2166.777 27875822 27907690 27918010 27895360 27841376 27768184 27691824 
2170.152 27623740 27565660 27510694 27448426 27372900 27286308 27200086 
2173.528 27128588 27082104 27061722 27059958 27064296 27064614 27056996 
2176.903 27043174 27026706 27007806 26982278 26941310 26879336 26798094 
2180.278 26708834 26629982 26579502 26565412 26582884 26616984 26648936 
2183.653 26664050 26659188 26641150 26621564 26610748 26611840 26620330 
2187.029 26629384 26633224 26631498 26628678 26630546 26639282 26652566 
2190.404 26662466 26661516 26647174 26621880 26593134 26568054 26548964 
2193.779 26531142 26506416 26466726 26409116 26339438 26268996 26208176 
2197.154 26163972 26135222 26114778 26095038 26071816 26046976 26026994 
2200.530 26018304 26022386 26034242 26045042 26046660 26036986 26021154 
2203.905 26009052 26011762 26034170 26073188 26119810 26163798 26198708 
2207.280 26225280 26249496 26278924 26317366 26363484 26409926 26449400 
2210.655 26477572 26495498 26508670 26522900 26540828 26559742 26574642 
2214.031 26579538 26573690 26561996 26553050 26554952 26570942 26597046 
2217.406 26624524 26643688 26648092 26638192 26619062 26598102 26579856 
2220.781 26565024 26550196 26531070 26505782 26475952 26446090 26420454 
2224.156 26400560 26383166 26362746 26334264 26295610 26249568 26202756 
2227.531 26160806 26127340 26102428 26082722 26064814 26047258 26030968 
2230.907 26017284 26006342 25994524 25975316 25943272 25895650 25836042 
2234.282 25772958 25716988 25676070 25652694 25642396 25636632 25627880 
2237.657 25612028 25589674 25565424 25544270 25527824 25515278 25503332 
2241.032 25489208 25473396 25459412 25450664 25449364 25453332 25456530 
2244.408 25452350 25437066 25411736 25382720 25358658 25345276 25343976 
2247.783 25350860 25358904 25362170 25358940 25351596 25345872 25345978 
2251.158 25352264 25361644 25368914 25369968 25365682 25361152 25363294 
2254.533 25377522 25404992 25440122 25474274 25499010 25509094 25504104 
2257.909 25487204 25462574 25432956 25398704 25358200 25311346 25259682 
2261.284 25207816 25160660 25121620 25090166 25062574 25033826 25000342 
2264.659 24962262 24923520 24889692 24864430 24847904 24836222 24823592 
2268.034 24805666 24781424 24754272 24729438 24712006 24703064 24700012 
2271.410 24697662 24691032 24677740 24658908 24638006 24618580 24602834 
2274.785 24590106 24578430 24566648 24554728 24544770 24540036 24541790 
2278.160 24548906 24557954 24563740 24561810 24550870 24531448 24505646 
2281.535 24475986 24442968 24405882 24363964 24317392 24268230 24220054 
2284.911 24176334 24138012 24103932 24070170 24032346 23987946 23937560 
2288.286 23883576 23830192 23779966 23733316 23688454 23642444 23593496 
2291.661 23541900 23489854 23440120 23394450 23352560 23312212 23270402 
2295.036 23225622 23178052 23130452 23086004 23046800 23013012 22983458 
2298.412 22955650 22928368 22902136 22878806 22860608 22848386 22840878 
2301.787 22835324 22829072 22820552 22810810 22802952 22799914 22803232 
2305.162 22812310 22823834 22834138 22841052 22844196 22845662 22848280 
2308.537 22853694 22861064 22867944 22870492 22866652 22856278 22842100 
2311.913 22827432 22815664 22807840 22803372 22800088 22796178 22791010 
2315.288 22785388 22780394 22775890 22770686 22762062 22747398 22726030 
2318.663 22699704 22672090 22647340 22628560 22615366 22604546 22590830 
2322.038 22568874 22534288 22484770 22419628 22338900 22243680 22135616 
2325.414 22017642 21894788 21773710 21661756 21564630 21485282 21422690 
2328.789 21373124 21331742 21294298 21259812 21229540 21205742 21190086 
2332.164 21182432 21180240 21180414 21180344 21178918 21176866 21175474 
2335.539 21174916 21174118 21170778 21162324 21148270 21129728 21109378 
2338.915 21090422 21074422 21060544 21046562 21029660 21008238 20982816 
2342.290 20954998 20926592 20898740 20871136 20842944 20816002 20794972 
2345.665 20787014 20800672 20841832 20911050 21002988 21108126 21213918 
2349.040 21308008 21381060 21427076 21443820 21432890 21398080 21345212 
2352.416 21280448 21210440 21141312 21077552 21021940 20974264 20931946 
2355.791 20890190 20844646 20792644 20733210 20668364 20600712 20532482 
2359.166 20464364 20395670 20325456 20253554 20182254 20115198 20056238 
2362.541 20008356 19972794 19947988 19932030 19922628 19918432 19918606 
2365.917 19922628 19928840 19935082 19939108 19939836 19938136 19937060 
2369.292 19939974 19949860 19967104 19990036 20015400 20040242 20063352 
2372.667 20085840 20110720 20140604 20177290 20220194 20267198 20315214 
2376.042 20362160 20407198 20450646 20494028 20538040 20582682 20627432 
2379.417 20671422 20713680 20754064 20792678 20829108 20862794 20892482 
2382.793 20916994 20936256 20951382 20964630 20979130 20997352 21020200 
2386.168 21047154 21076510 21106144 21134946 21162428 21188728 21214266 
2389.543 21238518 21260404 21278568 21292418 21302162 21309088 21315420 
2392.918 21322068 21329618 21337276 21343644 21348204 21351126 21353982 
2396.294 21358540 21365780 21374830 21383218 21388264 21387254 21379668 
2399.669 21366930 21351964 21337658 21326384 21318622 21313784 21310966 
2403.044 21309680 21309956 21312426 21317648 21325338 21334456 21343680 
2406.419 21352380 21360872 21370444 21382070 21396550 21412630 21427842 
2409.795 21439642 21446326 21448242 21447128 21446326 21448590 21455412 
2413.170 21466726 21481384 21497536 21514668 21532110 21549798 21567558 
2416.545 21583886 21596946 21604782 21606906 21604086 21598828 21593324 
2419.920 21589390 21587266 21585594 21582460 21577376 21571002 21565362 
2423.296 21563028 21565398 21571596 21579292 21585246 21586848 21583366 
2426.671 21576156 21567558 21559756 21553836 21549242 21544888 21539910 
2430.046 21534374 21530194 21529220 21532388 21539214 21546976 21552548 
2433.421 21552896 21547082 21535592 21520656 21504744 21488764 21472714 
2436.797 21455518 21435882 21413362 21388926 21363588 21339120 21316012 
2440.172 21294018 21272582 21251704 21231628 21213502 21198714 21187338 
2443.547 21178606 21170848 21162080 21151330 21138948 21126180 21114734 
2446.922 21105484 21097588 21089552 21080300 21069100 21057100 21046632 
2450.298 21040094 21038528 21041208 21045310 21047920 21046598 21041068 
2453.673 21032408 21023088 21015020 21008656 21003160 20996796 20988452 
2457.048 20977878 20966542 20956354 20949400 20946584 20948044 20953330 
2460.423 20962094 20974610 20991302 21012758 21038042 21065554 21092752 
2463.799 21117380 21138736 21157628 21176100 21196592 21220216 21246346 
2467.174 21272860 21296942 21316778 21331708 21343124 21352764 21362162 
2470.549 21371488 21380226 21386802 21390492 21391606 21391362 21391606 
2473.924 21393348 21396166 21399126 21400064 21397976 21393068 21386942 
2477.300 21381340 21378310 21378310 21380782 21384436 21388300 21391466 
2480.675 21394218 21396966 21399820 21402396 21404450 21405982 21407756 
2484.050 21411900 21420322 21435014 21456108 21482322 21510976 21539666 
2487.425 21566268 21590122 21611886 21631876 21650196 21666144 21678232 
2490.801 21685128 21687288 21685930 21683700 21682968 21685198 21690110 
2494.176 21696308 21701674 21704564 21704772 21702682 21699270 21695090 
2497.551 21690458 21684778 21677848 21670012 21662384 21656568 21653852 
2500.926 21654236 21656950 21660330 21662976 21664510 21665588 21667226 
2504.302 21670152 21674296 21678580 21681402 21681854 21680322 21678476 
2507.677 21678616 21682342 21689170 21697354 21703624 21704844 21699512 
2511.052 21687950 21672346 21655488 21639260 21624632 21611362 21598722 
2514.427 21586012 21573686 21562404 21552618 21544192 21536288 21526956 
2517.802 21515120 21500532 21483888 21467074 21451478 21437798 21425998 
2521.178 21415346 21405042 21395540 21387430 21381548 21377822 21374552 
2524.553 21368356 21356280 21335778 21306338 21270146 21230584 21190540 
2527.928 21152966 21118250 21085796 21054006 21022288 20990434 20959588 
2531.303 20930590 20903712 20878194 20852782 20826430 20798830 20771198 
2534.679 20744576 20720282 20698526 20678128 20657418 20635040 20610650 
2538.054 20584974 20560030 20537068 20516954 20499134 20482114 20464436 
2541.429 20445506 20425536 20405254 20385668 20366916 20348442 20329554 
2544.804 20309832 20289868 20271362 20256158 20245986 20241264 20241578 
2548.180 20245500 20251714 20259630 20269038 20280216 20292680 20305910 
2551.555 20318234 20328826 20337400 20345422 20355562 20370146 20390912 
2554.930 20417722 20448492 20480238 20510216 20536614 20559092 20578790 
2558.305 20596820 20614366 20632122 20650120 20668712 20688692 20710968 
2561.681 20735850 20763344 20792400 20820764 20847462 20871694 20894396 
2565.056 20917480 20942550 20970160 20999648 21028790 21054876 21076752 
2568.431 21094596 21110388 21126912 21146530 21169942 21196834 21225296 
2571.806 21253652 21281072 21307416 21333100 21358402 21382766 21405008 
2575.182 21423560 21437866 21447788 21454890 21460598 21466066 21471426 
2578.557 21475778 21477900 21477102 21473690 21468746 21463734 21459868 
2581.932 21456980 21454264 21450714 21445562 21439364 21433586 21429582 
2585.307 21428782 21431252 21436440 21442914 21450190 21458232 21467596 
2588.683 21479574 21494160 21510732 21528002 21544260 21558920 21572466 
2592.058 21586534 21602728 21621986 21644170 21667922 21691292 21712714 
2595.433 21731978 21749464 21766360 21782978 21798864 21812836 21823078 
2598.808 21828654 21829594 21827190 21823044 21818828 21814822 21810502 
2602.184 21805066 21797540 21788204 21777892 21767824 21758976 21751382 
2605.559 21744414 21736646 21727484 21716754 21705226 21693802 21683596 
2608.934 21674504 21666112 21657508 21648106 21638040 21628254 21619686 
2612.309 21613312 21609168 21606558 21604398 21601682 21598096 21593430 
2615.685 21588066 21582076 21575252 21567208 21557562 21546664 21535348 
2619.060 21524136 21514214 21505752 21498024 21490156 21481348 21471078 
2622.435 21460252 21449772 21440582 21433030 21426692 21420322 21412874 
2625.810 21403928 21393660 21382940 21372846 21363484 21354540 21345384 
2629.186 21335048 21323704 21312044 21301500 21293706 21289460 21288660 
2632.561 21290434 21293878 21298126 21303520 21310550 21319876 21332334 
2635.936 21347368 21364526 21382906 21402360 21423002 21445318 21469756 
2639.311 21495934 21523300 21550252 21575844 21599592 21621742 21643368 
2642.687 21665310 21688088 21711462 21734242 21755734 21775836 21795136 
2646.062 21814646 21836074 21859768 21885416 21911726 21937062 21960132 
2649.437 21980486 21998402 22014436 22029528 22043752 22056544 22067596 
2652.812 22075962 22081366 22084050 22084434 22082656 22079170 22073766 
2656.188 22066968 22059508 22052572 22047724 22046400 22049538 22056894 
2659.563 22068050 22082098 22098136 22116196 22136278 22158524 22183002 
2662.938 22209364 22236810 22264676 22292474 22320204 22348006 22376330 
2666.313 22405044 22433550 22460798 22485784 22508010 22527170 22543712 
2669.688 22557880 22569888 22579276 22585768 22588980 22588980 22586780 
2673.064 22583884 22581962 22582626 22586710 22594248 22605104 22619032 
2676.439 22635578 22654672 22676316 22700194 22726030 22753230 22781232 
2679.814 22810286 22840320 22871752 22904862 22939406 22975178 23011056 
2683.189 23046728 23081636 23115916 23150094 23184520 23219472 23254740 
2686.565 23290362 23325882 23361896 23398996 23437812 23479080 23523082 
2689.940 23569430 23617742 23667984 23720334 23775696 23835722 23901536 
2693.315 23974114 24053778 24139974 24232038 24328782 24429366 24533060 
2696.690 24639198 24747326 24857202 24968826 25082442 25198512 25317386 
2700.066 25438964 25562052 25684472 25803374 25915804 26019148 26111716 
2703.441 26192620 26261958 26319866 26366126 26400526 26422532 26432074 
2706.816 26429644 26416792 26395630 26368378 26337748 26305184 26272376 
2710.191 26240486 26210394 26183188 26159504 26139798 26123822 26111224 
2713.567 26101090 26093068 26087122 26083498 26082722 26085468 26091872 
2716.942 26102076 26116432 26135116 26158940 26188538 26224226 26265514 
2720.317 26311310 26359012 26406686 26452464 26495674 26536740 26576578 
2723.692 26615998 26655280 26693190 26728212 26758272 26782096 26799222 
2727.068 26810324 26817020 26820898 26823294 26825304 26826924 26828404 
2730.443 26829462 26830166 26830624 26831048 26831648 26832740 26834572 
2733.818 26837462 26841868 26847614 26854734 26862418 26870030 26876974 
2737.193 26882898 26888220 26894142 26901616 26912366 26927244 26946740 
2740.569 26971030 26999942 27033264 27070714 27112118 27157438 27206082 
2743.944 27258436 27314076 27373252 27436074 27502680 27572580 27644998 
2747.319 27718982 27793440 27868120 27943342 28020066 28099980 28184720 
2750.694 28275204 28371544 28473636 28580424 28691556 28806648 28925524 
2754.070 29048186 29174214 29302620 29432480 29563020 29693702 29825136 
2757.445 29958384 30094300 30233492 30375642 30519404 30663460 30805894 
2760.820 30945882 31083070 31217558 31349596 31479680 31607770 31733368 
2764.195 31856400 31976860 32094896 32210748 32324418 32435656 32543708 
2767.571 32647464 32745854 32838364 32924532 33004642 33079330 33149384 
2770.946 33215798 33279364 33341468 33402580 33463202 33523474 33582536 
2774.321 33639456 33693596 33744984 33794728 33845016 33898744 33958792 
2777.696 34027372 34105824 34193928 34291088 34396160 34508360 34627264 
2781.072 34752480 34883732 35020768 35162804 35309380 35460392 35615916 
2784.447 35776640 35943152 36115876 36294260 36476748 36661444 36845856 
2787.822 37027928 37206036 37378724 37545956 37707504 37863800 38015416 
2791.197 38163172 38308232 38451532 38593932 38735876 38877936 39019792 
2794.573 39161696 39303496 39445420 39587168 39728168 39867648 40004232 
2797.948 40136752 40264512 40387476 40506544 40623100 40738632 40854340 
2801.323 40970188 41086136 41200444 41311792 41418796 41520212 41615268 
2804.698 41703488 41784612 41858604 41926032 41987452 42043992 42096520 
2808.073 42145188 42190136 42230776 42266420 42296952 42322960 42346224 
2811.449 42369276 42394628 42423820 42458308 42497404 42540376 42585840 
2814.824 42632916 42681020 42729348 42777940 42825768 42871444 42914052 
2818.199 42952092 42985380 43013916 43038460 43060088 43079404 43096640 
2821.574 43111308 43122728 43129936 43132388 43130012 43123312 43112992 
2824.950 43100556 43087232 43074428 43063708 43056500 43053608 43055808 
2828.325 43063412 43076624 43095760 43121740 43155336 43198700 43253092 
2831.700 43319788 43399456 43492512 43598624 43718468 43852784 44003280 
2835.075 44172088 44361516 44573348 44808536 45066864 45347592 45649232 
2838.451 45970560 46310812 46669892 47048392 47447592 47869244 48314856 
2841.826 48785688 49282384 49805096 50352780 50923540 51514188 52119728 
2845.201 52733220 53345748 53944992 54516216 55042792 55505316 55884404 
2848.576 56162000 56321988 56353224 56250168 56014208 55653164 55181072 
2851.952 54617240 53981876 53296784 52582216 51853780 51124176 50401412 
2855.327 49689620 48990456 48304152 47630504 46969416 46321392 45687212 
2858.702 45068260 44466520 43883760 43323084 42787700 42281248 41807012 
2862.077 41368060 40965452 40599892 40270472 39976112 39715532 39488056 
2865.453 39292796 39129172 38996412 38893376 38818480 38770256 38746996 
2868.828 38747072 38768696 38809204 38865328 38933276 39008228 39085556 
2872.203 39161224 39232120 39296136 39352432 39401224 39443352 39480364 
2875.578 39514436 39547644 39582632 39621652 39666632 39718980 39779184 
2878.954 39847052 39921876 40002564 40087440 40174912 40263024 40350060 
2882.329 40434240 40514076 40588900 40658468 40722948 40782852 40838868 
2885.704 40891800 40942696 40992396 41041888 41092184 41143944 41197164 
2889.079 41251048 41304468 41355888 41403924 41447848 41487544 41523816 
2892.455 41557364 41588940 41618548 41645464 41668764 41687584 41701300 
2895.830 41710160 41715160 41717640 41719500 41722780 41729276 41740472 
2899.205 41757728 41781364 41811464 41847692 41888996 41935044 41985700 
2902.580 42041404 42103640 42174032 42254440 42346884 42453116 42575132 
2905.956 42715860 42879016 43069344 43292880 43555988 43864696 44225060 
2909.331 44642088 45119172 45658100 46257956 46914232 47617784 48355664 
2912.706 49109716 49858724 50580992 51254872 51861172 52385880 52819240 
2916.081 53156628 53398088 53547428 53611640 53598972 53519952 53384712 
2919.457 53203180 52984252 52735056 52460616 52164412 51848176 51512396 
2922.832 51156640 50779532 50379196 49953544 49500080 49017200 48504060 
2926.207 47961368 47391456 46798188 46186604 45562816 44933640 44306840 
2929.582 43690912 43095212 42528828 42001212 41520064 41091200 40718652 
2932.958 40403840 40146492 39944468 39794360 39691388 39629456 39602160 
2936.333 39602016 39621688 39654864 39695708 39739784 39783864 39825120 
2939.708 39861476 39891436 39914252 39929868 39939348 39944760 39948756 
2943.083 39954424 39964596 39981780 40007900 40044888 40093688 40155976 
2946.458 40233472 40327588 40440824 40575260 40732664 40914404 41119356 
2949.834 41343788 41580008 41816896 42040596 42235196 42385824 42480740 
2953.209 42511288 42474092 42369640 42201892 41976504 41699988 41379868 
2956.584 41023388 40638676 40234560 39819928 39403660 38993660 38596108 
2959.959 38215416 37854400 37513912 37194336 36895088 36615372 36353988 
2963.335 36109756 35881356 35667568 35467152 35279408 35103308 34937916 
2966.710 34782024 34633940 34492256 34355456 34223000 34094428 33970508 
2970.085 33852428 33741328 33638708 33545238 33461702 33387840 33323188 
2973.460 33267416 33219806 33180426 33150348 33131112 33124994 33134292 
2976.836 33161114 33206322 33269704 33349804 33444666 33552144 33670212 
2980.211 33797808 33933964 34078188 34230028 34388380 34551948 34719208 
2983.586 34888004 35056072 35220832 35378896 35526588 35660192 35776032 
2986.961 35871240 35944480 35995448 36025224 36035264 36027524 36002936 
2990.337 35962228 35905464 35832664 35744800 35643396 35531264 35412180 
2993.712 35290944 35172000 35059880 34958168 34868904 34793188 34731016 
2997.087 34681164 34642660 34614740 34597516 34591920 34599668 34621880 
3000.462 34659416 34711888 34777572 34853856 34937952 35027088 35119260 
3003.838 35213576 35309380 35406792 35506092 35607608 35711776 35819028 
3007.213 35929760 36044160 36162008 36282372 36403924 36525116 36644716 
3010.588 36761644 36875976 36988056 37098800 37208776 37318604 37428200 
3013.963 37537608 37646684 37755500 37864488 37974224 38085256 38197836 
3017.339 38312072 38427892 38545088 38663904 38784604 38908052 39034912 
3020.714 39166080 39301648 39441356 39584448 39729328 39874260 40017164 
3024.089 40156704 40291632 40421732 40547540 40670292 40791588 40912696 
3027.464 41034640 41157496 41280708 41403524 41525060 41644732 41762868 
3030.840 41880128 41997380 42115872 42236512 42359708 42485492 42613508 
3034.215 42743280 42874808 43007912 43143036 43281204 43424068 43573056 
3037.590 43730376 43897580 44075700 44264756 44463988 44671392 44884808 
3040.965 45101896 45320488 45539044 45755984 45969784 46177760 46376620 
3044.341 46561844 46728780 46873256 46992568 47086760 47158408 47212336 
3047.716 47255224 47293684 47333368 47378408 47430664 47490688 47557784 
3051.091 47631060 47710080 47794480 47884040 47978244 48075760 48175116 
3054.466 48274120 48371148 48465084 48555860 48644056 48730488 48816016 
3057.842 48901112 48985672 49069316 49151644 49232576 49312484 49391516 
3061.217 49470152 49548288 49625576 49701992 49777340 49852000 49926556 
3064.592 50001760 50077792 50153916 50228784 50300656 50367772 50429248 
3067.967 50485072 50536620 50585868 50634568 50684424 50735884 50788732 
3071.343 50842328 50895932 50949132 51002716 51057720 51116048 51179716 
3074.718 51250584 51329932 51417840 51513668 51615456 51720208 51824996 
3078.093 51927000 52024324 52116480 52204432 52289896 52375040 52461548 
3081.468 52549684 52638580 52725592 52807380 52880200 52940756 52986760 
3084.844 53017232 53033144 53036628 53031308 53021764 53012028 53005964 
3088.219 53006148 53013340 53027376 53047184 53071932 53101248 53136112 
3091.594 53177788 53228312 53288992 53360284 53441404 53530972 53627048 
3094.969 53728168 53833624 53943308 54057292 54175440 54296888 54419532 
3098.344 54540560 54656696 54764632 54862368 54948700 55024024 55089736 
3101.720 55148452 55203196 55256812 55312172 55371904 55437512 55510624 
3105.095 55591960 55681936 55780936 55888776 56005840 56132736 56270236 
3108.470 56420340 56586160 56771452 56981720 57223312 57503428 57830208 
3111.845 58212240 58657940 59176008 59774272 60459268 61235872 62106020 
3115.221 63068368 64116368 65237752 66413656 67615280 68805840 69939568 
3118.596 70960800 71812952 72438752 72786728 72820536 72520424 71887776 
3121.971 70943360 69726824 68291480 66694200 64995548 63251616 61508128 
3125.346 59805072 58172876 56632816 55200636 53885048 52688932 51610192 
3128.722 50642568 49777488 49004844 48314668 47698024 47146848 46653808 
3132.097 46212660 45817064 45461928 45142148 44853284 44591228 44352528 
3135.472 44133352 43930536 43740636 43560708 43388292 43221320 43058072 
3138.847 42897008 42736956 42577140 42417240 42257984 42100316 41945924 
3142.223 41795884 41650460 41508764 41368936 41228680 41086244 40940584 
3145.598 40792388 40642928 40493996 40347116 40203264 40062400 39924236 
3148.973 39787932 39653088 39518900 39384940 39249928 39112748 38971728 
3152.348 38825868 38674912 38519632 38361540 38202864 38045288 37890264 
3155.724 37738080 37588476 37440480 37293328 37146080 36998700 36850796 
3159.099 36702256 36552972 36403240 36252836 36102376 35952328 35803124 
3162.474 35655372 35509400 35365380 35223528 35083772 34946388 34811280 
3165.849 34677972 34546100 34415132 34284632 34154428 34025008 33896416 
3169.225 33769260 33643432 33518392 33393458 33267878 33141446 33014796 
3172.600 32889150 32766148 32647106 32532818 32422874 32316462 32212138 
3175.975 32108556 32004930 31901006 31796750 31692628 31588920 31485700 
3179.350 31383112 31281080 31179572 31078478 30977766 30877360 30777190 
3182.726 30677150 30577276 30477816 30379194 30281734 30185290 30090002 
3186.101 29995094 29900274 29805262 29709846 29614238 29518472 29422836 
3189.476 29327290 29231730 29135944 29040322 28945144 28850908 28757720 
3192.851 28665364 28573170 28479510 28383500 28283832 28180302 28073082 
3196.227 27963344 27852046 27740950 27631226 27524176 27420578 27321062 
3199.602 27225978 27134866 27047158 26962004 26878384 26796050 26714928 
3202.977 26635760 26558862 26484898 26413058 26342432 26271180 26197758 
3206.352 26121146 26041348 25959278 25876590 25795182 25716322 25640884 
3209.728 25568834 25499994 25433518 25368878 25305480 25243002 25181164 
3213.103 25120074 25060116 25001746 24945206 24890534 24837064 24783704 
3216.478 24728492 24670272 24608094 24542492 24474796 24407004 24341362 
3219.853 24279268 24221386 24167226 24115806 24065932 24016624 23967706 
3223.229 23918654 23869432 23820252 23770796 23721242 23671902 23623236 
3226.604 23576006 23530636 23487090 23445226 23404556 23364692 23326198 
3229.979 23289734 23256314 23226706 23200526 23176516 23152540 23126364 
3233.354 23095962 23060426 23020176 22976610 22931862 22887782 22845800 
3236.729 22807072 22772154 22740902 22713460 22689406 22668042 22648562 
3240.105 22629678 22610130 22589012 22565908 22540780 22514222 22486830 
3243.480 22459402 22432640 22406892 22382368 22358820 22335760 22312460 
3246.855 22287834 22260910 22231126 22198136 22162498 22124772 22086004 
3250.230 22046888 22008198 21969962 21932600 21896496 21862346 21830814 
3253.606 21802558 21777160 21753680 21730236 21704844 21676002 21643160 
3256.981 21606940 21568880 21531240 21495726 21463734 21435778 21411968 
3260.356 21391502 21374030 21358368 21343716 21328820 21312322 21292836 
3263.731 21269834 21243562 21215274 21187304 21162324 21142982 21131014 
3267.107 21127398 21130910 21140060 21151262 21160724 21164340 21158532 
3270.482 21141206 21111744 21072022 21025314 20975898 20927912 20883826 
3273.857 20844438 20808424 20773526 20737624 20699952 20660892 20622810 
3277.232 20588240 20559162 20535816 20517092 20500280 20482218 20460858 
3280.608 20435086 20405530 20373964 20342400 20312958 20286778 20264004 
3283.983 20244458 20227068 20210752 20194576 20177812 20160004 20141472 
3287.358 20123216 20106730 20094030 20086604 20085284 20089346 20096910 
3290.733 20104858 20109506 20108084 20098506 20080564 20055442 20025462 
3294.109 19992952 19959646 19926446 19893284 19859326 19824158 19787258 
3297.484 19749426 19711666 19675502 19642430 19613448 19589114 19569842 
3300.859 19555770 19547696 19546134 19551542 19563604 19580656 19599618 
3304.234 19616464 19626622 19626274 19613138 19586482 19547244 19497650 
3307.610 19440332 19377550 19311312 19243492 19175888 19110512 19049578 
3310.985 18995194 18948810 18910636 18879696 18854400 18832426 18812012 
3314.360 18792118 18772500 18753818 18737038 18723270 18713896 18709952 
3317.735 18712374 18721574 18737592 18759664 18786166 18815022 18844020 
3321.111 18871564 18897070 18921018 18944276 18968264 18993288 19019216 
3324.486 19044764 19068722 19089806 19107570 19122770 19136412 19150056 
3327.861 19164600 19180598 19197566 19214536 19230294 19244012 19254990 
3331.236 19263302 19269158 19273174 19276464 19279686 19283740 19288796 
3334.612 19294442 19299604 19302790 19301924 19295446 19281972 19260982 
3337.987 19232166 19195904 19152444 19102340 19046392 18985432 18920602 
3341.362 18853432 18784920 18716006 18646688 18576410 18504348 18429980 
3344.737 18352998 18274648 18196104 18119752 18047110 17979140 17915946 
3348.113 17856352 17798492 17739638 17677240 17608984 17533286 17449772 
3351.488 17359618 17265034 17169196 17075930 16988404 16908682 16837480 
3354.863 16773969 16716702 16664090 16614925 16568383 16524429 16482474 
3358.238 16441796 16400848 16358113 16312217 16262440 16209196 16153893 
3361.614 16098667 16045649 15996519 15952554 15914230 15881887 15855322 
3364.989 15834291 15817761 15803775 15790099 15773676 15751617 15721796 
3368.364 15683044 15635572 15580205 15518974 15453597 15386238 15318821 
3371.739 15253542 15192563 15137904 15090697 15051351 15018798 14991223 
3375.115 14965809 14940396 14912928 14882890 14850625 14817196 14783634 
3378.490 14750998 14719738 14690192 14662260 14636009 14610993 14586801 
3381.865 14562814 14538180 14512176 14484324 14454555 14423897 14393687 
3385.240 14365670 14342314 14325191 14315637 14313993 14319609 14330568 
3388.615 14343924 14356218 14363376 14362589 14351389 14329437 14297795 
3391.991 14258863 14216031 14172210 14130037 14090914 14055114 14022330 
3395.366 13991771 13962891 13935655 13910269 13887621 13868189 13852317 
3398.741 13839386 13827927 13815990 13800666 13779700 13751279 13715404 
3402.116 13673276 13627629 13581783 13539325 13502614 13472809 13449466 
3405.492 13431114 13415462 13400597 13384433 13366255 13345822 13323169 
3408.867 13299390 13275647 13253066 13232775 13215593 13201179 13188404 
3412.242 13175425 13160397 13141409 13117912 13090764 13061705 13033126 
3415.617 13007110 12984577 12965527 12948390 12931323 12912514 12891044 
3418.993 12866470 12839644 12811557 12783268 12755799 12729594 12705268 
3422.368 12683161 12663305 12646078 12631238 12618516 12607396 12597435 
3425.743 12587987 12578641 12568614 12557086 12543205 12525812 12504089 
3429.118 12478035 12448199 12416592 12384987 12355566 12330203 12309103 
3432.494 12291583 12276722 12262782 12248536 12233438 12217147 12200177 
3435.869 12182320 12163680 12144053 12122928 12100067 12075332 12048624 
3439.244 12020588 11991192 11961219 11930669 11899882 11869302 11839235 
3442.619 11809886 11781525 11753269 11724231 11693221 11659592 11622597 
3445.995 11583291 11543410 11505268 11471212 11443247 11421680 11405420 
3449.370 11392087 11378957 11363277 11343006 11317431 11287129 11253941 
3452.745 11219734 11186788 11156803 11130150 11106933 11086368 11067266 
3456.120 11048300 11028520 11006939 10983048 10956917 10928883 10899595 
3459.496 10869935 10840991 10813508 10787896 10764289 10742348 10721494 
3462.871 10701152 10680335 10658635 10635409 10610350 10583291 10554331 
3466.246 10524151 10493804 10464476 10437086 10412345 10390320 10370162 
3469.621 10350820 10331172 10310271 10287810 10263756 10238311 10211308 
3472.997 10182476 10151439 10118066 10082660 10046715 10012366 9982495 
3476.372 9959135 9943337 9935032 9931777 9930218 9926725 9917878 9901538 
3480.229 9876590 9844153 9806295 9765594 9724694 9686000 9650155 9617497 
3484.087 9586841 9557338 9528243 9499117 9470907 9444629 9421535 9401828 
3487.944 9385136 9369528 9353209 9334251 9311773 9286351 9259440 9232667 
3491.802 9207216 9183018 9159092 9133544 9105019 9073079 9038604 9003759 
3495.659 8970778 8941588 8917134 8897011 8880237 8866034 8853656 8843038 
3499.516 8834077 8826232 8818015 8807397 8791810 8769597 8740656 8706715 
3503.374 8671085 8637791 8610212 8590408 8578511 8572767 8570738 8569454 
3507.231 8566785 8561411 8553368 8543332 8532857 8522889 8514542 8508020 
3511.089 8502715 8497647 8491565 8483422 8472881 8460380 8447507 8435750 
3514.946 8426460 8420650 8418319 8418454 8420007 8422035 8423926 8425886 
3518.803 8428724 8432947 8438961 8446461 8454873 8463150 8470719 8477138 
3522.661 8482578 8487545 8492444 8497647 8503594 8510352 8518326 8527855 
3526.518 8539311 8552963 8568609 8585744 8603318 8620487 8636372 8651008 
3530.376 8664426 8677609 8691469 8706715 8723449 8740994 8758305 8773924 
3534.233 8786063 8793636 8796172 8794109 8789173 8783425 8779672 8780078 
3538.091 8786434 8799621 8819368 8844594 8873406 8903741 8932929 8958500 
3541.948 8978017 8989519 8991277 8982787 8963810 8935162 8898465 8856091 
3545.805 8810711 8765912 8725105 8691435 8667435 8653712 8648878 8648946 
3549.663 8648878 8642895 8625658 8594564 8549821 8495417 8436190 8378558 
3553.520 8326912 8283479 8247783 8217595 8190009 8162896 8134705 8105435 
3557.378 8075088 8043729 8011260 7976835 7940119 7901415 7862275 7824962 
3561.235 7792002 7765657 7746228 7732668 7721301 7706967 7683494 7644913 
3565.093 7586982 7507921 7409830 7298722 7183801 7075782 6983446 6912439 
3568.950 6863795 6835116 6821248 6816536 6815829 6815055 6811218 6802568 
3572.807 6787961 6766658 6738523 6704132 6664596 6621598 6576720 6531578 
3576.665 6487517 6445445 6405966 6370727 6341004 6318344 6303922 6296962 
3580.522 6295988 6297836 6299114 6297433 6292121 6283852 6274674 6265733 
3584.380 6256589 6244253 6223211 6187449 6133072 6060659 5976130 5890577 
3588.237 5817197 5765989 5742150 5743929 5764679 5794463 5823141 5842954 
3592.094 5848865 5839125 5815115 5780998 5741613 5701627 5664901 5633481 
3595.952 5608173 5588168 5572126 5557862 5543364 5526551 5506249 5482189 
3599.809 5455077 5426861 5399987 5377376 5360972 5351881 5349936 5353793 
3603.667 5361072 5369291 5375598 5377108 5371170 5355102 5326958 5286440 
3607.524 5235127 5177248 5119042 5067145 5025880 4995915 4973660 4952512 
3611.382 4924964 4885254 4831912 4768458 4703440 4646000 4604742 4582808 
3615.239 4578053 4582875 4586726 4579292 4551400 4498400 4420601 4324310 
3619.096 4219542 4118779 4033491 3971324 3935078 3922540 3928023 3945143 
3622.954 3967512 3991956 4017572 4045731 4078039 4113795 4147681 4169592 
3626.811 4164641 4117709 4019311 3873494 3700123 3530529 3397232 3318429 
3630.669 3294156 3310015 3345340 3380502 3401239 3401406 3382806 3352920 
3634.526 3320933 3293889 3275026 3262741 3253393 3242878 3229658 3213936 
3638.384 3197914 3183561 3172213 3163568 3156626 3150318 3145011 3142742 
3642.241 3146413 3159296 3182860 3216039 3255496 3295658 3329781 3351685 
3646.098 3356092 3338796 3298196 3234132 3148583 3045232 2930564 2813992 
3649.956 2707021 2622576 2571643 2559877 2586275 2643177 2718157 2794917 
3653.813 2858216 2895473 2899275 2870423 2818795 2761670 2717056 2698885 
3657.671 2711622 2750833 2805588 2862785 2911283 2943374 2956118 2951380 
3661.528 2934367 2912184 2891637 2878895 2878228 2892170 2921891 2966927 
3665.385 3025679 3094285 3168241 3240808 3304506 3352886 3382872 3398300 
3669.243 3411992 3446424 3529393 3683147 3919096 4232022 4604943 5010193 
3673.100 5414715 5783953 6077022 6254875 6289399 6173737 5928733 5593606 
3676.958 5211116 4811541 4412668 4025297 3658787 3325974 3042029 2818395 
3680.815 2659512 2559844 2506753 2484892 2482126 2491823 2512885 2546512 
3684.673 2591875 2643710 2691317 2721491 2721091 2682749 2607842 2507852 
3688.530 2400790 2303879 2229404 2179816 2151145 2136327 2130667 2131899 
3692.387 2140223 2156173 2178984 2205658 2232368 2255116 2272102 2283927 
3696.245 2293720 2305445 2322034 2344020 2368772 2391927 2407953 2412051 
3700.102 2402322 2379767 2348384 2314838 2286492 2269571 2267706 2281895 
3703.960 2310808 2350616 2397291 2446104 2493356 2536247 2573210 2603609 
3707.817 2627909 2645610 2656011 2656345 2643010 2612442 2562477 2495522 
3711.675 2419015 2344453 2284760 2250719 2247255 2272702 2319535 2377734 
3715.532 2436374 2485925 2521316 2541246 2548312 2546612 2540913 2533681 
3719.389 2525649 2515918 2503353 2488257 2473328 2462032 2458166 2462898 
3723.247 2474528 2488557 2498621 2499721 2489757 2471029 2450303 2436408 
3727.104 2438107 2460832 2504653 2564344 2631609 2695951 2747999 2781344 
3730.962 2793883 2788981 2772608 2752034 2730960 2708254 2676848 2629009 
3734.819 2559644 2471629 2376002 2289356 2228072 2200829 2207357 2240594 
3738.677 2291588 2354181 2426212 2509452 2605142 2709621 2811925 2891704 
3742.534 2922658 2882197 2761637 2579976 2383731 2233866 2173222 2210187 
3746.391 2321700 2468663 2612242 2718690 2767739 2753734 2685516 2582509 
3750.249 2467297 2359444 2269738 2204026 2165630 2157172 2179616 2230569 
3754.106 2302380 2383431 2460366 2522716 2564010 2583542 2585276 2575276 
3757.964 2558678 2537347 2510819 2479060 2445338 2416882 2402822 2410518 
3761.821 2440939 2488191 2540380 2583409 2606809 2606642 2587675 2560711 
3765.678 2539580 2533614 2544379 2565210 2585009 2592609 2580676 2548545 
3769.536 2502654 2453835 2413384 2388962 2383131 2393826 2415749 2442739 
3773.393 2469629 2493556 2513785 2531515 2548779 2567243 2586075 2602208 
3777.251 2610308 2604409 2581076 2541246 2491890 2444571 2411451 2400423 
3781.108 2413084 2444071 2483559 2520950 2548745 2564244 2569943 2571176 
3784.966 2573343 2579709 2589875 2601108 2610175 2616042 2619609 2623542 
3788.823 2630609 2641943 2656312 2671647 2685816 2698352 2711088 2726992 
3792.680 2747966 2772975 2797251 2813592 2815226 2797651 2763471 2721157 
3796.538 2684649 2666446 2674281 2706254 2752600 2796184 2817461 2800386 
3800.395 2737396 2635343 2515684 2410718 2349983 2348117 2402222 2493922 
3804.253 2597042 2682616 2727359 2717990 2655545 2556378 2448203 2360377 
3808.110 2311307 2304545 2331261 2377801 2431643 2485358 2538113 2593175 
3811.968 2653611 2719157 2783479 2834903 2860951 2850745 2802254 2724992 
3815.825 2640777 2575309 2548712 2567710 2624675 2701186 2773341 2818795 
3819.682 2820929 2772875 2682182 2570710 2468796 2401656 2382299 2407720 
3823.540 2463265 2529282 2587309 2625576 2639443 2633676 2618342 2606275 
3827.397 2607209 2624409 2654745 2691284 2726026 2753101 2770274 2778477 
3831.255 2780944 2781978 2784379 2790081 2800119 2814493 2832535 2852346 
3835.112 2870023 2878962 2872458 2844308 2792816 2722591 2644344 2571643 
3838.969 2516284 2484225 2474861 2482192 2497322 2512252 2521316 2522116 
3842.827 2515018 2502954 2490357 2481726 2481359 2493089 2518884 2559144 
3846.684 2612308 2675814 2746865 2822997 2903078 2986543 3071059 3151386 
3850.542 3216673 3250322 3232596 3145112 2981038 2754534 2505020 2283061 
3854.399 2130867 2065876 2079126 2147216 2243692 2348151 2447137 2533848 
3858.257 2606575 2665646 2712455 2748466 2775175 2794950 2810090 2821930 
3862.114 2829967 2831101 2820796 2795517 2756768 2713089 2678448 2667813 
3865.971 2690684 2745765 2820362 2892804 2940538 2944708 2899175 2813726 
3869.829 2714089 2631743 2589542 2593709 2633309 2687183 2732861 2754134 
3873.686 2746065 2715689 2678448 2651444 2648244 2672981 2720957 2780678 
3877.544 2838638 2881730 2899909 2889302 2853046 2801720 2750400 2714989 
3881.401 2707554 2731294 2780377 2840639 2895673 2927862 2925327 2886200 
3885.259 2820829 2750266 2698085 2683149 2711055 2774175 2854647 2931565 
3889.116 2985509 3002057 2976334 2913752 2829967 2744264 2675648 2635843 
3892.973 2628076 2647944 2687050 2737229 2791149 2843774 2892404 2934501 
3896.831 2968094 2990280 2998387 2990980 2969095 2936369 2898875 2862719 
3900.688 2832402 2808456 2788214 2766439 2738563 2702386 2660345 2618175 
3904.546 2583509 2563144 2560177 2573876 2600375 2634510 2671414 2708021 
3908.403 2742964 2775942 2806922 2835703 2861585 2883999 2902811 2919256 
3912.260 2934868 2951581 2970463 2990847 3010332 3025579 3033053 3030618 
3916.118 3017872 2997153 2971697 2945809 2922458 2904345 2892437 2887667 
3919.975 2890469 2900810 2918055 2939938 2962957 2982873 2995551 2998554 
3923.833 2991581 2977402 2960688 2946710 2940038 2942740 2954550 2972731 
3927.690 2993916 3014702 3032119 3044898 3052072 3053074 3048302 3038292 
3931.548 3024378 3009064 2995418 2987010 2986643 2995618 3013368 3037358 
3935.405 3063685 3088545 3108735 3122317 3129559 3131695 3130894 3128691 
3939.262 3125988 3122084 3115743 3105264 3089579 3068924 3045466 3022577 
3943.120 3004293 2994217 2994150 3003725 3020274 3039960 3058212 3070826 
3946.977 3075497 3071560 3061082 3047001 3033220 3023577 3019974 3023210 
3950.835 3032519 3046000 3061049 3075197 3086676 3094185 3097589 3097488 
3954.692 3095486 3093450 3093517 3097388 3105264 3117011 3130694 3144044 
3958.550 3154991 3161966 3164436 3163301 3160331 3157027 3154590 3153222 
3962.407 3152754 3152221 3150719 3148349 3145746 3143977 3144344 3147615 
3966.264 3153789 3161733 3169910 3176852 3181358 3183094 3182627 3181358 
3970.122 3180924 3182493 3186765 3193174 3200885 3208562 3214570 3218676 
3973.979 3221046 3222949 3226153 3232396 3242644 3257032 3274125 3291886 
3977.837 3308145 3320866 3328979 3332018 3331049 3326876 3321033 3314489 
3981.694 3308612 3304172 3302169 3303538 3308913 3318061 3329981 3343470 
3985.552 3356526 3367846 3376428 3382205 3385778 3388015 3389618 3391121 
3989.409 3392456 3393425 3394226 3394794 3395829 3397532 3400438 3404044 
3993.266 3408085 3411692 3414464 3416100 3416935 3417603 3418237 3419005 
3997.124 3419807 3420041 3419673 3419005 3418237 3418337 3419239 3420909 
##END=
