
##TITLE=1132a_1_e
##JCAMP-DX=5.01  $$ Nicolet v. 1
##DATATYPE=INFRARED SPECTRUM
##ORIGIN=UniL
##OWNER=Nicolet
##LONGDATE=2011/09/21
##TIME=13:59:44
##SPECTROMETER/DATA SYSTEM=Nicolet iS5
##DATA PROCESSING=
Ratio against background
%Transmittance->Absorbance
Truncated
ElementMultiply or ElementDivide
##COMMENTS=
Number of sample scans: 32
Collection length: 51.21 sec
Sample gain: 2.0
Background collected on: Mer Sep 21 13:48:37 2011 (GMT+02:00);
Number of background scans: 32
Background gain: 2.0
Sample spacing:  1.000
Number of scan points: 12415
Resolution points: 8192
Number of FFT points: 65536
Apodization: N-B fort;
Phase correction: Mertz;
Laser frequency: 15798.0 cm-1
Number of rejected sample scans: 0
Number of rejected background scans: 0
Bench serial number: ASB1000141;
##RESOLUTION=4.000
##XUNITS=1/CM
##YUNITS=ABSORBANCE
##FIRSTX=649.893372
##LASTX=4000.122314
##FIRSTY=0.064990
##MAXX=4000.122314
##MINX=649.893372
##MAXY=0.325225
##MINY=0.000877
##XFACTOR=1.000000
##YFACTOR=1.000000E-009
##NPOINTS=6950
##DELTAX=0.482117
##ZPD=6100
##XYDATA=(X++(Y..Y))
649.893 64989776 65515496 66047408 66615008 67235448 67912336 68637344 
653.268 69399880 70198288 71044808 71962384 72978664 74117312 75390920 
656.643 76804720 78364320 80081360 81979048 84089432 86442768 89066048 
660.018 91977880 95183728 98675672 102415440 106320952 110240608 113968576 
663.393 117282672 119967904 121874336 122911688 123014168 122116688 
666.285 120143952 117071600 113027208 108387976 103732736 99589864 96244032 
669.660 93690584 91755296 90221976 88913912 87724432 86609464 85574368 
673.035 84647136 83859792 83229848 82757256 82429968 82232680 82156288 
676.410 82199248 82367552 82669824 83112920 83696400 84414552 85256560 
679.785 86212944 87279896 88464296 89781200 91253464 92906056 94761624 
683.159 96843872 99181688 101812424 104791200 108186192 112069344 116516312 
686.534 121595552 127368104 133897704 141244208 149445216 158468960 
689.427 168151312 178114992 187680608 195948800 201844112 204310160 
692.320 202640832 196608928 186596688 173481136 158507808 143036880 
695.212 128241744 115095120 104207624 95819000 89903208 86220176 84434424 
698.587 84182008 85171736 87224080 90259712 94265128 99204840 104909264 
701.962 111018896 116937216 121860776 124996696 125687984 123620760 
704.855 118924336 112141360 104098968 95648528 87577168 80431920 74467728 
708.229 69719512 66054388 63274188 61170028 59576524 58377760 57485840 
711.604 56832968 56359412 56011004 55751100 55563492 55451368 55426632 
714.979 55497184 55656664 55885084 56153932 56438828 56728900 57027436 
718.354 57347200 57699176 58086096 58498988 58923196 59345200 59761192 
721.729 60179180 60616540 61091948 61619156 62203628 62842184 63526408 
725.104 64243624 64979888 65716976 66431372 67097612 67691944 68201176 
728.478 68630864 69009312 69384480 69809120 70331552 70980120 71758656 
731.853 72650368 73630376 74679032 75790424 76975624 78254840 79648832 
735.228 81167728 82808368 84558800 86409976 88365480 90449368 92700552 
738.603 95165160 97884544 100883552 104172072 107751096 111623832 115806456 
741.978 120332128 125248400 130621392 136538400 143114320 150515008 
744.870 158941792 168590000 179570480 191778352 204768576 217593280 
747.763 228900544 237076512 240581056 238550592 231092272 219396208 
750.656 205308672 190979856 178366928 168789296 162981984 161004576 
753.548 162387216 166254224 171536576 177222096 182388000 186381312 
756.441 188831424 189573136 188594064 185943600 181682144 175868416 
759.334 168583392 159980944 150313968 139957280 129403112 119165744 
762.227 109764584 101653152 95126424 90330440 87226592 85621616 85192656 
765.601 85553384 86337536 87204760 87896848 88248416 88162024 87612040 
768.976 86629680 85299424 83744456 82111816 80560416 79220520 78180696 
772.351 77477288 77096816 76996240 77125024 77446872 77943136 78608936 
775.726 79441504 80430688 81555792 82794104 84127304 85551048 87071808 
779.101 88699312 90434360 92261264 94147360 96053600 97946480 99805328 
782.475 101625432 103409808 105158328 106858856 108484392 109997144 
785.368 111362208 112551168 113546800 114340440 114921752 115273904 
788.261 115372952 115190696 114705000 113908096 112808520 111428120 
791.154 109793552 107929952 105856056 103586384 101138600 98537128 95814744 
794.528 93009888 90154280 87269528 84365576 81445736 78519080 75609416 
797.903 72755344 70008816 67422672 65034956 62868224 60927448 59206956 
801.278 57698764 56396192 55292072 54373340 53616512 52989008 52451268 
804.653 51968936 51518632 51089808 50682968 50302328 49950756 49628364 
808.028 49336276 49083560 48890504 48790468 48824728 49029956 49433912 
811.402 50047304 50861848 51848252 52953672 54104280 55193900 56095224 
814.777 56678720 56821036 56443772 55530996 54137608 52377880 50401300 
818.152 48368852 46409508 44612672 43024852 41655928 40496724 39529716 
821.527 38736600 38096792 37585516 37175928 36839760 36554744 36309572 
824.902 36103672 35942936 35832056 35769372 35745124 35745844 35760452 
828.277 35785816 35827556 35895928 35998728 36136332 36300384 36479272 
831.651 36663644 36851948 37051056 37272132 37523524 37805924 38111264 
835.026 38427240 38744788 39062204 39386680 39730236 40103864 40512036 
838.401 40952708 41420324 41912496 42433684 42996316 43615000 44301120 
841.776 45057896 45880176 46759000 47687448 48666068 49703700 50812756 
845.151 52001804 53270372 54604880 55981300 57365388 58716124 59988436 
848.525 61127304 62071308 62759100 63132928 63156992 62828972 62187756 
851.900 61309204 60293564 59253060 58282336 57451388 56800000 56338396 
855.275 56055940 55929440 55930796 56028308 56189716 56387252 56597900 
858.650 56807932 57015608 57228644 57461256 57728088 58042200 58412592 
862.025 58846320 59350556 59931984 60593188 61324772 62099404 62866732 
865.400 63552716 64075396 64353584 64321576 63946344 63230344 62212728 
868.774 60959092 59558128 58109804 56708320 55446360 54401468 53627760 
872.149 53161012 53014348 53185692 53665364 54444584 55522488 56908132 
875.524 58620092 60681692 63117100 65941104 69148656 72697208 76497888 
878.899 80393520 84151400 87499880 90132024 91766176 92215288 91411504 
882.274 89444544 86536496 83028344 79305264 75721704 72593688 70141784 
885.648 68492768 67703064 67765872 68632488 70216712 72405720 75051488 
889.023 77956464 80892128 83586736 85741488 87089016 87406016 86565008 
892.398 84562664 81523048 77682808 73331272 68794120 64364344 60256712 
895.773 56615528 53498028 50897348 48766632 47043448 45665388 44573276 
899.148 43716488 43048596 42524992 42109044 41771920 41495236 41270544 
902.523 41094260 40962248 40867224 40797520 40740996 40690124 40643912 
905.897 40607532 40588828 40593052 40619572 40662504 40713340 40766072 
909.272 40820160 40880440 40953768 41044692 41152724 41272768 41398240 
912.647 41524804 41653704 41790776 41943552 42116860 42310176 42518340 
916.022 42735052 42956224 43184028 43424392 43685524 43972332 44283836 
919.397 44613776 44953296 45296140 45640764 45991516 46354940 46738116 
922.771 47145520 47580224 48047116 48555080 49118176 49751332 50462516 
926.146 51244212 52066796 52883008 53628848 54238808 54663424 54875376 
929.521 54879100 54707580 54418780 54082284 53766416 53536296 53441444 
932.896 53514632 53773580 54219812 54842708 55620020 56522604 57513036 
936.271 58544712 59567852 60528816 61377664 62080636 62625616 63030316 
939.646 63338668 63619384 63950872 64402348 65029876 65863596 66907704 
943.020 68144928 69541560 71053672 72623456 74184672 75662264 76969688 
946.395 78024976 78755840 79109632 79065624 78635344 77862464 76810768 
949.770 75559416 74193600 72790680 71424864 70158880 69038792 68096632 
953.145 67346136 66784964 66399560 66171332 66082672 66119356 66271716 
956.520 66532156 66891552 67338704 67861120 68447152 69090304 69790128 
959.894 70551568 71381512 72285832 73267808 74328208 75469440 76699544 
963.269 78033272 79494544 81111136 82908336 84905752 87111856 89523528 
966.644 92128184 94909024 97852368 100952320 104217184 107669616 111343456 
970.019 115270544 119466136 123906272 128515648 133151456 137601056 
972.912 141622224 144952304 147361920 148711792 148972304 148249904 
975.804 146758928 144812656 142759648 140917696 139566816 138888944 
978.697 138954512 139717760 141019008 142606480 144142160 145275184 
981.590 145676128 145076528 143334880 140441872 136525968 131810248 
984.482 126585480 121161672 115804376 110740672 106133072 102072120 98597456 
987.857 95700608 93342048 91461352 89991968 88871984 88043600 87459832 
991.232 87082664 86877824 86816760 86874752 87030152 87267008 87573728 
994.607 87942160 88365808 88837920 89350232 89895088 90465448 91057280 
997.982 91670536 92307488 92971392 93664064 94384896 95130800 95898656 
1001.356 96685880 97491952 98318584 99167704 100041008 100938776 101860768 
1004.731 102807688 103782424 104790616 105839104 106933960 108078536 
1007.624 109271904 110509624 111785424 113093704 114430776 115795160 
1010.517 117186320 118603464 120044200 121505128 122983160 124478368 
1013.409 125994520 127540336 129126904 130766320 132469104 134243216 
1016.302 136094144 138026192 140043536 142151184 144354320 146657264 
1019.195 149062432 151568672 154170208 156853680 159594288 162354144 
1022.087 165073248 167669648 170048080 172097728 173715600 174827088 
1024.980 175396672 175444000 175040192 174304464 173374832 172387632 
1027.873 171465712 170690624 170100656 169685120 169386304 169100544 
1030.766 168681200 167964816 166770928 164927120 162303920 158819728 
1033.659 154466144 149308992 143489696 137207888 130689040 124183408 
1036.552 117921272 112086672 106818984 102188064 98204080 94830696 92003424 
1039.928 89647504 87687976 86062888 84720024 83614488 82709704 81972168 
1043.303 81373080 80890928 80509088 80215728 80001720 79857576 79772760 
1046.678 79738520 79748152 79800232 79897752 80045736 80246856 80497008 
1050.053 80782328 81080384 81362776 81597328 81755608 81814608 81759048 
1053.429 81584456 81297480 80918312 80476704 80013592 79574648 79200912 
1056.804 78927592 78776968 78757864 78868864 79101360 79442824 79875488 
1060.179 80375224 80908896 81429472 81881384 82205976 82346576 82262712 
1063.554 81935072 81368328 80589016 79641192 78581024 77464576 76347992 
1066.930 75281672 74303240 73439912 72705320 72101000 71620504 71254024 
1070.305 70993656 70835072 70777352 70821224 70964664 71201872 71523216 
1073.680 71917024 72373192 72884608 73447216 74058120 74713784 75408336 
1077.055 76135480 76891248 77677616 78503600 79386568 80348552 81411288 
1080.431 82595768 83920448 85401176 87056544 88908256 90980584 93301464 
1083.806 95897376 98790296 101996312 105520616 109354328 113467368 117807608 
1087.181 122295808 126823024 131270784 135513936 139438384 142962592 
1090.074 146035536 148636800 150762768 152408320 153552240 154155520 
1092.967 154169520 153563424 152352128 150623392 148542656 146331760 
1095.860 144262656 142596224 141548688 141276496 141838976 143196864 
1098.753 145202000 147622320 150143760 152389504 153992720 154604800 
1101.646 153952384 151890976 148406800 143625728 137771808 131149712 
1104.540 124089872 116895448 109849104 103173264 97019536 91486712 86611808 
1107.915 82385624 78767120 75697720 73112352 70943472 69129736 67612488 
1111.290 66334592 65246144 64301020 63460364 62696620 61990244 61329196 
1114.665 60707184 60120308 59566756 59047080 58564728 58125944 57737968 
1118.041 57407628 57138420 56929324 56775756 56672188 56613940 56599108 
1121.416 56628060 56702320 56822360 56986556 57191712 57434784 57714732 
1124.791 58033300 58395196 58804776 59265932 59780280 60347924 60969120 
1128.166 61646000 62382804 63185192 64057536 65000168 66007792 67069456 
1131.542 68169968 69290104 70409592 71507048 72559040 73543320 74439328 
1134.917 75231592 75915736 76500184 77009720 77480016 77957488 78491968 
1138.292 79127792 79904968 80855120 81999744 83353032 84920696 86700272 
1141.667 88679712 90838712 93150256 95577872 98079888 100608440 103103312 
1145.042 105496992 107710000 109649200 111221360 112333192 112901584 
1147.936 112869272 112205672 110912328 109019064 106580912 103670600 
1150.829 100367824 96762880 92948448 89011464 85038152 81102744 77264192 
1154.204 73572440 70064456 66768616 63709080 60902860 58360364 56084328 
1157.579 54069040 52302380 50767688 49447316 48322668 47373128 46577412 
1160.954 45909752 45342444 44849576 44408088 44001592 43621228 43263412 
1164.330 42927472 42613468 42320400 42047496 41795632 41568556 41372252 
1167.705 41214072 41099832 41031764 41008932 41028232 41087228 41185580 
1171.080 41325604 41510476 41742660 42022348 42346956 42713592 43120680 
1174.455 43569828 44065688 44614764 45222228 45891520 46623336 47417472 
1177.831 48274268 49195688 50184188 51240556 52359940 53530824 54733436 
1181.206 55945116 57142464 58305828 59423652 60491832 61513852 62499448 
1184.581 63464240 64429292 65418452 66459252 67577184 68789688 70101944 
1187.956 71501656 72959312 74426864 75846128 77155776 78293320 79207080 
1191.332 79857776 80219120 80279936 80041152 79513480 78712784 77658480 
1194.707 76371344 74871216 73182272 71336992 69377288 67361920 65361412 
1198.082 63445448 61679416 60106836 58742596 57574280 56567928 55681524 
1201.457 54873464 54115048 53392692 52706064 52063920 51478936 50963780 
1204.833 50528732 50181620 49927076 49766008 49695524 49708344 49795772 
1208.208 49948452 50159976 50428240 50754764 51142812 51594852 52111400 
1211.583 52690652 53330500 54030912 54795344 55630448 56544908 57545796 
1214.958 58637648 59822524 61101064 62475188 63950376 65535420 67242488 
1218.333 69085096 71076032 73228352 75555824 78073320 80799048 83752904 
1221.709 86952824 90413104 94138880 98123960 102345896 106765512 111325688 
1225.084 115941312 120504656 124880608 128897384 132369328 135097888 
1227.977 136887472 137586736 137099920 135411360 132588912 128781568 
1230.870 124202640 119087976 113697536 108282096 103051848 98189168 93824704 
1234.245 90034288 86853904 84281328 82290096 80837168 79872112 79341624 
1237.621 79187120 79353000 79785424 80433032 81253928 82211176 83270704 
1240.996 84400384 85562384 86711480 87799048 88772472 89583680 90198000 
1244.371 90595728 90776440 90756384 90567648 90252896 89860208 89445240 
1247.746 89062792 88762472 88585560 88556064 88678416 88937256 89303264 
1251.122 89738384 90202856 90665168 91102840 91505248 91873552 92220000 
1254.497 92567336 92945616 93392784 93948912 94648344 95517056 96564232 
1257.872 97780736 99137144 100586768 102070112 103512160 104831944 105944088 
1261.247 106758096 107192160 107176216 106658208 105614960 104051304 
1264.140 102001128 99517560 96669944 93537672 90199712 86742184 83253408 
1267.516 79814488 76504648 73389144 70513296 67908384 65590516 63565604 
1270.891 61834612 60394264 59236536 58346568 57703492 57282208 57055512 
1274.266 57000840 57101120 57344556 57723512 58230768 58857400 59594080 
1277.641 60431392 61363240 62388692 63511252 64737752 66074876 67529536 
1281.017 69107784 70817288 72668936 74677256 76857080 79220160 81767728 
1284.392 84486272 87341880 90284464 93247704 96152032 98918096 101466272 
1287.767 103722768 105628736 107136768 108213816 108842784 109016896 
1290.660 108737136 108006384 106825048 105189352 103096288 100550544 
1293.553 97576560 94224664 90580336 86754120 82872648 79076872 75497512 
1296.928 72254176 69454416 67178320 65482056 64393088 63906380 63986772 
1300.304 64571516 65585240 66939400 68541968 70308448 72151232 73984928 
1303.679 75729240 77300728 78623704 79636416 80290232 80556192 80424104 
1307.054 79899584 79004016 77777600 76290440 74640432 72959000 71404784 
1310.429 70126088 69244440 68819160 68825016 69145744 69587216 69931392 
1313.805 69960200 69517216 68540912 67064240 65202176 63109896 60961840 
1317.180 58905324 57041036 55425692 54070280 52957752 52058132 51343584 
1320.555 50793052 50392368 50131824 50001984 49991164 50087424 50279004 
1323.930 50556684 50914000 51345184 51842652 52396500 52992416 53614640 
1327.306 54248644 54881468 55503924 56109892 56694012 57252192 57780544 
1330.681 58277372 58743812 59185616 59612248 60034660 60463116 60905260 
1334.056 61365068 61843816 62342256 62861600 63404760 63975328 64576320 
1337.431 65208988 65872304 66564752 67285624 68037376 68824512 69654272 
1340.807 70532936 71463920 72447840 73482688 74566616 75699408 76884368 
1344.182 78127936 79439200 80826472 82296384 83852240 85494400 87221240 
1347.557 89030376 90920776 92891488 94941432 97067592 99263384 101518304 
1350.932 103821184 106161632 108535360 110946640 113409712 115945944 
1353.825 118580784 121342536 124257064 127348824 130639616 134142848 
1356.719 137857136 141754288 145776400 149826960 153777808 157499856 
1359.612 160871904 163812992 166297072 168351856 170046560 171463168 
1362.505 172688192 173789072 174810032 175780256 176714720 177618288 
1365.398 178488592 179317600 180097456 180828832 181531136 182248448 
1368.291 183050048 184011152 185203056 186678864 188465376 190571456 
1371.184 192997280 195745808 198823072 202233696 205970736 210004576 
1374.077 214285664 218760592 223393184 228181280 233152416 238343600 
1376.970 243763264 249360336 254994000 260452896 265469216 269740768 
1379.863 272987200 274941056 275356864 274050880 270923264 266021408 
1382.756 259552000 251865888 243361376 234352704 225032448 215432448 
1385.649 205481184 195093952 184270928 173145408 161964992 151015968 
1388.542 140541824 130712536 121616464 113298992 105797632 99133488 93316664 
1391.917 88332952 84132616 80642632 77778832 75471024 73658016 72285952 
1395.293 71300328 70627112 70181344 69887064 69689400 69576720 69584144 
1398.668 69789112 70284608 71149592 72436408 74160032 76311456 78868544 
1402.043 81801448 85060688 88550864 92127904 95578488 98633704 101029664 
1405.418 102532656 102991736 102365616 100712216 98172512 94929848 91205064 
1408.794 87225536 83200552 79333864 75788688 72675472 70056976 67944840 
1412.169 66319264 65148316 64404504 64068860 64124740 64550564 65310956 
1415.544 66356712 67641104 69126048 70794240 72652240 74717280 76998128 
1418.919 79473616 82091720 84785144 87498584 90208440 92920168 95650512 
1422.295 98400240 101136920 103787184 106233224 108348008 110021736 
1425.188 111177784 111778952 111805448 111235056 110040608 108200904 
1428.081 105728520 102687128 99202712 95444896 91583016 87774184 84142712 
1431.456 80778176 77753064 75117112 72892136 71073416 69626000 68498480 
1434.831 67636536 67006624 66607864 66469140 66626556 67092388 67837832 
1438.207 68801296 69908232 71089376 72295024 73486960 74636344 75722136 
1441.582 76723784 77624640 78413888 79087680 79649432 80106616 80467056 
1444.957 80733560 80902824 80968336 80928456 80795416 80603496 80403208 
1448.332 80249448 80185440 80226888 80365208 80577848 80846744 81168688 
1451.708 81558632 82040648 82635040 83343600 84147416 85007088 85872984 
1455.083 86699864 87449584 88101920 88655088 89123208 89520600 89852752 
1458.458 90118120 90315584 90452800 90549320 90631696 90726904 90856400 
1461.833 91030472 91251056 91516328 91827128 92191888 92627912 93155224 
1465.208 93795672 94569200 95494104 96593704 97893840 99418072 101180720 
1468.584 103180832 105403776 107816112 110377256 113039328 115732696 
1471.477 118365200 120814024 122934872 124595072 125698880 126195400 
1474.370 126071272 125333072 124003904 122130648 119792792 117099408 
1477.263 114163064 111084024 107924384 104705632 101427896 98088904 94700504 
1480.638 91301176 87946992 84696184 81598808 78682280 75954216 73408920 
1484.013 71033528 68813840 66736660 64791136 62971784 61280852 59728684 
1487.389 58331940 57107884 56068152 55216292 54549236 54063936 53760452 
1490.764 53642228 53709832 53954672 54353964 54874964 55477644 56125876 
1494.139 56792640 57460840 58125260 58785580 59437364 60064180 60636084 
1497.514 61115140 61468768 61677352 61740484 61676668 61520688 61318244 
1500.890 61115140 60956844 60879148 60903240 61035696 61265288 61565812 
1504.265 61893564 62198196 62433524 62575824 62643112 62694556 62806844 
1507.640 63026144 63355000 63761116 64202248 64640224 65049888 65421456 
1511.015 65755912 66062836 66355780 66649080 66953240 67273168 67606456 
1514.391 67944256 68275856 68591792 68892576 69192712 69521264 69909872 
1517.766 70380016 70932240 71544432 72176264 72780616 73322720 73795328 
1521.141 74230472 74684416 75214888 75848376 76570008 77336712 78096360 
1524.516 78809272 79452248 80025944 80548568 81048120 81549312 82067936 
1527.892 82615000 83201192 83841312 84553648 85352536 86240864 87205696 
1531.267 88224664 89273352 90339696 91435712 92599240 93883024 95323264 
1534.642 96930768 98685648 100555640 102505760 104511200 106566464 108673424 
1538.017 110847576 113115368 115511432 118068264 120801688 123717720 
1540.910 126798080 130017456 133361936 136825216 140410960 144119264 
1543.803 147934672 151811920 155673824 159431536 162995968 166294112 
1546.697 169273744 171875344 174020448 175619120 176577872 176852816 
1549.590 176481200 175587600 174329424 172826928 171126096 169194096 
1552.483 166968464 164426272 161636768 158771072 156057744 153673248 
1555.376 151683584 150013200 148479456 146827408 144790912 142185168 
1558.269 138995072 135460336 131999072 128996584 126611784 124780912 
1561.162 123324448 122053536 120811360 119466176 117918528 116105952 
1564.055 114020184 111715960 109297896 106887976 104565024 102339608 
1566.948 100146976 97876736 95410432 92674296 89681712 86543136 83433648 
1570.323 80519096 77905192 75614264 73608120 71822640 70193928 68667616 
1573.698 67199936 65756484 64320156 62909016 61593648 60494112 59749860 
1577.074 59462936 59672496 60363920 61496444 63034000 64959988 67281984 
1580.449 70021200 73199528 76825920 80881232 85307696 90010280 94837128 
1583.824 99586440 104026928 107893080 110938080 112968240 113852888 
1586.717 113553040 112121800 109714752 106571680 103002368 99367048 95995520 
1590.093 93171976 91109056 89925744 89673896 90347576 91903272 94267392 
1593.468 97345856 101036984 105218280 109755152 114513232 119350672 
1596.361 124141032 128782448 133185176 137268192 140943216 144095904 
1599.254 146600656 148336896 149212176 149190960 148298352 146615632 
1602.147 144254896 141353472 138065952 134544464 130945176 127407416 
1605.040 124029520 120871272 117947440 115240720 112720240 110358064 
1607.933 108140464 106064920 104134344 102347160 100692912 99156464 97726168 
1611.308 96400704 95190656 94110696 93168568 92352528 91627040 90933312 
1614.684 90205544 89386704 88458000 87458616 86486880 85665608 85087368 
1618.059 84788888 84746680 84904144 85194432 85562104 85972120 86407712 
1621.434 86872928 87387584 87983872 88696664 89555456 90579856 91773096 
1624.809 93125912 94618024 96223856 97910856 99642208 101384128 103107008 
1628.185 104792680 106437152 108048616 109642328 111233472 112835712 
1631.078 114459928 116117424 117819688 119582664 121428208 123383736 
1633.971 125487032 127786264 130342232 133205984 136408656 139957056 
1636.864 143823024 147976240 152397104 157083200 162047504 167310592 
1639.757 172896496 178815024 185057472 191599520 198393456 205379200 
1642.650 212499344 219684592 226876224 234038400 241156256 248253904 
1645.543 255380368 262596160 269909024 277254272 284509376 291527584 
1648.436 298194816 304441600 310235456 315499680 320036064 323486304 
1651.329 325225248 324452512 320526976 313505856 304453408 294901696 
1654.222 285970464 277917280 270422432 262972944 255168416 246810080 
1657.115 237900256 228578000 219040480 209483648 200012960 190649472 
1660.008 181352768 172055520 162712448 153334288 144003664 134874800 
1662.901 126148536 118022832 110648792 104095224 98342640 93307096 88864552 
1666.277 84881576 81241312 77864640 74723224 71842776 69288432 67136440 
1669.652 65441332 64218232 63441076 63057640 63012736 63257368 63753320 
1673.027 64478220 65422184 66591912 68008576 69701536 71693936 73985864 
1676.402 76563448 79407728 82511856 85888008 89560920 93553616 97860088 
1679.778 102440648 107231560 112159976 117193528 122360272 127751368 
1682.671 133501008 139730048 146457360 153506752 160536736 167164896 
1685.564 173103104 178197296 182374544 185595472 187802880 188941888 
1688.457 188982064 187920736 185794864 182678064 178692000 174007104 
1691.350 168828640 163382672 157836208 152249088 146551280 140549840 
1694.243 134017112 126841960 119191896 111552376 104555664 98654744 93962040 
1697.618 90258688 87169080 84291952 81344712 78266032 75240336 72598200 
1700.993 70588056 69225792 68314168 67584776 66781328 65719636 64281924 
1704.369 62403420 60077040 57350040 54321032 51115376 47865688 44691920 
1707.744 41678868 38878556 36305104 33939552 31746056 29692142 27764862 
1711.119 25976794 24356256 22925120 21683978 20601616 19626274 18701926 
1714.494 17795800 16908370 16067721 15307562 14643103 14056073 13509040 
1717.870 12970102 12439402 11951444 11552801 11273017 11107748 11022232 
1721.245 10965718 10895654 10790681 10659959 10533554 10445605 10412345 
1724.620 10423273 10447404 10452088 10421101 10360830 10294358 10246216 
1727.995 10227117 10227082 10221723 10187292 10117048 10026030 9944083 
1731.371 9895878 9887369 9895878 9878285 9789553 9615025 9385543 9166638 
1735.228 9015938 8951329 8952209 8977138 8987015 8957045 8886020 8790965 
1739.085 8698737 8627686 8578376 8534073 8474874 8390753 8287836 8183728 
1742.943 8096051 8031208 7980481 7923449 7840886 7726260 7588938 7450109 
1746.800 7329622 7236760 7163287 7089623 6994019 6866724 6715102 6560540 
1750.658 6425671 6322681 6248555 6190676 6138147 6089455 6053704 6043860 
1754.515 6066875 6117379 6176089 6217497 6223177 6191852 6142179 6100812 
1758.373 6090463 6116573 6167082 6217396 6244824 6238807 6206775 6169905 
1762.230 6150245 6159419 6193196 6237328 6277296 6307989 6334448 6367667 
1766.087 6416087 6479345 6546177 6600908 6631556 6639059 6636266 6641481 
1769.945 6666413 6708675 6750773 6768205 6744177 6680477 6599562 6531612 
1773.802 6499356 6505444 6535985 6569690 6590244 6594146 6590917 6595996 
1777.660 6620757 6664562 6714598 6751311 6760196 6740240 6705848 6679670 
1781.517 6678425 6705983 6750167 6791226 6810848 6803140 6776754 6749730 
1785.375 6740038 6754744 6789072 6831077 6870190 6904460 6940820 6990516 
1789.232 7060357 7146849 7234099 7299160 7325106 7308258 7263444 7215367 
1793.089 7186462 7184879 7202902 7223991 7234705 7231605 7222576 7220926 
1796.947 7237737 7274630 7322309 7365714 7391597 7396787 7389575 7385126 
1800.804 7395473 7423413 7459985 7491739 7508258 7508999 7503707 7507044 
1804.662 7530609 7575990 7635067 7693780 7741910 7776552 7804889 7838152 
1808.519 7885421 7947003 8014163 8073434 8116239 8143381 8166170 8199868 
1812.376 8255618 8334545 8427507 8520455 8602574 8672303 8737005 8809089 
1816.234 8897248 9001865 9112666 9215779 9299654 9362080 9409921 9454788 
1820.091 9505145 9561233 9614516 9652797 9667366 9656930 9628032 9590973 
1823.949 9553781 9517811 9478425 9429865 9371695 9311434 9261674 9232769 
1827.806 9227150 9235476 9240486 9224443 9179431 9113038 9045607 8998787 
1831.664 8984580 9000174 9031026 9059241 9072470 9070136 9062150 9063267 
1835.521 9083364 9122411 9169482 9211040 9237236 9249422 9258628 9280155 
1839.378 9324671 9392518 9473412 9552325 9616854 9661471 9689015 9706973 
1843.236 9722017 9734928 9741602 9737672 9725067 9713377 9716765 9745703 
1847.093 9802025 9876590 9954253 10019927 10066383 10097718 10126884 
1850.469 10167822 10227253 10301348 10378204 10445266 10496452 10536542 
1853.844 10578028 10634594 10711951 10804234 10896163 10970951 11018902 
1857.219 11040925 11047926 11052786 11063458 11077972 11086605 11078448 
1860.594 11050441 11009623 10971868 10953179 10962999 10998715 11049218 
1863.969 11100747 11145074 11183967 11226568 11282165 11353924 11433893 
1867.345 11506084 11555252 11574715 11572402 11567127 11580433 11623073 
1870.720 11692132 11773593 11851085 11913947 11961014 11998958 12036326 
1874.095 12076831 12115160 12140612 12142724 12119045 12077922 12035441 
1877.470 12006486 11998788 12008257 12022018 12026515 12016228 11996335 
1880.846 11981587 11987036 12020384 12077683 12146541 12212649 12268133 
1884.221 12316023 12367293 12434356 12522368 12625542 12729322 12819031 
1887.596 12885242 12930538 12966449 13008236 13065325 13137959 13217711 
1890.971 13294573 13363931 13429063 13498717 13582055 13680149 13786403 
1894.347 13887655 13971514 14034033 14081605 14128497 14188369 14268142 
1897.722 14364677 14468976 14571381 14668840 14766836 14876272 15005765 
1901.097 15155815 15316453 15471657 15607990 15720215 15813671 15900860 
1904.472 15993116 16093303 16192859 16275683 16327664 16342424 16326014 
1907.848 16292816 16259380 16235542 16222093 16212119 16198637 16180925 
1911.223 16167236 16169850 16199565 16259070 16341152 16433641 16524911 
1914.598 16610932 16696282 16790294 16898966 17019724 17140138 17244004 
1917.973 17320236 17370274 17407520 17452118 17519900 17612918 17721002 
1921.349 17826626 17914668 17980520 18032706 18086486 18156268 18245310 
1924.724 18344046 18435166 18504762 18549264 18578726 18611996 18665812 
1928.099 18747002 18849072 18955906 19051654 19129868 19196390 19265970 
1931.474 19352570 19461678 19586654 19713746 19828666 19925856 20010784 
1934.850 20095556 20190306 20296048 20401954 20492396 20555408 20590392 
1938.225 20609328 20631496 20672394 20734252 20804844 20861786 20885842 
1941.600 20870302 20825944 20775508 20742838 20740960 20766402 20803906 
1944.975 20836894 20857300 20869120 20885286 20917724 20970230 21034946 
1948.351 21098074 21146286 21177736 21201010 21233020 21286712 21364354 
1951.726 21454752 21542102 21612478 21664474 21709544 21766326 21848584 
1955.101 21957866 22079066 22189174 22269106 22311972 22327494 22335866 
1958.476 22357774 22401486 22461704 22523018 22571946 22607198 22641196 
1961.852 22693316 22779172 22901962 23048966 23201366 23342072 23466176 
1965.227 23582722 23706930 23848186 24002862 24153320 24276780 24357098 
1968.602 24395088 24407004 24418010 24447208 24496600 24551922 24590562 
1971.977 24593366 24556026 24491410 24420394 24361932 24323350 24297488 
1975.353 24273486 24245912 24222822 24224154 24269070 24362704 24488642 
1978.728 24616756 24711480 24752064 24740872 24699028 24655576 24632572 
1982.103 24634884 24650560 24661048 24651156 24619000 24578080 24546944 
1985.478 24539440 24557076 24589686 24622612 24647334 24667570 24697416 
1988.854 24752870 24840538 24951662 25063592 25150374 25195070 25197878 
1992.229 25176636 25154446 25150830 25170842 25204410 25235206 25251710 
1995.604 25253538 25252658 25264950 25300000 25354970 25416902 25468582 
1998.979 25499642 25513662 25525644 25553618 25608268 25685210 25766174 
2002.354 25830660 25865756 25874056 25873668 25888616 25935076 26012746 
2005.730 26103976 26182660 26229152 26238022 26220388 26195506 26179880 
2009.105 26175796 26173862 26159116 26122556 26069318 26017882 25988226 
2012.480 25995016 26036774 26098944 26159890 26205746 26234818 26258508 
2015.855 26292934 26345422 26410876 26473312 26513742 26522792 26507684 
2019.231 26488348 26488560 26522688 26587112 26663804 26728884 26766024 
2022.606 26774870 26770006 26772932 26800316 26855298 26925482 26992116 
2025.981 27041764 27069902 27084184 27096848 27115398 27137722 27154194 
2029.356 27153314 27131834 27099244 27073430 27071914 27102136 27156558 
2032.732 27215924 27259388 27273606 27259388 27229012 27198004 27174018 
2036.107 27154300 27126718 27079530 27009250 26924212 26839544 26771734 
2039.482 26726556 26698686 26673458 26637628 26585738 26525504 26471446 
2042.857 26437250 26426934 26432250 26437250 26425314 26391018 26341234 
2046.233 26292124 26259386 26249954 26257522 26267238 26262802 26234818 
2049.608 26187024 26131176 26081000 26044408 26021892 26006520 25992764 
2052.983 25979890 25973206 25981964 26012850 26064076 26126354 26184666 
2056.358 26226514 26248862 26258718 26267836 26288110 26323560 26368730 
2059.734 26411440 26440806 26452324 26451372 26449612 26456724 26476764 
2063.109 26504302 26528042 26536846 26527442 26504866 26481376 26469578 
2066.484 26474510 26493068 26515222 26530190 26531880 26522512 26508952 
2069.859 26499372 26496976 26497752 26493632 26477854 26448730 26411828 
2073.235 26377426 26354788 26347534 26351900 26359012 26360174 26352782 
2076.610 26339650 26328172 26324652 26329722 26337748 26339156 26325074 
2079.985 26292864 26246576 26195188 26146906 26105418 26068368 26029808 
2083.360 25984462 25932158 25877538 25829078 25792756 25769444 25752884 
2086.736 25734320 25706266 25667352 25622818 25581416 25551158 25534570 
2090.111 25527368 25520760 25507478 25484744 25456390 25430358 25414162 
2093.486 25410964 25417956 25428388 25435310 25436926 25435592 25436680 
2096.861 25444444 25458148 25471710 25477858 25471112 25451576 25425228 
2100.237 25401058 25385004 25377978 25374008 25364208 25342114 25306744 
2103.612 25262562 25218034 25180462 25151462 25127762 25103294 25073842 
2106.987 25040354 25009010 24987144 24979704 24985460 24997288 25005254 
2110.362 25002762 24989216 24970648 24955980 24951630 24958542 24970930 
2113.738 24979670 24977458 24963070 24941206 24920746 24909062 24908256 
2117.113 24914290 24920432 24919658 24909904 24894186 24878114 24866466 
2120.488 24859624 24853378 24841484 24820680 24792158 24762902 24741890 
2123.863 24735646 24744732 24763464 24782966 24796298 24802120 24805454 
2127.239 24813488 24832326 24862078 24896290 24925554 24941944 24943698 
2130.614 24936118 24929730 24934328 24956120 24995356 25048042 25110702 
2133.989 25181902 25264002 25359150 25466298 25577866 25680852 25762728 
2137.364 25815646 25840648 25846662 25846414 25850424 25861818 25877010 
2140.740 25888968 25894138 25894664 25898850 25917174 25955268 26010214 
2144.115 26073786 26133182 26180654 26216974 26250130 26289764 26342184 
2147.490 26404222 26464648 26510572 26534240 26536530 26528288 26523638 
2150.865 26531422 26550548 26571048 26579150 26565342 26530576 26484264 
2154.240 26442182 26416756 26410630 26418940 26434538 26454858 26487962 
2157.616 26549560 26653798 26804896 26988308 27175254 27333730 27443096 
2160.991 27498056 27510198 27498868 27478464 27454604 27424286 27380346 
2164.366 27320358 27250816 27184178 27133278 27103054 27086654 27068316 
2167.741 27032770 26970150 26883428 26786182 26695478 26623254 26571294 
2171.117 26531458 26491694 26444610 26390244 26338346 26301066 26286844 
2174.492 26294130 26313386 26329686 26332398 26318386 26292264 26261360 
2177.867 26231158 26200996 26164922 26117206 26057110 25991498 25933460 
2181.242 25896248 25884502 25892836 25907292 25912038 25895684 25858370 
2184.618 25808298 25757806 25715514 25683594 25656386 25627704 25593542 
2187.993 25557308 25526912 25510852 25512468 25527752 25546168 25556392 
2191.368 25552352 25535168 25511554 25489874 25474168 25460888 25442020 
2194.743 25409452 25359432 25297084 25233346 25179304 25141772 25120180 
2198.119 25106698 25093182 25074860 25052360 25031930 25020558 25019400 
2201.494 25023858 25024770 25014030 24988232 24952856 24918360 24896782 
2204.869 24894710 24910782 24936994 24964472 24987110 25005606 25026138 
2208.244 25054920 25094518 25141526 25186678 25220564 25238542 25242298 
2211.620 25240474 25242580 25255152 25277698 25305796 25330908 25347346 
2214.995 25355146 25357886 25361292 25368494 25378364 25386268 25387426 
2218.370 25379100 25363224 25344748 25328696 25316544 25305726 25290624 
2221.745 25265934 25230712 25188328 25145318 25107964 25078686 25054780 
2225.121 25030104 24998480 24957628 24909764 24861272 24817768 24782442 
2228.496 24754622 24730212 24705448 24679600 24655050 24635412 24622472 
2231.871 24613880 24602064 24579340 24539230 24481806 24413382 24343920 
2235.246 24283086 24235892 24201382 24173742 24146980 24117486 24085368 
2238.622 24054900 24030176 24012702 24001182 23992566 23983428 23974184 
2241.997 23967742 23967846 23976286 23991340 24006678 24015608 24013612 
2245.372 24000516 23981572 23964414 23954156 23951424 23951740 23948168 
2248.747 23934584 23910288 23879200 23849690 23829038 23820076 23820952 
2252.123 23826202 23829808 23829248 23826832 23827042 23835024 23852596 
2255.498 23876610 23900800 23919110 23927548 23926042 23918094 23907100 
2258.873 23894848 23880670 23861100 23832888 23795576 23750882 23702206 
2262.248 23653218 23605008 23556346 23505346 23451276 23395778 23343574 
2265.624 23299802 23267326 23245546 23229294 23212132 23188432 23155964 
2268.999 23117102 23076464 23039252 23007842 22981922 22958794 22935670 
2272.374 22911112 22885966 22862356 22841542 22823452 22805850 22786574 
2275.749 22765032 22742754 22723900 22712484 22710354 22715486 22722538 
2279.125 22724632 22715590 22693142 22658406 22615506 22569050 22522458 
2282.500 22477058 22432710 22388994 22345808 22304158 22264606 22226314 
2285.875 22187290 22144506 22095068 22038872 21978466 21917648 21861022 
2289.250 21810850 21766570 21725706 21684918 21642740 21600010 21560070 
2292.625 21526260 21500356 21481140 21464848 21446432 21422654 21392442 
2296.001 21358298 21324086 21292836 21266214 21243876 21224042 21205568 
2299.376 21189112 21176344 21169768 21170604 21177840 21188800 21200280 
2302.751 21209848 21217606 21225818 21237370 21254384 21277036 21303276 
2306.126 21329968 21354782 21377056 21398184 21420288 21445282 21472992 
2309.502 21501994 21529742 21554430 21575912 21595900 21616134 21638388 
2312.877 21662560 21687184 21710172 21730130 21747340 21763888 21781864 
2316.252 21802382 21824890 21846666 21864508 21876424 21882070 21883672 
2319.627 21884020 21886008 21889630 21892768 21891618 21881686 21859280 
2323.003 21822626 21771308 21706480 21630308 21545724 21456980 21369608 
2326.378 21289704 21223208 21173874 21142008 21124232 21115118 21108266 
2329.753 21098770 21085414 21069518 21054354 21042736 21036338 21034530 
2333.128 21036094 21039956 21046008 21055152 21068510 21085518 21104474 
2336.504 21121868 21134250 21139816 21138600 21132510 21124058 21114944 
2339.879 21104890 21092022 21074282 21050320 21020548 20986086 20947556 
2343.254 20904164 20852434 20788298 20709196 20617078 20518448 20424910 
2346.629 20349520 20302888 20292126 20318720 20379312 20467352 20575386 
2350.005 20694774 20817114 20935978 21045032 21140408 21220946 21287512 
2353.380 21343052 21390736 21432926 21469650 21499138 21518218 21524450 
2356.755 21517556 21498966 21471948 21440130 21405042 21366930 21324224 
2360.130 21274844 21217712 21153696 21084856 21013558 20941784 20870338 
2363.506 20798830 20727476 20656828 20588240 20523414 20463392 20407510 
2366.881 20353618 20299034 20241854 20181454 20118912 20056238 19994894 
2370.256 19935534 19877674 19820168 19762880 19706464 19652622 19602980 
2373.631 19557850 19515948 19474534 19430838 19382920 19331196 19277782 
2377.007 19225412 19176512 19131808 19090084 19049474 19008034 18965356 
2380.382 18922162 18880492 18841978 18807756 18777620 18750842 18726834 
2383.757 18706112 18689958 18680134 18677816 18683212 18694870 18710782 
2387.132 18728806 18748006 18768142 18789106 18810802 18831908 18850144 
2390.508 18863744 18871806 18875130 18876132 18877760 18881946 18889248 
2393.883 18898142 18905826 18910324 18910532 18907694 18903854 18901222 
2397.258 18900530 18901188 18901466 18899630 18894682 18887724 18880424 
2400.633 18874678 18871980 18872290 18874678 18878208 18882222 18886272 
2404.009 18891084 18896654 18902468 18907486 18910636 18911502 18910774 
2407.384 18910046 18910636 18913612 18918250 18922888 18925828 18926002 
2410.759 18924376 18922818 18923994 18929774 18940436 18955008 18971378 
2414.134 18987508 19002358 19015410 19026764 19036388 19043276 19046496 
2417.510 19045008 19039538 19032130 19025794 19023198 19025586 19032406 
2420.885 19040958 19047638 19050720 19049368 19044626 19038430 19032406 
2424.260 19026728 19020672 19013228 19003950 18993428 18983632 18976224 
2427.635 18972104 18970374 18968816 18965182 18958468 18949124 18939396 
2431.010 18931782 18927664 18926452 18926072 18923614 18917072 18906206 
2434.386 18892362 18877862 18864538 18852186 18839348 18824018 18804020 
2437.761 18778900 18750048 18719118 18688160 18658204 18629012 18599856 
2441.136 18570738 18542452 18516482 18495080 18478864 18467248 18458536 
2444.511 18450168 18440594 18429358 18417432 18406126 18396518 18387978 
2447.887 18379510 18369726 18358114 18345186 18332812 18323032 18317054 
2451.262 18314564 18313736 18312388 18308516 18301536 18291548 18279868 
2454.637 18267530 18255020 18242198 18229138 18216318 18204916 18196174 
2458.012 18191128 18189816 18191234 18194100 18197902 18203118 18211654 
2461.388 18225612 18246518 18273610 18304506 18335508 18363298 18386388 
2464.763 18405298 18422548 18441180 18463410 18489582 18518488 18548192 
2468.138 18576930 18603558 18628008 18650144 18669202 18684250 18694212 
2471.513 18698640 18698814 18697326 18696946 18699782 18705836 18713030 
2474.889 18718600 18719844 18716178 18709432 18703240 18700820 18704314 
2478.264 18713306 18725034 18736518 18745412 18750670 18753470 18755754 
2481.639 18758660 18762916 18768002 18773504 18779246 18786512 18796822 
2485.014 18811838 18831666 18854920 18879108 18902122 18922610 18940816 
2488.390 18958780 18977850 18998758 19020532 19040646 19056640 19067060 
2491.765 19072220 19073812 19074088 19074780 19076340 19078312 19079698 
2495.140 19080114 19080252 19081220 19084234 19089532 19096422 19102860 
2498.515 19107812 19110374 19111170 19112036 19114390 19118650 19124120 
2501.891 19128862 19131356 19131184 19129244 19127306 19127444 19130596 
2505.266 19136308 19143060 19148878 19152480 19153692 19153450 19152688 
2508.641 19151544 19149640 19145554 19137728 19125886 19110408 19092958 
2512.016 19075232 19058440 19043034 19029188 19017174 19007066 18999900 
2515.392 18996024 18994674 18994224 18991940 18985052 18972070 18953380 
2518.767 18930846 18907556 18886168 18867826 18852532 18839452 18827618 
2522.142 18817030 18808310 18802358 18798830 18795716 18789800 18777898 
2525.517 18757484 18728252 18692656 18654054 18615906 18580386 18547882 
2528.893 18517486 18487438 18457118 18426522 18396620 18368344 18341454 
2532.268 18315014 18287816 18258924 18228618 18198938 18172022 18149634 
2535.643 18132190 18118334 18105484 18091668 18075260 18056400 18036194 
2539.018 18015678 17995440 17974926 17952652 17927650 17899752 17869540 
2542.394 17838952 17809712 17783234 17760488 17741952 17727836 17718896 
2545.769 17715756 17717894 17724004 17731322 17736636 17737084 17731632 
2549.144 17721726 17710370 17701294 17697324 17699498 17706574 17716204 
2552.519 17726248 17735430 17744644 17754998 17768252 17785478 17806156 
2555.895 17829112 17853140 17876964 17900166 17922644 17944226 17964462 
2559.270 17982766 17999204 18014850 18031220 18050908 18075018 18103826 
2562.645 18135746 18167600 18196796 18221432 18241440 18258612 18274924 
2566.020 18291928 18309864 18328216 18345532 18361812 18377886 18396066 
2569.396 18418468 18446506 18479486 18515516 18551718 18585332 18615040 
2572.771 18640840 18663152 18682626 18699332 18712650 18722060 18727768 
2576.146 18731054 18734028 18738802 18746414 18756412 18767104 18776514 
2579.521 18782914 18786202 18786892 18786028 18784470 18781598 18776410 
2582.896 18768142 18756480 18742954 18729948 18719706 18713964 18712788 
2586.272 18715072 18719084 18723754 18728978 18735758 18745272 18757900 
2589.647 18772604 18787966 18801702 18812878 18822082 18830904 18841286 
2593.022 18854642 18870872 18888764 18906412 18922300 18936074 18948568 
2596.397 18960960 18973766 18986436 18997408 19004712 19007030 19004574 
2599.773 18998550 18990970 18983562 18976882 18970616 18963728 18955040 
2603.148 18944796 18933652 18922542 18912124 18902018 18891428 18878692 
2606.523 18863122 18844988 18825472 18806198 18788760 18773400 18759906 
2609.898 18747452 18735274 18723408 18712754 18704002 18697706 18693520 
2613.274 18690096 18686016 18679926 18671660 18661282 18649730 18637452 
2616.649 18624448 18610372 18594532 18577172 18558980 18541068 18524920 
2620.024 18511470 18500476 18490932 18481458 18470844 18458778 18445536 
2623.399 18431640 18417776 18404398 18391124 18377816 18364508 18351374 
2626.775 18338860 18327318 18316224 18304748 18291962 18277136 18260616 
2630.150 18243478 18227478 18214244 18204674 18198524 18194550 18191888 
2633.525 18189298 18186982 18185600 18185810 18188642 18193998 18201462 
2636.900 18210444 18220914 18232938 18246968 18263174 18281456 18300878 
2640.276 18320232 18338238 18354380 18368724 18382102 18395686 18410170 
2643.651 18425970 18442770 18460402 18478864 18498262 18518766 18540482 
2647.026 18562820 18584572 18604596 18621680 18635446 18646410 18655126 
2650.401 18662354 18668858 18674288 18677956 18679684 18678750 18675430 
2653.777 18670312 18663980 18656752 18648796 18640150 18631052 18622372 
2657.152 18615074 18610510 18609264 18611512 18616492 18623548 18632160 
2660.527 18642466 18655230 18671660 18692482 18717838 18747070 18778556 
2663.902 18810766 18842564 18873226 18902710 18931124 18958572 18984532 
2667.278 19008764 19030918 19051134 19069624 19087004 19102998 19117228 
2670.653 19128240 19135062 19136758 19133988 19127930 19121004 19115048 
2674.028 19112104 19112660 19116572 19123324 19132396 19143304 19155908 
2677.403 19170278 19186104 19203350 19221464 19240374 19260844 19283740 
2680.779 19309544 19338714 19370622 19404020 19437006 19468368 19497408 
2684.154 19524370 19550294 19576256 19603084 19630920 19659554 19688504 
2687.529 19717872 19748004 19779664 19813614 19850066 19889086 19930262 
2690.904 19973522 20018834 20067204 20119918 20178194 20242688 20313790 
2694.280 20391050 20473882 20561662 20653700 20749580 20848750 20950894 
2697.655 21055466 21162360 21271608 21383740 21498894 21617004 21736576 
2701.030 21855274 21969926 22076974 22173970 22259444 22333214 22396182 
2704.405 22449040 22492484 22526542 22550552 22563848 22566292 22558474 
2707.781 22541582 22517224 22487494 22453890 22418198 22382018 22346750 
2711.156 22313924 22284626 22259164 22237228 22218152 22200890 22185442 
2714.531 22172192 22161940 22156118 22155734 22161312 22172644 22189418 
2717.906 22211212 22237716 22268758 22303774 22341762 22381286 22420428 
2721.281 22457658 22492238 22524378 22555472 22586744 22618716 22651110 
2724.657 22682146 22709166 22730184 22743732 22750296 22751098 22748516 
2728.032 22744710 22741112 22738844 22737900 22738458 22740346 22743208 
2731.407 22746978 22751170 22754870 22757594 22758780 22758292 22756756 
2734.782 22754624 22752950 22751866 22751692 22752216 22753230 22755078 
2738.158 22758326 22763878 22772434 22784514 22800298 22820062 22843810 
2741.533 22871924 22904686 22942550 22985694 23033346 23085024 23139574 
2744.908 23196296 23254846 23315046 23377070 23440958 23506502 23573592 
2748.283 23641848 23711760 23783606 23858580 23937596 24021632 24111216 
2751.659 24206638 24307756 24414786 24527556 24645686 24768936 24896116 
2755.034 25025786 25156588 25287672 25418622 25549964 25682820 25817792 
2758.409 25955548 26095672 26237176 26378834 26519096 26657392 26793162 
2761.784 26926608 27057596 27186470 27313158 27437590 27559762 27679922 
2765.160 27797888 27913484 28026144 28135190 28239878 28340136 28435890 
2768.535 28527770 28616344 28701750 28783422 28860786 28933350 29000682 
2771.910 29063454 29122906 29180380 29237082 29293262 29348774 29403122 
2775.285 29456308 29509500 29564366 29623780 29690224 29765056 29848524 
2778.661 29940064 30038656 30143344 30253776 30370526 30493740 30623566 
2782.036 30759620 30900840 31046304 31195770 31349454 31508464 31673842 
2785.411 31846308 32025084 32208606 32394242 32579422 32761504 32938798 
2788.786 33110120 33275072 33433680 33586224 33733700 33877360 34018952 
2792.162 34160236 34302600 34446732 34592744 34739988 34887896 35035924 
2795.537 35183788 35331268 35477796 35622532 35763904 35900536 36031020 
2798.912 36155560 36275060 36391384 36506628 36622292 36738460 36854512 
2802.287 36968356 37078088 37181960 37279028 37368864 37451856 37528364 
2805.663 37599136 37665004 37726840 37785356 37841456 37894748 37944536 
2809.038 37989920 38029372 38062216 38088980 38111188 38131664 38153368 
2812.413 38178548 38208468 38242804 38280912 38321336 38363100 38405848 
2815.788 38449252 38493564 38538132 38582204 38624828 38664592 38701104 
2819.164 38734320 38764280 38791524 38816088 38837536 38855000 38867468 
2822.539 38874136 38874680 38869136 38858444 38843624 38826232 38807792 
2825.914 38790180 38775036 38764028 38758120 38758300 38764784 38777972 
2829.289 38798008 38825544 38861452 38906964 38962924 39029872 39107708 
2832.665 39196616 39296460 39408268 39533708 39674764 39833800 40012700 
2836.040 40212132 40431876 40671312 40929188 41204704 41497896 41809308 
2839.415 42140184 42491592 42864824 43261144 43681348 44126020 44595672 
2842.790 45090316 45609588 46151964 46714868 47293832 47882228 48471864 
2846.166 49050840 49605076 50118660 50573024 50949952 51232392 51405456 
2849.541 51459240 51389004 51196416 50888260 50477144 49979640 49412972 
2852.916 48795512 48144796 47474200 46795088 46114896 45438232 44767400 
2856.291 44103868 43448456 42802036 42165708 41540336 40927004 40327008 
2859.667 39741636 39173840 38627000 38105472 37613844 37156328 36735068 
2863.042 36351324 36004412 35693072 35415812 35171752 34960144 34780660 
2866.417 34632644 34514604 34424388 34359400 34316796 34293740 34288220 
2869.792 34297864 34320312 34353484 34394184 34439344 34486080 34531716 
2873.167 34574300 34612908 34647648 34679080 34708728 34738664 34770500 
2876.543 34806108 34846532 34892456 34943516 34999072 35058300 35120232 
2879.918 35184360 35250084 35317216 35384936 35452772 35519612 35584520 
2883.293 35646776 35705952 35761532 35813560 35861812 35906436 35947868 
2886.668 35986416 36023100 36059024 36094960 36131720 36169172 36206948 
2890.044 36244084 36279632 36313136 36344512 36373984 36401796 36427884 
2893.419 36451776 36472572 36489472 36501760 36509328 36512572 36512388 
2896.794 36509580 36505688 36502084 36500536 36502948 36511092 36526124 
2900.169 36548540 36578172 36613820 36654668 36699984 36750072 36806220 
2903.545 36870416 36944368 37029876 37128284 37240764 37369516 37517524 
2906.920 37689076 37889900 38126200 38403820 38728340 39104588 39535744 
2910.295 40024104 40570096 41171300 41821860 42512348 43228640 43953524 
2913.670 44668784 45355064 45994428 46572356 47076460 47498080 47832140 
2917.046 48076836 48234056 48308484 48308260 48243240 48123916 47960924 
2920.421 47762712 47535896 47284780 47011616 46717008 46400324 46059852 
2923.796 45693328 45297796 44870408 44409188 43913416 43384300 42825184 
2927.171 42241004 41637948 41022732 40402968 39786336 39181384 38597156 
2930.547 38042500 37526156 37055496 36635700 36270268 35960568 35706524 
2933.922 35506956 35359736 35261296 35206604 35189464 35202004 35235712 
2937.297 35282896 35336768 35392156 35446012 35496384 35542480 35584052 
2940.672 35621096 35653716 35682172 35707388 35730448 35752864 35776608 
2944.048 35803628 35836516 35878080 35930844 35997828 36081564 36183832 
2947.423 36306256 36449940 36615120 36801456 37007000 37227764 37456624 
2950.798 37683724 37896992 38082724 38227972 38322420 38358576 38333024 
2954.173 38245628 38099504 37898580 37648060 37353808 37022264 36660648 
2957.549 36277436 35881248 35480924 35084740 34699180 34329348 33978820 
2960.924 33649376 33341754 33055480 32789410 32541494 32309358 32090686 
2964.299 31882998 31684608 31494286 31310920 31134184 30963638 30799312 
2967.674 30641238 30490078 30346788 30212002 30086452 29970170 29862862 
2971.050 29763708 29672132 29587846 29510812 29441558 29380858 29329240 
2974.425 29287554 29256612 29237756 29232582 29242754 29270116 29315698 
2977.800 29379544 29460386 29556386 29665356 29785212 29914684 30052860 
2981.175 30199462 30354180 30516168 30684228 30857010 31032282 31207484 
2984.551 31379656 31545162 31699720 31839286 31959922 32058864 32134924 
2987.926 32188516 32221132 32234836 32232016 32213818 32180846 32133140 
2991.301 32070458 31993124 31902112 31799532 31688492 31573132 31457630 
2994.676 31346642 31244548 31154332 31077872 31015982 30967588 30931758 
2998.052 30907138 30893510 30891270 30901764 30925958 30964456 31016732 
3001.427 31080970 31154474 31234968 31320180 31408720 31500128 31593766 
3004.802 31689168 31785664 31882818 31980678 32079768 32181236 32286584 
3008.177 32396458 32510604 32627392 32744922 32860630 32973110 33082012 
3011.552 33187900 33292204 33395928 33499994 33604340 33708884 33813240 
3014.928 33917912 34023540 34131376 34242184 34356316 34473456 34592852 
3018.303 34713504 34834904 34956948 35080104 35205092 35332636 35463200 
3021.678 35596820 35733220 35871996 36011940 36151924 36290656 36426660 
3025.053 36559176 36687584 36812604 36935240 37057012 37179036 37301628 
3028.429 37424336 37546568 37667064 37785392 37901904 38017692 38134340 
3031.804 38253264 38375440 38500876 38628880 38758736 38889496 39021172 
3035.179 39154192 39289316 39427748 39571236 39720724 39877892 40044124 
3038.554 40220348 40407148 40604836 40812368 41028596 41251888 41479996 
3041.930 41710928 41942052 42170600 42392508 42603164 42797612 42970820 
3045.305 43119252 43240868 43336628 43409712 43464896 43508552 43546536 
3048.680 43584044 43625000 43671568 43725172 43785968 43853736 43928116 
3052.055 44008520 44094188 44184048 44277120 44372160 44468208 44564424 
3055.431 44660484 44756192 44851852 44947384 45042752 45137776 45232192 
3058.806 45325492 45417596 45508428 45598144 45686736 45774168 45859776 
3062.181 45943080 46023344 46100528 46174996 46247784 46320216 46393432 
3065.556 46467768 46542740 46617064 46688892 46756712 46819700 46878168 
3068.932 46933536 46987472 47042116 47098652 47157708 47219024 47282012 
3072.307 47346004 47411112 47477528 47546580 47619672 47698392 47784048 
3075.682 47876900 47976544 48081500 48189108 48296744 48401668 48502056 
3079.057 48597064 48687492 48774792 48861212 48948472 49037268 49126932 
3082.433 49215024 49298268 49372804 49435064 49482704 49514788 49532428 
3085.808 49538072 49536032 49531164 49528080 49530868 49542120 49562436 
3089.183 49591072 49626284 49666288 49709832 49757164 49809224 49868236 
3092.558 49935848 50013136 50099804 50194528 50295372 50400408 50508296 
3095.934 50618740 50731748 50847696 50966124 51085668 51204320 51318968 
3099.309 51426680 51525196 51613364 51691472 51760712 51823612 51883272 
3102.684 51942496 52004080 52070568 52143604 52224612 52314336 52413096 
3106.059 52520960 52637608 52763264 52897640 53041752 53196776 53365604 
3109.435 53552076 53761916 54002324 54281416 54608412 54992920 55443988 
3112.810 55970220 56579176 57276616 58066776 58951700 59930536 60998672 
3116.185 62145972 63356340 64603388 65852180 67057124 68161320 69104992 
3119.560 69826624 70268480 70388704 70161640 69584224 68674680 67472368 
3122.936 66032292 64414492 62683760 60900764 59114844 57369436 55696968 
3126.311 54120640 52656796 51314532 50096644 49000580 48019356 47142972 
3129.686 46359988 45659352 45030768 44465604 43956492 43497492 43083248 
3133.061 42709060 42370920 42064796 41787128 41533956 41301224 41085044 
3136.437 40881204 40686340 40497344 40312244 40129520 39947888 39766692 
3139.812 39585716 39405000 39225916 39050060 38879752 38716676 38561596 
3143.187 38413340 38269656 38127468 37983664 37836324 37685024 37530676 
3146.562 37374856 37219068 37064264 36910816 36758400 36606608 36455524 
3149.938 36305284 36156172 36007400 35858540 35707568 35552984 35393740 
3153.313 35229708 35061892 34892060 34722116 34553776 34387840 34224580 
3156.688 34063568 33904624 33747020 33590876 33435826 33281368 33127248 
3160.063 32973040 32818318 32663506 32509104 32355546 32203290 32052230 
3163.438 31901862 31751584 31600892 31449578 31298100 31146856 30996588 
3166.814 30847938 30701296 30556692 30414164 30273280 30133898 29995518 
3170.189 29857610 29719566 29581248 29442904 29305136 29169396 29036992 
3173.564 28909124 28786148 28668054 28553602 28441690 28330586 28219406 
3176.939 28107440 27994054 27879354 27763626 27647046 27530108 27413874 
3180.315 27298798 27185412 27073818 26963556 26853888 26744000 26633258 
3183.690 26521630 26409610 26297722 26186320 26076002 25965996 25856226 
3187.065 25746696 25637052 25527788 25419324 25311662 25204796 25098028 
3190.440 24990900 24882956 24774444 24665676 24557112 24449206 24341186 
3193.816 24231934 24120604 24006012 23888440 23768662 23648356 23529062 
3197.191 23412424 23298718 23188188 23080622 22975562 22872974 22773060 
3200.566 22675826 22580916 22487666 22394822 22301472 22207062 22111384 
3203.941 22014924 21918484 21822450 21726892 21631596 21536078 21439990 
3207.317 21343506 21247078 21151678 21058110 20966924 20878542 20793408 
3210.692 20711420 20633164 20558674 20488400 20422098 20358964 20298098 
3214.067 20238350 20178088 20116378 20052318 19985110 19914200 19839418 
3217.442 19760522 19678276 19593516 19507976 19423666 19342630 19266420 
3220.818 19195904 19130906 19070246 19012050 18954036 18893816 18829694 
3224.193 18760980 18687916 18612100 18535916 18461646 18391574 18326870 
3227.568 18267460 18212552 18160968 18111322 18063584 18017682 17974130 
3230.943 17933418 17894780 17856696 17817202 17774052 17725452 17671062 
3234.319 17611708 17548948 17485300 17422524 17362204 17305272 17252244 
3237.694 17203222 17158580 17118220 17081790 17048912 17018072 16988024 
3241.069 16957050 16924010 16887906 16848708 16806826 16762983 16718389 
3244.444 16673833 16630005 16587041 16544633 16501954 16458005 16412064 
3247.820 16363377 16312012 16258691 16203830 16148632 16093647 16039837 
3251.195 15987307 15936948 15889449 15845666 15806112 15770447 15737325 
3254.570 15704310 15668651 15627947 15580961 15527868 15470386 15411161 
3257.945 15353077 15298055 15247262 15201038 15159142 15120922 15086100 
3261.321 15053958 15023875 14994275 14963442 14929148 14890296 14846716 
3264.696 14799952 14752747 14708838 14671720 14643856 14626139 14617092 
3268.071 14614454 14613768 14610479 14600164 14579159 14545889 14500356 
3271.446 14445408 14384645 14322829 14263828 14209868 14161222 14116311 
3274.822 14072432 14027634 13980890 13932747 13885465 13841644 13802855 
3278.197 13769884 13741805 13716704 13692116 13666300 13638126 13607731 
3281.572 13575595 13542504 13509450 13477218 13446356 13417376 13390448 
3284.947 13365299 13341585 13318660 13295734 13272811 13250641 13230452 
3288.323 13214192 13203023 13197353 13196157 13197251 13197421 13193971 
3291.698 13184715 13168731 13146190 13118254 13086017 13050506 13012162 
3295.073 12971126 12927431 12881215 12833091 12783745 12734269 12686230 
3298.448 12640893 12599993 12564999 12537407 12518650 12509749 12510909 
3301.823 12521617 12540272 12564282 12590102 12613364 12630249 12636560 
3305.199 12629636 12608112 12572025 12522709 12462247 12393578 12318716 
3308.574 12240390 12160613 12081533 12005532 11934449 11870461 11814754 
3311.949 11767261 11727022 11692472 11661567 11632739 11605377 11579446 
3315.324 11555592 11534734 11517551 11504384 11495605 11491114 11491149 
3318.700 11495878 11505166 11518232 11534121 11550760 11566719 11580909 
3322.075 11592990 11603369 11613375 11623720 11635019 11647169 11659082 
3325.450 11669633 11677904 11683486 11686515 11688047 11688966 11690565 
3328.825 11693493 11698293 11704965 11713338 11722631 11732162 11740672 
3332.201 11747481 11752349 11755549 11757797 11759975 11763175 11767124 
3335.576 11771243 11773593 11772129 11764605 11749353 11725558 11693153 
3338.951 11652649 11605104 11551951 11494619 11434607 11373617 11312465 
3342.326 11251799 11191208 11129742 11066280 10999972 10930718 10859980 
3345.702 10789323 10721597 10658397 10600911 10548729 10500084 10452631 
3349.077 10403521 10350514 10291847 10226675 10155171 10078251 9997650 
3352.452 9915573 9834900 9758106 9686881 9622443 9564383 9511749 9463118 
3356.310 9417099 9372880 9330256 9289465 9250809 9213950 9178348 9142883 
3360.167 9105898 9066414 9023820 8978660 8932117 8886223 8843849 8807229 
3364.024 8778658 8759319 8749209 8746505 8748094 8749852 8747249 8736363 
3367.882 8714626 8680922 8636068 8581148 8518867 8451528 8381565 8311680 
3371.739 8244542 8182782 8128999 8084607 8050109 8024120 8004375 7987466 
3375.597 7970693 7951593 7929220 7903844 7876480 7848172 7820205 7793351 
3379.454 7768018 7744373 7723022 7703932 7687069 7672331 7658605 7644981 
3383.312 7630144 7613081 7593591 7571978 7549220 7527542 7508865 7495448 
3387.169 7489144 7490762 7499898 7514798 7532430 7548613 7559840 7562706 
3391.026 7555659 7538667 7513146 7481660 7446738 7410740 7375352 7341315 
3394.884 7309302 7279549 7252966 7230123 7211695 7197849 7188046 7181174 
3398.741 7175616 7169283 7160221 7146680 7127548 7102456 7072144 7037929 
3402.599 7002033 6966812 6934591 6906850 6884363 6866555 6852485 6840501 
3406.456 6829360 6817849 6805934 6793582 6780894 6768576 6756730 6745792 
3410.313 6735865 6727587 6720553 6714967 6709785 6704368 6697470 6688048 
3414.171 6675733 6660558 6643096 6624693 6606358 6589167 6574063 6561213 
3418.028 6550785 6542544 6535917 6530300 6524817 6518393 6510455 6500970 
3421.886 6490410 6479815 6470600 6463571 6459300 6457484 6457148 6456644 
3425.743 6454491 6449682 6441544 6429875 6415314 6398333 6379973 6361177 
3429.601 6343156 6327220 6314478 6305367 6300089 6297904 6297130 6296357 
3433.458 6293903 6288491 6279885 6268388 6255009 6240488 6226001 6212153 
3437.315 6198977 6186441 6173871 6160730 6146750 6131224 6114388 6096477 
3441.173 6077963 6059685 6042482 6026758 6013084 6000990 5989837 5978280 
3445.030 5965481 5949727 5930916 5909050 5885103 5860753 5837883 5818204 
3448.888 5802656 5791072 5782408 5774854 5766493 5755681 5741680 5724792 
3452.745 5706025 5687157 5669567 5654058 5641269 5630695 5621935 5614248 
3456.603 5607132 5600151 5593203 5585886 5578301 5570179 5561822 5553063 
3460.460 5544438 5535545 5526585 5517155 5506920 5495880 5484068 5472156 
3464.317 5460480 5449910 5440281 5431121 5422029 5412266 5401765 5390829 
3468.175 5380026 5370197 5361609 5354028 5346514 5337860 5326824 5312602 
3472.032 5294959 5274366 5251392 5227314 5202867 5179394 5158069 5140231 
3475.890 5127557 5120651 5119511 5123400 5130072 5136677 5140533 5139728 
3479.747 5133391 5121288 5104759 5085013 5063357 5040964 5018305 4995445 
3483.604 4972956 4950836 4929689 4910085 4892459 4877615 4865786 4857007 
3487.462 4850641 4845816 4840656 4833788 4823737 4809832 4792713 4773751 
3491.319 4754556 4737237 4722499 4710708 4700827 4691784 4682305 4672023 
3495.177 4661104 4650387 4640608 4632671 4625973 4620582 4616295 4612913 
3499.034 4610970 4611305 4613884 4618137 4622591 4624902 4622758 4614755 
3502.892 4600556 4582004 4561746 4543096 4528766 4520195 4517215 4518789 
3506.749 4522572 4526489 4528833 4528833 4526657 4523509 4520965 4520329 
3510.606 4522940 4528397 4535897 4543565 4549726 4552538 4551199 4546176 
3514.464 4538543 4529837 4521969 4516110 4513197 4513733 4518085 4526489 
3518.321 4539145 4556121 4576881 4600188 4624299 4647373 4667602 4684214 
3522.179 4696808 4705952 4712584 4717475 4721226 4724207 4726686 4729265 
3526.036 4732849 4738577 4747689 4760820 4778140 4798475 4820520 4842700 
3529.894 4863809 4883110 4901272 4918899 4937297 4957170 4978453 5000741 
3533.751 5022595 5042037 5057256 5067045 5071000 5070632 5067715 5065268 
3537.608 5065804 5071268 5082867 5100401 5123299 5150525 5181104 5214067 
3541.466 5248139 5282013 5313474 5339906 5358725 5367312 5364192 5349432 
3545.323 5324677 5292578 5257463 5223189 5193679 5171950 5159309 5155520 
3549.181 5158404 5164507 5169603 5168966 5159276 5138555 5107642 5068821 
3553.038 5026316 4984419 4946580 4914643 4889074 4869070 4853087 4839249 
3556.896 4826048 4811843 4795226 4775527 4751876 4724810 4695435 4665626 
3560.753 4638063 4615290 4599618 4592485 4594194 4603603 4618338 4634077 
3564.610 4645498 4646871 4631968 4596906 4540819 4466930 4382678 4297237 
3568.468 4219274 4155174 4106938 4073022 4049778 4032688 4017639 4001988 
3572.325 3984633 3965439 3944875 3923610 3901644 3879077 3855643 3830972 
3576.183 3805200 3778461 3750921 3723048 3695645 3669814 3647026 3628782 
3580.040 3615986 3609036 3607566 3610540 3616821 3625809 3637537 3652739 
3583.897 3671351 3692470 3713657 3729999 3735814 3725822 3697082 3650534 
3587.755 3591897 3530295 3475047 3434301 3411658 3406783 3415866 3432731 
3591.612 3450933 3464126 3467566 3458949 3438709 3409588 3375793 3342535 
3595.470 3313854 3292186 3277931 3269284 3263575 3257933 3249487 3236969 
3599.327 3220212 3199783 3177486 3155191 3134899 3118146 3106599 3101092 
3603.185 3102427 3110203 3123752 3141140 3159597 3175784 3185798 3185931 
3607.042 3173815 3148583 3112105 3068423 3023377 2982206 2948411 2922392 
3610.899 2901743 2881664 2857416 2825465 2785346 2740363 2696385 2660112 
3614.757 2636643 2628109 2632343 2643877 2655045 2656612 2640910 2602675 
3618.614 2540846 2458933 2365008 2269637 2182813 2112487 2062513 2033417 
3622.472 2023464 2028823 2047699 2078394 2121144 2176719 2244391 2319902 
3626.329 2395159 2456300 2485858 2468096 2394692 2271236 2118380 1965678 
3630.187 1838218 1748685 1696425 1671012 1659038 1647929 1630368 1604760 
3634.044 1574730 1546265 1524918 1513014 1509024 1509224 1508858 1505201 
3637.901 1497819 1487911 1477372 1467996 1459685 1451540 1442830 1433821 
3641.759 1426972 1426574 1437378 1462910 1504236 1559034 1622619 1688342 
3645.616 1749450 1800253 1835589 1852626 1848700 1821880 1770642 1694994 
3649.474 1598441 1488610 1378075 1281259 1210315 1172903 1169448 1194267 
3653.331 1235701 1281027 1317018 1332971 1324330 1293422 1250587 1209052 
3657.188 1181741 1176126 1192406 1224935 1264776 1302661 1331110 1345535 
3661.046 1345834 1334400 1316553 1297909 1284117 1279365 1286676 1307713 
3664.903 1343407 1393864 1457757 1533097 1615801 1699718 1777829 1843143 
3668.761 1891594 1925706 1956692 2004556 2091112 2235832 2448303 2727359 
3672.618 3062383 3433533 3815429 4170796 4454678 4623964 4647005 4519793 
3676.476 4265749 3924346 3533569 3122384 2712855 2321601 1965079 1659836 
3680.333 1417099 1240984 1126094 1060323 1029036 1019902 1026412 1046738 
3684.190 1082279 1133170 1196327 1263680 1324031 1365311 1378274 1359627 
3688.048 1313828 1251252 1183967 1122141 1070122 1027707 992503 962748 
3691.905 938408 920743 910516 907362 909055 912276 913737 912276 908889 
3696.245 906963 910914 924096 947871 980050 1016515 1050857 1076931 1089786 
3700.584 1086796 1068527 1038701 1003595 970652 946543 936283 942426 964541 
3704.924 1000440 1046240 1097326 1149315 1199018 1243410 1281193 1311302 
3708.781 1332639 1343474 1341413 1323898 1288504 1236066 1170378 1099120 
3712.639 1031859 978024 944186 932862 941994 967231 1001835 1039332 1075104 
3716.979 1106162 1132107 1153701 1172804 1190213 1205796 1218422 1226862 
3720.836 1230916 1232112 1233408 1238425 1249657 1267103 1288138 1307945 
3724.693 1320807 1322701 1312764 1293987 1273118 1258263 1256768 1272852 
3728.551 1306217 1353013 1406429 1459286 1505333 1541277 1567281 1586668 
3732.408 1603862 1621322 1637718 1646266 1637851 1604161 1542009 1456327 
3736.266 1359162 1266903 1192772 1144199 1122041 1123170 1144565 1184964 
3740.123 1245835 1328651 1431992 1548992 1664094 1754441 1794897 1765186 
3743.980 1663528 1513480 1360957 1250820 1207624 1231447 1303824 1398551 
3747.838 1488443 1552084 1576592 1558801 1505533 1428834 1341679 1253079 
3751.695 1169282 1095566 1037405 1000009 987024 997451 1026080 1064408 
3755.553 1103505 1135562 1155727 1163136 1158950 1145528 1124300 1095698 
3759.410 1060456 1021563 985164 959261 951225 964741 997983 1043384 1089985 
3763.750 1127489 1148285 1150478 1138219 1120347 1105830 1100449 1104634 
3767.607 1114467 1123337 1124532 1113504 1090018 1057168 1020434 985762 
3771.465 957966 939470 930405 929675 935154 944949 957369 971980 988717 
3775.804 1008145 1029434 1051123 1069856 1081282 1081648 1069059 1045476 
3779.662 1016548 989680 971183 965305 971615 986592 1005090 1022360 1035612 
3784.001 1044579 1050359 1054809 1059194 1063512 1066634 1067896 1067697 
3787.859 1067464 1069125 1074340 1083707 1096164 1110613 1125928 1143003 
3791.716 1163302 1189648 1223008 1261819 1301033 1333470 1351550 1349556 
3795.573 1327221 1289966 1249358 1217658 1205331 1216429 1247929 1289501 
3799.431 1326025 1341779 1323898 1268233 1183402 1090350 1014323 974670 
3803.288 979219 1022626 1089620 1158850 1209384 1224769 1197323 1132472 
3807.146 1047635 965837 905834 876616 876517 897766 930870 968991 1009640 
3811.485 1054511 1105896 1164764 1227726 1286410 1330312 1347961 1332838 
3815.343 1287341 1224935 1165960 1130446 1130944 1168152 1232610 1307114 
3819.200 1371792 1407925 1401243 1348459 1259925 1158086 1067165 1006452 
3823.058 982906 991839 1021397 1056802 1086564 1102940 1105332 1098522 
3826.915 1091081 1090882 1102276 1124831 1154332 1184897 1211345 1230251 
3830.772 1241416 1246998 1250454 1255671 1265840 1283453 1309607 1343740 
3834.630 1383459 1423781 1456892 1474646 1468994 1436314 1379138 1306483 
3838.487 1231614 1166558 1119848 1093207 1083242 1082677 1084239 1081847 
3842.345 1071982 1053813 1028737 1000374 972877 950727 938507 939171 954878 
3846.684 985728 1031028 1089719 1161176 1245902 1344837 1458156 1583077 
3850.542 1711360 1828003 1912759 1940949 1892991 1764188 1573632 1359694 
3854.399 1166026 1023257 940168 909420 915164 942559 979319 1018175 1055573 
3858.739 1089985 1120646 1147089 1168750 1186326 1201178 1215000 1228889 
3862.596 1242080 1251717 1254010 1247198 1233574 1219685 1215432 1229753 
3866.454 1265607 1318780 1377775 1427571 1453136 1444858 1403371 1341280 
3870.311 1278335 1232610 1213471 1218622 1236963 1253977 1257532 1241615 
3874.168 1208820 1168784 1134200 1116792 1122406 1150711 1195363 1247098 
3878.026 1295184 1329614 1343773 1335996 1310837 1278069 1250720 1241383 
3881.883 1256469 1295749 1351384 1410650 1457790 1479167 1466866 1422651 
3885.741 1359129 1294685 1248660 1232511 1247331 1285247 1333004 1375748 
3889.598 1400013 1398019 1368469 1317616 1256702 1198553 1153701 1127622 
3893.456 1121277 1132472 1158252 1194998 1239954 1290531 1343241 1394861 
3897.313 1440702 1476341 1498717 1506896 1502906 1490970 1476175 1462810 
3901.170 1452172 1442697 1429732 1408756 1375848 1330046 1274713 1215199 
3905.028 1158451 1110481 1075170 1053979 1046074 1049761 1062549 1082279 
3908.885 1106561 1132937 1159382 1184100 1206162 1226031 1245204 1265740 
3912.743 1289368 1317118 1347695 1378640 1406096 1426208 1436214 1434951 
3916.600 1423548 1404767 1382396 1359361 1338655 1321438 1308909 1302096 
3920.458 1301332 1307281 1319145 1334799 1351185 1364347 1370762 1368037 
3924.315 1356370 1338256 1318181 1301631 1292824 1294286 1306184 1326490 
3928.172 1352016 1379039 1404102 1424380 1437743 1443428 1441367 1432192 
3932.030 1417664 1400445 1383692 1370263 1362752 1362253 1368203 1378474 
3935.887 1390373 1400678 1407027 1408523 1405664 1400445 1395193 1391902 
3939.745 1391304 1393166 1395293 1395559 1391969 1383991 1372923 1361854 
3943.602 1354808 1354974 1364015 1380900 1402739 1424679 1441334 1448880 
3947.459 1445423 1432059 1412080 1390240 1371726 1359594 1354974 1357301 
3951.317 1363882 1371792 1378274 1381731 1381831 1379371 1375881 1373255 
3955.174 1373155 1376945 1385254 1397686 1413476 1431095 1448548 1464439 
3959.032 1477039 1485584 1490106 1491170 1489740 1487246 1484620 1482558 
3962.889 1481628 1481561 1482259 1483423 1484620 1485717 1486881 1488377 
3966.747 1490338 1493231 1497055 1501410 1505766 1509224 1511019 1510753 
3970.604 1508658 1505566 1502674 1500978 1501410 1503970 1508958 1515641 
3974.461 1524020 1533829 1545035 1557438 1570241 1582046 1591557 1597044 
3978.319 1598042 1594816 1588198 1580483 1573267 1567846 1564754 1564089 
3982.176 1565020 1567281 1570806 1575827 1582611 1591224 1601500 1612642 
3986.034 1624282 1635656 1646532 1656776 1665956 1673573 1678829 1681190 
3989.891 1680325 1677032 1672808 1669715 1669482 1673241 1680691 1690837 
3993.749 1701514 1711494 1719777 1726097 1730921 1734780 1737275 1738339 
3997.606 1736909 1732484 1725365 1716317 1706803 1697955 1690670 
##END=
