
##TITLE=1132a_3_c
##JCAMP-DX=5.01  $$ Nicolet v. 1
##DATATYPE=INFRARED SPECTRUM
##ORIGIN=UniL
##OWNER=Nicolet
##LONGDATE=2011/09/21
##TIME=14:28:11
##SPECTROMETER/DATA SYSTEM=Nicolet iS5
##DATA PROCESSING=
Ratio against background
%Transmittance->Absorbance
Truncated
ElementMultiply or ElementDivide
##COMMENTS=
Number of sample scans: 32
Collection length: 51.18 sec
Sample gain: 2.0
Background collected on: Mer Sep 21 14:22:11 2011 (GMT+02:00);
Number of background scans: 32
Background gain: 2.0
Sample spacing:  1.000
Number of scan points: 12415
Resolution points: 8192
Number of FFT points: 65536
Apodization: N-B fort;
Phase correction: Mertz;
Laser frequency: 15798.0 cm-1
Number of rejected sample scans: 0
Number of rejected background scans: 0
Bench serial number: ASB1000141;
##RESOLUTION=4.000
##XUNITS=1/CM
##YUNITS=ABSORBANCE
##FIRSTX=649.893372
##LASTX=4000.122314
##FIRSTY=0.069966
##MAXX=4000.122314
##MINX=649.893372
##MAXY=0.300772
##MINY=0.005882
##XFACTOR=1.000000
##YFACTOR=1.000000E-009
##NPOINTS=6950
##DELTAX=0.482117
##ZPD=6100
##XYDATA=(X++(Y..Y))
649.893 69965768 70419912 70937080 71545880 72258520 73070128 73963048 
653.268 74916776 75917552 76963008 78059912 79220008 80455208 81776248 
656.643 83196736 84740200 86437104 88324712 90438312 92799784 95417280 
660.018 98286176 101394968 104722928 108229128 111836480 115406616 118754048 
663.393 121685176 124021672 125650960 126515416 126572800 125760704 
666.285 123979928 121143936 117294264 112730160 108004472 103685152 
669.178 100129920 97399928 95359504 93808424 92567056 91515312 90587360 
672.553 89765432 89058240 88483960 88053216 87763680 87602512 87552768 
675.928 87603040 87749040 87994904 88348624 88816616 89399032 90089696 
679.302 90879360 91762864 92743824 93839840 95075904 96483080 98088488 
682.677 99911952 101969864 104281296 106876320 109804384 113130512 116924888 
686.052 121258904 126193720 131780040 138066896 145097824 152894992 
688.945 161413888 170484960 179737856 188521008 195985776 201132160 
691.838 202994640 200945904 194810048 184972288 172264496 157853600 
694.730 143010672 128834248 116243720 105824856 97815688 92201560 88758368 
698.105 87162840 87057312 88148920 90251880 93279208 97212512 102017008 
701.480 107533096 113419648 119108416 123833424 126838368 127497272 
704.373 125512016 121007272 114501152 106783736 98670304 90915544 84046768 
707.747 78312176 73748280 70229136 67564840 65553448 64035036 62897832 
711.122 62058084 61452928 61027116 60728904 60521884 60386724 60321544 
714.497 60333652 60428992 60603056 60840420 61118912 61418120 61727844 
717.872 62047112 62381612 62734596 63103384 63478196 63848192 64208360 
721.247 64565248 64936408 65346808 65818400 66363968 66984124 67668288 
724.621 68399128 69154640 69912944 70649648 71337344 71949672 72463776 
727.996 72869912 73179048 73427552 73673288 73979192 74403976 74983512 
731.371 75723824 76606056 77596872 78666432 79797008 80990336 82261512 
734.746 83630880 85111184 86704160 88402968 90201344 92104064 94133696 
738.121 96325512 98721784 101358856 104257200 107423096 110855744 114558432 
741.496 118549264 122865352 127557888 132695984 138366896 144681424 
744.388 151795744 159896416 169160096 179678464 191332576 203676208 
747.281 215784304 226357536 233864032 236863280 234571728 227128560 
750.174 215692192 202030432 188191264 176036400 166819184 161234224 
753.066 159330624 160652304 164355808 169416288 174865744 179823568 
755.959 183665888 186036960 186773248 185855952 183324928 179232944 
758.852 173634448 166611392 158319840 149014240 139066400 128959224 
761.744 119191680 110262640 102601760 96483792 92037504 89215240 87822568 
765.119 87543120 88001440 88844504 89745224 90457784 90827480 90768272 
768.494 90265704 89360568 88144216 86739672 85287088 83930456 82782232 
771.869 81912192 81341632 81049272 80991256 81122112 81414288 81859536 
775.244 82463056 83230928 84159080 85229912 86418960 87702288 89064512 
778.619 90501608 92014040 93599112 95245536 96932208 98634872 100334376 
781.993 102019864 103689784 105344104 106976264 108567352 110086584 
784.886 111495744 112760528 113854784 114761864 115471752 115972864 
787.779 116247352 116272128 116022200 115479360 114639192 113512376 
790.671 112121840 110493648 108653256 106620000 104408704 102036704 99526312 
794.046 96906408 94210128 91465528 88692480 85902456 83102960 80306688 
797.421 77539832 74840280 72255736 69833280 67605792 65591948 63794612 
800.796 62207984 60823228 59631936 58624680 57785768 57091332 56510564 
804.171 56008892 55558144 55141344 54753208 54396096 54074632 53789368 
807.546 53537496 53316300 53129968 52994172 52936416 52992788 53196252 
810.920 53572916 54134228 54874888 55770008 56772208 57813212 58793924 
814.295 59595564 60097476 60186488 59791952 58901452 57567960 55897856 
817.670 54029188 52110016 50259064 48559600 47056888 45763124 44673044 
821.045 43772664 43045124 42469668 42019716 41666252 41378596 41132396 
824.420 40915532 40726548 40571660 40456972 40383692 40345876 40333844 
827.794 40339916 40362132 40405512 40478392 40585480 40724696 40886048 
831.169 41056672 41226276 41392624 41561008 41741784 41943660 42169140 
834.544 42413992 42671296 42936512 43211916 43507088 43833688 44201544 
837.919 44612672 45061644 45539120 46038264 46558820 47108476 47699540 
841.294 48343556 49047468 49812680 50637208 51520460 52465396 53478728 
844.669 54567308 55732416 56966080 58250128 59559152 60860740 62118520 
848.043 63293704 64338288 65198520 65819940 66151196 66160956 65848476 
851.418 65250808 64439440 63507692 62560328 61685452 60948036 60384212 
854.793 60001216 59786020 59712568 59750508 59867248 60031688 60219296 
858.168 60412008 60601760 60790908 60989748 61212900 61473732 61783192 
861.543 62148420 62574676 63067520 63632116 64269208 64968496 65702484 
864.917 66423228 67061184 67540792 67787760 67742520 67376312 66692308 
868.292 65728344 64546340 63229688 61871632 60560236 59381632 58407248 
871.667 57687336 57254988 57123000 57290264 57748752 58491064 59515604 
875.042 60830128 62449748 64395168 66688476 69344368 72360184 75699096 
878.417 79280088 82957352 86512760 89690512 92201192 93778240 94243920 
881.792 93532080 91724552 89027776 85760824 82285736 78937008 76013968 
885.166 73726096 72193872 71470712 71549792 72384152 73891512 75964752 
888.541 78463944 81201880 83962016 86486680 88493016 89728928 89986224 
891.916 89149080 87220312 84323168 80685960 76584160 72324656 68180976 
895.291 64352164 60969388 58082764 55682916 53723476 52143788 50884608 
898.666 49888976 49108752 48500984 48024388 47646036 47340128 47090268 
902.040 46888392 46730772 46612896 46527064 46462824 46409508 46360984 
905.415 46317116 46283352 46266472 46271004 46296032 46336396 46385172 
908.790 46438340 46497192 46567376 46655540 46765160 46894148 47035620 
912.165 47181088 47324648 47465888 47609948 47764484 47935172 48124028 
915.540 48328520 48544816 48770712 49007852 49261004 49535584 49834232 
918.914 50154656 50490172 50833128 51178896 51527884 51885216 52258616 
922.289 52655112 53078632 53531164 54015676 54538116 55108656 55738552 
925.664 56432792 57183548 57963736 58730688 59427904 59997296 60395256 
929.039 60597720 60609456 60460372 60203040 59901060 59616236 59407808 
932.414 59321004 59385620 59618444 60022332 60589112 61301076 62133012 
935.789 63051700 64014068 64972536 65875700 66674964 67337584 67851816 
939.163 68234520 68527256 68794312 69108368 69532808 70117952 70889992 
942.538 71851496 72985648 74261720 75639856 77068360 78487608 79829704 
945.913 81015608 81969488 82623736 82927952 82861056 82432208 81681184 
949.288 80667608 79467168 78162208 76827888 75536424 74348296 73306872 
952.663 72441144 71761936 71265072 70935480 70753608 70701776 70765416 
956.037 70935048 71203464 71562328 72002192 72512128 73082080 73706232 
959.412 74384160 75120376 75920864 76791552 77735824 78755160 79852752 
962.787 81035976 82318456 83721032 85268536 86983552 88884144 90978376 
966.162 93263928 95729064 98357568 101135128 104054456 107121640 110356408 
969.537 113789712 117451256 121354768 125476720 129745200 134024904 
972.429 138115904 141792272 144811824 146965056 148128400 148281008 
975.322 147528080 146073984 144213968 142274896 140554144 139312880 
978.215 138720496 138840832 139628256 140929648 142504992 144032832 
981.108 145179552 145631584 145132752 143546320 140860256 137194112 
984.000 132758184 127828736 122701952 117632672 112839408 108478656 
986.893 104637240 101352824 98616408 96389624 94614152 93226512 92168008 
990.268 91383696 90829200 90468432 90268760 90202648 90246616 90379520 
993.643 90586096 90855304 91179352 91552744 91969648 92423560 92908024 
997.017 93417024 93946856 94496624 95067200 95659968 96274720 96909272 
1000.392 97559096 98219824 98887600 99561400 100242544 100933880 101638792 
1003.767 102360368 103101592 103866040 104658616 105486264 106355624 
1006.660 107273040 108241840 109261552 110328856 111438224 112584704 
1009.552 113764136 114974336 116213840 117481176 118774168 120090816 
1012.445 121429696 122792368 124183712 125612768 127090928 128629744 
1015.338 130240736 131932216 133710904 135581504 137547984 139613904 
1018.231 141782336 144055408 146433408 148913648 151489296 154146448 
1021.123 156859520 159591072 162282496 164855104 167218544 169269536 
1024.016 170912864 172080192 172740368 172914208 172670544 172123584 
1026.909 171404800 170643856 169956032 169416400 169056912 168861968 
1029.802 168771888 168684144 168457392 167937120 166953136 165343328 
1032.695 162984784 159798032 155771184 150963056 145504080 139582576 
1035.588 133413256 127237064 121277008 115712456 110680256 106250656 
1038.481 102436208 99204424 96495376 94238616 92362648 90807840 89523248 
1041.856 88464376 87595784 86885232 86306336 85840640 85475320 85202336 
1045.232 85016120 84909784 84874976 84902688 84984880 85117320 85299344 
1048.607 85532520 85816976 86147680 86511624 86888432 87252032 87571984 
1051.982 87820464 87973648 88013896 87934616 87740488 87449944 87092296 
1055.357 86707752 86341096 86031984 85813352 85704760 85712344 85832488 
1058.733 86055208 86367976 86754440 87193416 87655384 88097936 88469336 
1062.108 88714992 88780808 88628432 88239400 87619256 86795072 85811328 
1065.483 84724448 83590032 82463496 81393064 80413904 79550568 78813952 
1068.858 78203816 77712328 77329584 77047464 76862376 76774232 76784200 
1072.234 76891336 77090720 77373104 77726872 78141304 78608104 79121792 
1075.609 79678168 80272880 80900112 81554192 82232080 82936328 83676680 
1078.984 84470168 85338784 86304152 87387584 88607304 89979384 91521936 
1082.359 93255176 95201552 97386328 99833392 102562440 105587496 108912264 
1085.735 112526912 116400976 120482704 124694496 128931088 133078936 
1088.628 137020192 140649184 143892800 146708352 149082608 151017792 
1091.521 152514224 153554448 154102512 154111296 153548704 152425312 
1094.414 150820480 148887648 146834800 144918704 143385808 142440912 
1097.307 142231360 142811696 144142576 146080896 148404464 150814288 
1100.200 152952528 154472048 155044032 154411472 152440224 149120144 
1103.093 144573760 139016240 132738712 126055912 119254864 112602952 
1105.986 106308384 100512920 95308040 90727104 86761160 83370976 80500632 
1109.361 78087800 76067104 74378296 72964240 71768856 70743576 69844376 
1112.737 69034328 68287944 67587720 66923940 66292592 65692648 65124832 
1116.112 64591320 64096592 63646660 63247628 62904992 62621176 62395120 
1119.487 62223204 62101088 62025176 61994144 62007288 62064200 62162636 
1122.862 62298616 62467348 62665156 62891052 63147948 63441196 63776344 
1126.238 64157768 64587280 65065288 65591828 66169440 66802620 67497520 
1129.613 68258984 69087976 69979936 70924592 71907640 72911024 73915824 
1132.988 74902288 75848736 76734616 77540824 78253288 78867552 79392096 
1136.363 79850488 80276792 80714968 81211824 81808288 82541112 83438032 
1139.739 84517584 85792032 87266328 88938592 90799104 92829896 95006216 
1143.114 97293624 99651504 102032728 104379080 106626272 108700368 110516160 
1146.489 111988808 113033352 113573488 113555192 112948040 111751184 
1149.382 109990152 107715048 104993944 101902496 98527480 94958008 91277424 
1152.757 87568296 83901072 80331328 76905848 73658720 70615888 67798952 
1156.133 65223232 62897868 60825056 58998836 57407136 56032980 54858160 
1159.508 53862500 53024456 52322076 51730212 51222584 50775808 50368964 
1162.883 49987632 49624092 49275220 48940384 48619780 48313152 48020504 
1166.258 47743440 47486364 47255708 47058144 46899612 46782432 46706196 
1169.634 46668968 46669300 46707708 46786936 46910240 47079744 47295460 
1173.009 47555232 47856292 48197696 48581388 49012080 49496000 50038304 
1176.384 50642160 51308116 52036056 52825788 53678520 54595748 55576520 
1179.759 56615604 57701148 58814752 59935748 61043212 62120052 63156188 
1183.135 64148248 65099692 66019288 66921732 67826376 68755760 69735184 
1186.510 70787488 71927232 73156936 74462304 75813504 77163968 78459144 
1189.885 79642824 80659192 81463568 82023080 82317056 82337680 82087672 
1193.260 81577256 80820520 79833640 78633792 77237544 75666320 73950160 
1196.635 72129048 70259208 68408096 66641584 65020644 63584892 62346616 
1200.011 61292108 60388132 59594612 58872576 58195456 57551508 56941376 
1203.386 56373216 55858780 55409432 55033840 54738288 54526248 54397900 
1206.761 54349944 54375556 54466256 54613708 54812220 55060432 55360688 
1210.136 55717308 56133872 56611940 57151120 57750308 58409824 59133068 
1213.512 59925476 60793996 61744076 62778548 63897936 65102196 66392960 
1216.887 67775864 69260376 70859096 72586136 74454240 76475728 78662464 
1220.262 81026952 83584000 86349912 89339560 92564224 96027192 99721240 
1223.637 103623904 107697128 111885864 116109760 120267656 124234128 
1226.531 127851072 130948904 133347440 134870432 135383200 134802848 
1229.424 133120296 130402744 126791256 122485008 117703104 112686056 
1232.317 107664480 102831240 98353160 94348824 90886056 87995928 85673880 
1235.692 83893112 82611192 81779088 81345392 81254656 81454456 81895416 
1239.067 82530648 83322488 84238280 85247568 86321896 87426808 88520600 
1242.442 89558720 90492464 91277632 91882720 92290472 92501696 92532856 
1245.818 92414912 92188040 91896720 91591768 91322152 91131288 91055032 
1249.193 91112856 91307232 91622496 92030624 92496448 92982880 93460912 
1252.568 93909672 94318888 94689056 95030048 95361440 95709000 96106304 
1255.943 96589640 97190416 97933568 98828736 99868872 101027696 102262744 
1259.319 103519144 104727816 105814536 106702056 107309224 107564120 
1262.212 107405744 106790088 105698768 104138808 102142960 99760432 97055040 
1265.587 94098728 90963176 87726296 84467920 81261760 78179736 75281320 
1268.962 72608104 70189296 68039968 66166236 64569748 63247704 62192616 
1272.337 61390144 60820064 60457668 60276012 60253096 60371876 60620580 
1275.713 60992112 61479804 62075552 62771276 63558392 64431564 65390104 
1279.088 66437632 67580552 68825328 70177968 71643560 73228152 74940240 
1282.463 76791712 78794768 80959272 83285720 85761312 88354640 91019152 
1285.838 93693496 96303672 98776856 101040488 103028616 104689824 105984352 
1289.214 106886152 107382872 107471600 107155136 106437200 105317704 
1292.107 103792144 101856160 99512192 96780432 93705624 90365200 86860832 
1295.482 83309880 79843632 76584200 73642864 71119152 69086064 67593680 
1298.857 66665032 66292980 66442572 67054264 68057024 69367840 70901384 
1302.232 72579280 74320768 76047992 77688280 79166480 80414376 81376480 
1305.608 82008024 82282336 82189040 81732336 80932008 79825712 78479464 
1308.983 76985632 75467352 74072352 72937320 72173448 71832536 71888088 
1312.358 72228656 72671752 73013912 73053664 72648168 71743296 70372696 
1315.733 68645688 66707372 64719632 62818332 61095764 59603012 58349376 
1319.109 57318616 56483128 55817332 55302348 54925312 54677364 54549876 
1322.484 54532032 54613296 54783728 55035984 55365352 55767452 56235576 
1325.859 56760276 57327200 57920268 58524388 59125968 59715416 60287012 
1329.234 60836764 61362132 61861812 62335984 62787280 63221300 63646124 
1332.610 64070016 64500472 64941944 65396764 65865248 66348100 66847296 
1335.985 67366680 67910320 68481056 69079656 69704496 70353088 71024440 
1339.360 71720864 72447448 73212584 74023592 74885080 75798392 76761976 
1342.735 77773480 78831952 79939816 81102664 82328792 83626144 85001040 
1346.111 86456560 87992672 89606976 91296432 93059104 94893856 96799696 
1349.486 98774440 100812584 102905472 105043064 107215904 109420304 
1352.379 111659816 113947464 116302312 118747040 121306136 124002144 
1355.272 126855896 129886240 133105264 136511904 140080912 143760416 
1358.165 147462416 151070208 154465472 157537232 160210640 162461008 
1361.058 164312384 165827008 167079600 168149792 169101504 169978576 
1363.951 170812336 171620096 172409408 173178832 173920640 174625376 
1366.844 175290736 175931312 176585488 177315104 178189248 179274192 
1369.737 180619808 182251472 184177648 186397888 188912848 191724912 
1372.630 194833680 198228032 201876496 205731376 209744128 213885248 
1375.523 218158544 222594704 227232640 232082800 237099968 242156656 
1378.417 247061712 251574160 255422592 258355264 260130352 260522064 
1381.310 259356976 256534096 252084640 246186752 239152928 231344976 
1384.203 223051488 214452080 205578688 196366288 186735824 176684464 
1387.096 166333184 155911072 145686272 135890256 126687840 118168160 
1389.989 110379472 103361760 97137912 91719440 87092992 83211624 80004544 
1393.364 77389768 75297472 73666224 72441616 71570808 70984096 70603768 
1396.739 70361320 70207992 70135240 70176480 70403944 70903184 71746696 
1400.115 72982160 74622840 76659976 79072224 81830888 84887664 88150992 
1403.490 91483856 94685136 97504184 99697016 101050112 101429032 100800840 
1406.865 99224616 96835424 93806152 90343696 86660104 82949768 79401248 
1410.240 76164264 73339672 70982840 69101800 67676224 66674844 66071136 
1413.615 65847092 65986500 66468484 67259512 68312608 69583712 71036224 
1416.991 72652640 74437208 76403728 78558432 80880552 83323248 85827360 
1420.366 88345584 90859912 93377384 95913576 98467456 101005704 103457280 
1423.741 105710264 107645840 109163888 110196528 110713088 110698424 
1426.634 110134024 108995136 107261416 104943648 102099744 98846864 95343856 
1430.010 91749968 88213904 84853384 81752736 78979056 76577248 74565600 
1433.385 72937160 71657160 70675888 69940848 69418768 69106624 69029752 
1436.760 69221472 69695000 70426968 71363312 72437536 73586456 74763328 
1440.135 75930928 77059456 78126704 79111416 79996696 80772072 81433832 
1443.510 81984896 82431808 82780864 83034360 83188432 83236872 83177512 
1446.886 83021160 82798832 82557256 82348568 82215656 82176664 82227232 
1450.261 82349816 82529568 82764792 83070304 83468824 83979856 84605824 
1453.636 85329792 86114872 86914456 87684448 88385096 88992680 89499920 
1457.011 89917056 90258608 90533968 90747600 90902480 91008488 91085192 
1460.387 91157280 91249904 91382008 91561776 91788400 92056096 92361208 
1463.762 92706624 93104720 93573840 94136416 94815824 95632960 96612448 
1467.137 97779248 99153968 100748440 102560512 104575312 106760856 109078056 
1470.512 111479504 113896168 116237744 118387472 120213032 121598360 
1473.406 122464720 122775048 122524064 121721392 120389448 118571160 
1476.299 116340000 113797336 111047944 108185088 105266232 102310168 
1479.192 99315568 96277944 93205648 90131408 87104368 84176696 81393264 
1482.567 78779712 76343960 74083160 71987648 70047008 68251072 66590444 
1485.942 65059052 63655636 62385060 61256508 60279136 59458112 58791304 
1489.317 58271840 57894148 57657064 57564672 57619980 57818396 58143100 
1492.693 58567156 59056568 59579676 60113192 60643096 61167276 61689496 
1496.068 62211196 62722384 63199720 63610248 63923696 64120360 64197452 
1499.443 64169756 64067444 63930416 63799372 63714260 63705624 63790740 
1502.818 63972412 64236828 64555636 64882844 65164328 65349392 65409364 
1506.194 65359868 65264432 65210456 65258852 65424384 65681972 65991632 
1509.569 66314788 66624312 66908204 67164704 67401272 67629728 67863408 
1512.944 68112680 68382496 68670912 68969464 69267016 69553032 69826192 
1516.319 70098408 70396072 70749424 71179648 71688576 72256128 72844792 
1519.695 73408368 73912296 74347272 74741568 75148112 75622816 76192776 
1523.070 76846360 77544144 78237696 78889560 79477632 80002352 80480808 
1526.445 80938912 81399616 81877064 82380896 82920576 83510072 84167408 
1529.820 84906920 85732608 86633040 87586944 88570088 89568488 90589192 
1533.196 91664808 92842864 94158480 95625200 97228464 98941776 100735360 
1536.571 102587488 104493624 106454560 108482352 110596816 112823208 
1539.464 115183872 117688416 120341576 123131352 126041200 129065080 
1542.357 132201360 135452736 138816320 142273200 145777280 149255312 
1545.250 152626800 155814400 158757184 161413024 163731552 165642784 
1548.143 167064352 167909696 168137296 167780240 166951920 165796560 
1551.036 164424768 162878656 161127808 159114160 156815104 154292544 
1553.929 151701712 149251696 147105120 145324080 143841120 142490096 
1556.822 141036736 139233840 136904000 134021984 130796312 127607224 
1559.715 124814304 122574416 120838928 119449072 118233672 117049296 
1562.608 115774440 114316992 112619312 110673584 108530296 106286376 
1565.501 104054880 101908688 99857616 97841872 95758896 93498216 90989824 
1568.877 88243744 85360568 82501440 79820696 77418360 75317928 73485976 
1572.252 71865056 70396424 69030176 67724704 66446552 65177112 63929416 
1575.627 62764532 61789916 61133328 60889936 61098624 61748508 62804356 
1579.002 64233752 66021488 68173032 70705792 73636656 76970872 80687720 
1582.378 84732264 89016432 93402240 97707328 101723928 105214352 107958032 
1585.753 109782536 110571984 110292456 108992744 106814624 103975608 
1588.646 100756968 97485976 94462064 91942704 90119456 89098064 88922496 
1592.021 89583640 91039504 93220848 96041448 99409120 103213896 107334888 
1595.396 111651552 116036176 120374360 124573088 128549504 132227912 
1598.290 135526336 138338928 140551440 142055504 142769040 142662720 
1601.183 141762320 140144096 137911712 135191648 132125896 128854216 
1604.076 125520304 122252688 119142464 116245064 113574216 111114016 
1606.969 108834528 106707896 104718408 102860632 101134080 99536688 98059248 
1610.344 96689560 95419640 94249728 93190208 92253720 91445200 90752136 
1613.719 90140008 89553752 88932656 88224544 87412584 86532864 85676056 
1617.094 84955952 84458576 84219456 84218888 84406384 84721912 85114736 
1620.470 85552296 86017352 86510824 87046992 87651240 88352088 89174872 
1623.845 90138256 91247456 92496816 93870808 95347328 96896800 98484160 
1627.220 100075920 101642264 103164736 104638928 106074784 107490192 
1630.113 108903920 110333592 111793144 113295288 114851344 116474328 
1633.006 118181864 119995416 121945016 124069816 126420232 129038112 
1635.899 131949144 135158320 138641344 142371920 146333424 150524272 
1638.792 154955488 159644768 164613072 169868704 175404256 181199152 
1641.686 187212720 193393632 199693664 206053696 212424272 218775744 
1644.579 225095904 231405552 237747536 244172848 250687504 257235168 
1647.472 263711008 269989952 275975200 281608320 286861312 291665504 
1650.365 295841664 299066336 300771808 300222656 296816352 290573152 
1653.258 282438464 273810336 265733744 258469200 251739232 245079120 
1656.151 238118832 230667152 222714736 214378384 205830368 197246048 
1659.044 188720672 180274880 171872528 163452368 154971920 146439216 
1661.937 137928960 129582760 121587576 114130136 107355296 101332656 
1664.830 96048888 91430232 87364568 83729272 80416176 77350848 74504976 
1668.205 71899896 69593632 67654808 66133364 65042652 64359696 64037764 
1671.581 64028048 64288268 64786284 65504052 66433580 67579856 68957776 
1674.956 70587232 72481584 74636184 77037184 79669728 82530800 85632840 
1678.331 88997192 92641440 96555000 100697928 105010912 109428536 113922920 
1681.706 118518136 123290600 128350240 133791016 139619952 145681264 
1684.599 151688000 157327136 162366144 166681808 170212832 172922192 
1687.492 174756720 175666240 175623744 174625728 172703232 169917424 
1690.385 166370016 162206000 157602288 152755872 147813216 142825552 
1693.279 137728032 132344600 126466688 119990912 113067352 106139216 
1696.172 99787272 94431136 90179280 86835536 84058464 81481840 78845976 
1699.547 76092448 73385768 71024912 69235464 68031992 67234672 66599400 
1702.922 65891668 64941980 63640216 61924588 59786936 57270756 54470088 
1706.297 51505052 48502208 45575660 42805328 40239172 37889216 35736132 
1709.673 33745376 31885210 30142668 28528690 27069268 25784774 24676338 
1713.048 23715958 22856594 22047236 21257516 20487498 19761354 19107258 
1716.423 18535260 18024796 17538254 17045880 16550725 16089177 15709221 
1719.798 15442506 15286558 15209857 15164975 15111144 15026653 14918277 
1723.174 14812122 14739413 14714836 14729473 14755524 14763751 14739550 
1726.549 14688582 14631965 14591735 14578029 14582106 14582688 14559457 
1729.924 14507585 14441572 14387933 14368136 14384576 14412662 14410059 
1733.299 14333684 14170978 13954850 13751313 13617783 13572176 13593919 
1736.675 13641989 13677345 13674096 13628381 13554742 13477491 13415121 
1740.050 13369946 13328739 13274246 13197456 13103331 13006461 12922652 
1743.425 12857527 12803299 12742355 12658051 12545251 12413080 12280880 
1746.800 12166543 12077513 12005362 11930941 11833788 11704760 11550896 
1750.176 11392835 11252411 11141844 11059244 10993074 10933029 10877409 
1753.551 10833958 10814255 10824922 10860728 10904726 10933572 10930820 
1756.926 10895756 10845203 10804031 10792719 10816294 10862903 10909720 
1760.301 10934286 10926267 10891373 10848531 10818570 10814051 10833041 
1763.677 10864330 10896266 10924466 10952805 10989947 11041741 11105913 
1767.052 11171081 11222896 11252139 11261796 11265740 11281450 11318621 
1770.427 11372291 11422599 11443111 11416034 11342938 11248160 11163806 
1773.802 11115295 11107748 11128688 11156633 11174923 11178119 11173699 
1777.177 11175501 11194846 11232689 11278118 11314336 11327735 11316921 
1780.553 11294305 11279240 11286722 11319540 11366542 11409468 11431545 
1783.928 11427191 11404468 11380590 11372087 11386576 11419741 11461108 
1787.303 11500709 11535993 11573219 11622086 11689374 11771686 11855069 
1790.678 11918851 11947357 11937037 11901210 11862356 11841789 11847578 
1794.054 11873627 11905297 11930124 11943746 11951478 11963467 11987683 
1797.429 12024233 12064294 12094547 12104257 12092299 12067735 12046375 
1800.804 12040550 12054313 12081124 12109777 12131310 12145382 12159694 
1804.179 12185727 12231257 12295026 12367156 12433572 12484821 12519196 
1807.555 12544433 12572468 12612580 12665249 12722395 12772041 12805893 
1810.930 12825310 12841214 12867766 12915449 12984611 13066076 13146497 
1814.305 13215696 13272572 13325663 13388569 13470656 13573510 13687706 
1817.680 13798477 13892547 13964260 14017642 14062199 14106180 14151808 
1821.056 14194086 14224350 14236162 14228425 14206034 14176729 14146263 
1824.431 14114908 14078490 14032870 13979144 13925117 13882763 13861109 
1827.806 13861519 13874587 13884200 13873869 13836855 13780281 13722757 
1831.181 13683910 13673822 13689279 13716875 13740745 13750219 13745636 
1834.557 13736915 13737530 13756101 13791602 13833401 13868498 13888374 
1837.932 13895011 13899800 13917967 13960256 14027121 14109055 14191278 
1841.307 14261705 14313993 14349746 14374780 14394372 14408894 14414717 
1844.682 14408518 14392865 14377452 14375568 14396975 14443353 14506659 
1848.058 14573334 14630423 14671857 14701709 14731564 14773212 14831321 
1851.433 14901097 14970335 15027099 15066238 15092310 15117560 15155059 
1854.808 15210337 15278115 15344942 15396331 15424516 15432309 15430731 
1858.183 15432687 15445700 15467537 15488241 15496928 15489305 15470798 
1861.559 15454523 15453871 15475983 15517600 15567979 15614963 15652059 
1864.934 15682220 15715268 15760653 15821541 15889689 15949769 15987033 
1868.309 15994938 15981292 15964758 15965959 15995454 16050633 16117305 
1871.684 16180065 16227975 16259896 16282804 16305991 16334064 16364340 
1875.060 16387289 16393242 16379135 16351163 16322298 16305337 16306851 
1878.435 16323227 16343698 16356256 16356152 16347757 16343215 16354466 
1881.810 16387463 16437735 16494382 16545286 16585182 16618541 16656686 
1885.185 16711330 16786678 16876712 16967490 17044846 17100676 17137520 
1888.561 17166266 17201050 17250312 17313960 17384206 17452186 17514828 
1891.936 17575686 17643456 17725592 17822932 17927342 18025522 18105382 
1895.311 18163214 18205710 18246968 18299634 18370074 18454490 18542868 
1898.686 18625622 18699920 18772084 18854678 18958642 19086622 19231196 
1902.062 19377240 19510508 19622772 19715688 19797384 19876114 19953886 
1905.437 20023866 20073798 20093926 20081988 20047146 20004886 19971338 
1908.812 19955482 19955656 19962420 19965888 19962280 19956420 19958568 
1912.187 19979004 20021228 20081188 20149176 20216200 20279036 20342122 
1915.563 20412790 20495592 20588136 20679484 20756774 20812074 20849408 
1918.938 20883096 20931910 21008724 21113796 21233960 21349596 21444204 
1922.313 21511220 21557632 21598896 21650926 21720448 21802662 21884892 
1925.688 21955776 22011578 22058880 22110826 22178852 22265756 22364364 
1929.063 22460554 22541898 22605068 22657638 22713530 22784410 22873428 
1932.439 22972210 23066574 23144084 23201504 23246596 23293858 23355254 
1935.814 23432602 23516540 23591188 23643666 23670678 23681174 23690624 
1939.189 23712984 23751444 23797326 23834464 23849620 23839958 23816682 
1942.564 23797990 23801176 23830964 23878604 23926006 23956222 23963156 
1945.940 23951984 23936964 23930418 23937490 23952614 23964240 23963996 
1949.315 23952720 23941096 23945892 23978526 24038406 24113110 24184882 
1952.690 24240060 24276850 24304952 24340872 24396524 24470658 24549888 
1956.065 24615318 24654314 24668342 24673322 24692366 24743538 24828538 
1959.441 24932504 25029824 25100416 25138646 25156060 25173406 25209116 
1962.816 25268464 25342570 25414302 25470198 25510360 25548030 25603980 
1966.191 25691572 25808896 25936694 26049054 26124946 26159750 26166154 
1969.566 26165838 26176746 26202158 26229224 26238692 26216060 26162284 
1972.942 26095248 26041276 26021892 26043634 26096656 26161686 26224788 
1976.317 26284522 26352500 26443590 26562524 26696150 26817442 26895588 
1979.692 26911908 26869468 26791152 26708482 26647210 26618252 26615082 
1983.067 26621738 26622972 26612932 26597784 26589612 26596622 26618640 
1986.443 26646084 26667540 26677616 26682548 26696396 26735154 26805002 
1989.818 26898196 26994724 27071420 27115080 27127318 27125272 27129118 
1993.193 27154442 27201320 27256884 27302256 27324484 27323144 27310512 
1996.568 27303420 27313548 27340824 27374416 27398380 27404134 27394180 
1999.944 27383698 27391358 27427674 27489900 27561176 27621340 27655168 
2003.319 27661948 27654674 27653366 27673248 27715768 27768642 27812514 
2006.694 27832156 27824738 27799902 27773126 27755680 27747238 27736854 
2010.069 27710542 27661736 27597576 27537098 27501726 27505892 27548150 
2013.445 27614524 27684832 27743704 27787434 27823040 27861478 27907690 
2016.820 27955392 27990272 27998720 27976490 27935500 27897550 27887480 
2020.195 27918574 27987126 28074106 28157108 28218946 28257170 28282278 
2023.570 28310534 28353082 28409322 28468472 28515456 28541818 28549674 
2026.946 28550274 28555972 28572604 28594262 28607532 28598826 28564252 
2030.321 28513794 28467764 28446006 28458140 28498722 28550594 28594614 
2033.696 28618644 28623034 28618822 28617760 28623564 28629970 28622184 
2037.071 28588846 28527204 28448944 28371580 28313504 28281818 28269688 
2040.447 28261024 28238570 28195220 28136072 28075804 28028970 28002218 
2043.822 27990626 27979600 27956064 27914828 27864126 27821946 27805450 
2047.197 27823784 27872254 27934614 27990696 28024978 28033708 28022008 
2050.572 28000272 27977550 27958750 27945252 27938290 27941964 27963026 
2053.948 28007838 28076616 28161138 28245254 28309968 28343426 28344344 
2057.323 28324892 28304098 28300208 28323406 28372040 28435040 28497802 
2060.698 28550876 28590898 28620946 28645578 28666354 28680088 28681114 
2064.073 28665434 28635950 28601764 28576178 28569738 28585448 28617654 
2067.448 28655382 28688654 28712584 28730140 28748372 28773686 28806648 
2070.824 28841028 28866560 28874738 28863336 28838018 28808772 28785900 
2074.199 28773722 28770146 28768340 28761222 28747418 28730424 28716724 
2077.574 28711238 28713326 28716016 28709680 28686920 28647136 28597446 
2080.949 28549178 28512238 28490266 28478908 28469144 28451418 28421386 
2084.325 28380846 28337484 28299358 28270820 28251088 28235422 28219158 
2087.700 28200240 28181644 28167610 28161562 28162552 28164356 28158876 
2091.075 28140316 28108570 28070432 28035262 28012466 28006210 28014410 
2094.450 28030348 28046324 28058378 28065660 28070712 28074106 28074318 
2097.826 28066542 28046324 28013208 27972356 27934192 27909706 27905358 
2101.201 27919420 27942248 27961612 27966948 27954438 27928714 27897692 
2104.576 27870240 27849466 27833284 27815692 27792308 27762636 27731944 
2107.951 27707822 27696310 27698216 27709022 27720430 27726328 27724704 
2111.327 27719018 27715486 27718876 27729472 27742576 27751334 27750100 
2114.702 27738124 27720112 27703126 27692460 27689350 27689598 27686808 
2118.077 27675614 27655132 27628756 27602732 27581582 27565696 27550938 
2121.452 27531132 27502256 27465192 27424884 27389168 27363760 27349256 
2124.828 27341704 27334718 27323640 27308536 27294388 27287720 27293470 
2128.203 27310512 27333802 27355290 27369370 27375442 27378652 27386734 
2131.578 27404944 27434414 27470840 27508434 27543770 27578936 27620174 
2134.953 27675014 27746390 27829824 27914264 27987374 28041130 28075484 
2138.329 28097188 28115676 28137240 28160962 28179134 28182458 28166406 
2141.704 28134446 28098956 28073930 28069192 28085594 28114934 28144382 
2145.079 28164110 28173230 28178782 28192534 28222342 28268168 28321922 
2148.454 28370164 28401718 28412612 28406208 28389302 28367016 28338190 
2151.830 28296034 28233336 28148234 28047844 27946454 27860312 27800186 
2155.205 27766380 27750452 27743246 27743318 27760270 27813856 27923132 
2158.580 28093830 28311524 28546310 28760480 28926656 29035256 29092894 
2161.955 29115924 29120390 29114934 29099344 29070646 29028312 28978438 
2165.331 28933066 28903600 28894570 28899952 28905548 28896942 28865424 
2168.706 28812100 28747310 28684760 28633332 28593412 28557990 28517756 
2172.081 28467798 28411550 28359484 28324008 28312478 28322984 28344238 
2175.456 28362030 28364718 28349156 28319872 28284152 28248682 28214348 
2178.832 28178392 28137134 28091462 28047350 28014658 28001474 28007838 
2182.207 28025614 28040600 28041130 28023138 27992004 27961506 27945394 
2185.582 27949634 27970236 27994054 28006846 27998684 27970058 27928574 
2188.957 27886562 27853280 27830212 27812796 27793474 27767440 27734416 
2192.333 27699274 27667174 27639526 27612936 27580064 27534910 27477088 
2195.708 27412990 27354020 27310336 27286344 27277382 27274030 27265210 
2199.083 27245594 27217478 27189680 27171832 27169820 27181956 27201392 
2202.458 27220088 27232998 27241218 27250922 27267996 27294670 27326744 
2205.833 27355538 27372724 27375018 27366230 27355290 27352328 27363054 
2209.209 27386134 27415038 27441616 27460744 27474264 27488030 27509210 
2212.584 27541688 27583454 27627836 27666926 27695532 27713826 27726222 
2215.959 27738194 27752182 27766982 27778002 27780546 27772810 27757552 
2219.334 27739996 27724492 27711532 27696274 27671482 27630344 27571980 
2222.710 27501692 27428944 27363832 27312242 27274312 27244394 27216136 
2226.085 27185200 27151408 27118148 27089158 27066376 27048216 27031148 
2229.460 27012496 26992574 26975332 26966272 26968916 26981748 26998004 
2232.835 27008792 27006396 26988166 26957704 26922344 26890088 26864322 
2236.211 26843278 26820966 26791364 26750694 26701434 26649008 26601096 
2239.586 26563158 26536882 26520892 26512756 26510502 26513882 26522934 
2242.961 26537058 26552062 26562806 26563194 26550548 26527690 26501380 
2246.336 26480812 26472712 26478346 26493244 26509938 26520574 26521630 
2249.712 26514728 26505536 26500288 26502894 26513072 26527654 26542834 
2253.087 26556220 26568442 26582002 26598596 26617230 26633646 26641644 
2256.462 26636254 26616244 26584610 26547554 26511592 26480742 26455246 
2259.837 26432286 26407918 26379364 26346268 26310076 26272552 26234890 
2263.213 26196702 26157392 26116996 26077904 26043846 26018832 26004690 
2266.588 26000292 26001382 26002404 25999450 25991112 25979082 25966698 
2269.963 25956004 25947318 25938068 25925192 25906588 25882990 25857598 
2273.338 25834108 25815328 25800982 25788324 25773452 25753658 25729504 
2276.714 25703876 25681378 25665244 25656140 25651956 25648442 25642114 
2280.089 25631078 25615788 25597898 25578850 25558608 25535802 25508638 
2283.464 25476382 25440614 25403868 25369828 25340814 25316544 25295260 
2286.839 25274468 25252730 25230360 25209466 25191910 25178216 25167192 
2290.215 25155182 25138646 25115828 25087250 25056396 25027086 25002202 
2293.590 24982652 24967282 24953664 24940222 24927098 24916220 24910046 
2296.965 24909834 24915062 24923378 24932048 24939276 24945488 24953174 
2300.340 24965280 24983916 25009396 25039862 25072578 25106174 25140998 
2303.716 25178954 25223302 25276154 25337442 25405272 25475820 25546132 
2307.091 25614558 25680956 25746240 25811252 25875568 25938068 25996670 
2310.466 26050494 26100210 26147856 26196032 26246224 26298496 26351022 
2313.841 26401756 26449682 26495746 26543152 26596236 26658450 26731562 
2317.217 26814412 26903872 26995994 27087184 27174794 27257342 27333342 
2320.592 27401098 27458310 27502114 27530496 27542216 27537910 27519130 
2323.967 27488630 27449414 27405050 27360056 27318980 27287156 27269124 
2327.342 27267220 27280662 27305748 27336306 27365418 27388040 27401662 
2330.718 27406816 27406426 27403814 27402226 27403920 27409956 27421320 
2334.093 27438932 27463252 27493784 27528978 27565342 27599130 27627696 
2337.468 27649660 27666044 27679394 27691754 27703866 27714248 27720006 
2340.843 27717992 27706692 27686138 27656650 27617774 27565412 27491666 
2344.219 27387756 27245594 27064260 26851880 26626776 26412706 26234784 
2347.594 26114954 26066680 26095530 26198884 26368062 26589014 26843632 
2350.969 27113988 27382218 27633980 27860736 28060040 28233832 28386154 
2354.344 28521084 28640482 28743806 28829840 28897862 28948826 28985132 
2357.719 29009396 29023106 29025902 29016056 28991082 28950138 28893792 
2361.095 28824422 28744796 28656444 28559546 28453224 28336848 28211592 
2364.470 28081706 27952072 27828020 27712096 27603402 27497772 27389382 
2367.845 27273712 27148234 27013624 26872570 26727932 26582002 26435068 
2371.220 26287548 26139164 25991146 25845324 25703208 25565180 25429724 
2374.596 25294100 25154938 25010272 24860502 24707622 24555008 24405356 
2377.971 24260348 24120114 23983744 23850706 23721522 23598046 23482682 
2381.346 23377910 23284736 23202972 23131640 23069442 23015772 22970498 
2384.721 22933432 22904372 22882018 22864696 22850656 22839374 22831134 
2388.097 22827292 22828968 22836128 22847094 22859702 22871052 22879958 
2391.472 22887118 22894872 22905596 22921068 22940104 22960156 22977588 
2394.847 22989432 22994742 22995126 22993274 22991806 22992260 22993904 
2398.222 22995090 22993832 22989082 22980976 22970986 22960610 22950794 
2401.598 22941784 22933294 22925574 22919600 22917018 22919356 22927566 
2404.973 22940700 22956804 22973116 22987824 23000052 23010254 23019336 
2408.348 23027618 23034604 23039216 23040648 23039496 23037644 23038518 
2411.723 23045052 23058714 23078944 23102882 23127588 23150862 23172320 
2415.099 23193118 23215242 23239394 23264808 23288998 23309136 23323506 
2418.474 23332492 23338086 23343330 23350252 23359378 23369064 23376896 
2421.849 23381092 23381266 23379030 23376476 23375532 23376408 23378154 
2425.224 23378854 23376896 23372596 23366722 23361512 23357910 23355848 
2428.600 23354412 23352244 23348854 23345288 23343366 23344798 23349972 
2431.975 23356826 23361756 23361546 23354064 23340078 23322876 23306094 
2435.350 23292774 23283266 23275402 23265332 23250128 23228314 23200876 
2438.725 23170502 23139992 23110988 23083976 23058364 23034010 23011894 
2442.101 22994322 22983562 22981082 22985904 22995196 23004838 23010812 
2445.476 23011022 23005678 22996454 22985484 22974584 22964104 22953868 
2448.851 22943284 22932806 22923374 22916598 22912860 22911882 22911882 
2452.226 22910868 22906992 22899936 22890646 22880586 22871296 22863124 
2455.602 22855790 22848560 22840946 22833754 22828410 22826138 22827990 
2458.977 22833298 22841018 22849364 22857850 22867070 22878282 22892322 
2462.352 22909228 22927426 22943878 22956138 22962882 22964664 22964242 
2465.727 22964908 22969518 22979230 22993238 23009728 23026534 23042466 
2469.103 23056862 23069582 23080762 23089638 23095298 23097394 23096136 
2472.478 23092818 23089846 23088694 23089882 23092642 23094774 23094390 
2475.853 23090652 23084466 23077688 23072690 23070558 23071154 23073388 
2479.228 23075730 23077372 23078910 23081670 23086842 23094774 23103964 
2482.604 23112072 23117348 23119132 23118850 23119410 23124126 23134716 
2485.979 23151490 23172252 23194270 23215416 23234642 23251804 23268130 
2489.354 23284002 23299068 23312352 23322736 23329868 23334660 23338504 
2492.729 23342840 23347946 23352560 23354728 23352456 23345568 23335254 
2496.104 23324520 23316338 23312492 23313086 23316410 23319764 23321338 
2499.480 23320464 23318192 23316374 23316128 23318086 23321792 23326198 
2502.855 23330814 23335778 23341860 23349518 23358190 23366336 23371372 
2506.230 23370918 23364310 23352770 23338890 23325568 23315150 23308122 
2509.605 23302948 23297530 23289768 23278896 23265472 23251036 23237262 
2512.981 23225274 23215170 23206644 23199722 23193886 23189272 23186022 
2516.356 23183052 23179032 23172252 23161732 23147542 23131292 23115216 
2519.731 23101378 23091418 23085024 23080866 23077720 23074054 23069406 
2523.106 23063710 23056968 23048442 23037226 23021888 23001940 22978076 
2526.482 22951912 22925750 22901438 22879050 22857188 22833578 22806234 
2529.857 22774354 22739018 22702462 22667414 22635750 22607828 22582766 
2533.232 22559068 22535406 22511222 22487108 22463730 22441574 22420464 
2536.607 22399844 22378878 22357250 22335236 22313124 22291324 22269418 
2539.983 22247062 22223628 22199250 22174982 22152944 22134848 22121808 
2543.358 22113336 22107478 22102074 22094580 22084574 22072478 22060310 
2546.733 22049852 22041904 22036780 22033538 22031272 22029320 22027820 
2550.108 22027404 22028100 22029808 22031864 22033538 22034968 22037268 
2553.484 22042460 22052466 22068782 22090988 22117590 22146040 22174110 
2556.859 22200750 22225720 22249678 22272976 22295648 22316682 22335028 
2560.234 22350448 22363424 22375564 22388890 22404556 22422558 22441502 
2563.609 22459890 22476292 22490878 22504730 22519806 22537918 22559206 
2566.985 22582626 22606466 22628664 22648354 22665876 22682634 22699810 
2570.360 22718418 22738006 22757594 22775820 22791532 22804454 22814930 
2573.735 22823136 22829422 22834242 22837908 22841506 22846570 22854916 
2577.110 22867314 22884044 22903430 22922570 22938638 22949082 22952890 
2580.486 22950654 22943774 22933748 22921696 22907864 22892218 22874894 
2583.861 22857082 22840772 22828270 22821424 22821076 22826838 22837246 
2587.236 22850482 22864836 22879084 22892462 22904618 22915166 22924318 
2590.611 22932210 22939826 22948456 22959318 22973082 22989572 23007668 
2593.987 23025730 23042606 23058084 23072830 23088240 23105012 23123568 
2597.362 23142440 23159460 23172846 23181408 23185462 23186370 23185568 
2600.737 23184170 23181756 23177318 23169664 23158410 23144432 23129718 
2604.112 23116614 23106656 23099876 23094740 23089044 23080796 23069056 
2607.488 23054590 23038868 23023984 23011372 23001832 22995160 22990760 
2610.863 22988068 22986566 22985972 22985518 22984052 22980382 22973082 
2614.238 22961868 22947546 22931616 22916318 22903498 22894348 22888726 
2617.613 22885896 22884672 22883590 22882090 22879400 22875208 22869270 
2620.989 22861342 22851284 22839374 22826138 22812242 22798238 22784446 
2624.364 22770722 22757174 22743696 22730744 22719222 22709654 22702288 
2627.739 22696598 22691222 22684728 22676316 22665562 22653694 22642208 
2631.114 22632818 22626572 22623500 22622906 22623744 22625034 22626500 
2634.490 22628176 22631038 22635472 22641964 22650518 22661408 22674744 
2637.865 22690978 22710318 22732664 22757594 22784060 22810878 22837314 
2641.240 22862948 22888480 22914012 22940036 22966026 22991072 23013852 
2644.615 23033278 23049174 23061998 23073040 23083802 23095368 23108438 
2647.990 23122904 23138560 23155020 23172006 23189166 23205944 23221462 
2651.366 23234292 23243624 23248904 23250406 23249426 23247120 23244778 
2654.741 23242926 23241562 23239988 23237858 23234956 23232194 23230690 
2658.116 23231284 23234502 23240234 23247748 23256348 23265858 23276694 
2661.491 23289944 23306830 23328156 23353924 23383646 23416200 23450192 
2664.867 23484570 23518218 23550398 23580692 23608296 23633066 23655110 
2668.242 23674702 23692162 23708260 23723202 23736674 23748294 23757324 
2671.617 23763516 23767402 23770132 23773002 23777552 23784796 23795156 
2674.992 23808492 23824594 23842970 23863342 23885396 23908712 23932834 
2678.368 23957062 23981152 24005068 24029580 24055354 24083304 24113704 
2681.743 24146208 24179942 24213786 24247174 24279862 24312276 24344900 
2685.118 24378160 24411736 24445106 24477846 24509466 24540704 24572644 
2688.493 24606728 24644038 24685106 24729754 24777390 24827276 24879202 
2691.869 24933520 24990864 25051762 25116458 25184922 25256978 25332454 
2695.244 25412088 25496200 25585878 25681414 25782698 25888686 25998006 
2698.619 26109358 26221762 26334616 26447498 26559776 26670392 26777830 
2701.994 26880148 26975474 27062322 27139380 27206188 27261998 27306454 
2705.370 27339306 27360514 27370854 27371666 27365244 27353528 27338670 
2708.745 27321840 27303526 27283944 27262882 27240832 27218042 27195606 
2712.120 27174618 27155958 27140404 27128694 27121570 27119418 27122592 
2715.495 27130950 27143860 27159944 27178108 27197404 27217652 27239878 
2718.871 27265174 27294634 27328860 27366972 27407486 27448426 27488630 
2722.246 27527074 27563894 27599448 27633876 27666856 27697262 27723892 
2725.621 27745402 27761612 27773126 27781394 27787856 27793898 27800256 
2728.996 27807356 27815022 27823218 27831448 27839468 27846746 27852538 
2732.372 27856144 27857344 27856636 27855012 27854094 27855084 27858862 
2735.747 27864906 27872218 27879108 27884372 27887552 27889284 27890730 
2739.122 27893700 27899460 27909564 27924546 27945040 27971332 28003702 
2742.497 28041942 28085770 28134200 28186348 28241046 28297802 28356300 
2745.873 28416716 28478908 28542278 28605940 28668868 28730424 28790856 
2749.248 28851544 28914542 28982192 29056192 29137078 29224538 29317614 
2752.623 29414824 29515742 29619734 29727052 29837308 29950360 30065324 
2755.998 30181560 30298432 30415798 30534156 30654108 30775838 30898882 
2759.374 31022744 31145824 31267334 31386956 31504724 31621348 31737432 
2762.749 31853438 31969194 32084372 32198366 32311000 32421734 32530210 
2766.124 32635714 32737668 32834790 32926212 33011898 33092060 33167622 
2769.499 33239622 33308874 33375386 33438940 33498884 33554936 33607236 
2772.875 33656896 33704768 33752000 33799276 33847304 33896096 33946324 
2776.250 33999068 34055864 34118472 34188228 34265956 34351224 34443648 
2779.625 34542012 34645672 34753844 34866460 34983268 35104284 35229424 
2783.000 35358552 35491960 35630304 35774052 35923856 36079512 36240340 
2786.375 36404644 36570708 36736728 36901112 37062788 37220908 37375040 
2789.751 37524640 37669416 37809212 37944644 38076500 38206372 38335484 
2793.126 38464744 38594692 38724936 38854892 38983908 39111728 39238212 
2796.501 39363788 39488016 39610656 39730964 39848328 39962308 40073012 
2799.876 40181056 40287196 40392168 40495816 40597816 40697040 40792496 
2803.252 40883024 40968220 41047676 41121324 41189476 41252508 41310628 
2806.627 41364708 41415548 41463996 41510440 41554520 41595428 41632004 
2810.002 41663112 41688608 41709724 41728180 41746676 41767504 41792052 
2813.377 41820620 41852652 41886952 41922748 41959316 41996980 42035816 
2816.753 42076296 42117988 42159936 42200688 42238412 42271644 42299220 
2820.128 42320584 42336072 42346152 42351848 42354480 42355248 42354880 
2823.503 42353824 42351960 42348784 42344072 42337640 42330336 42323540 
2826.878 42319380 42319852 42326572 42340636 42362188 42391048 42427032 
2830.254 42470472 42522032 42582368 42652764 42733880 42826464 42930988 
2833.629 43048560 43179816 43326816 43491300 43674752 43878444 44103060 
2837.004 44348344 44613888 44899324 45204432 45529772 45876052 46244284 
2840.379 46635508 47050940 47491352 47957560 48449712 48967792 49510928 
2843.755 50077344 50663792 51265276 51874724 52483012 53077960 53645188 
2847.130 54169096 54631520 55015184 55303816 55483368 55544700 55483216 
2850.505 55300804 55004316 54605892 54121728 53568944 52965388 52328164 
2853.880 51670644 51003980 50336000 49671008 49011820 48359776 47715632 
2857.256 47080004 46454120 45839044 45236420 44647780 44075152 43521516 
2860.631 42989844 42484068 42007820 41564000 41154760 40780996 40442168 
2864.006 40137880 39867064 39629164 39423756 39250540 39108756 38997284 
2867.381 38914284 38857284 38823696 38810836 38815652 38835436 38867068 
2870.757 38908052 38954984 39005256 39055972 39104988 39150164 39190380 
2874.132 39224760 39253336 39277492 39299252 39321272 39346444 39377248 
2877.507 39414836 39459608 39510808 39567100 39627352 39690664 39756488 
2880.882 39824500 39894272 39964340 40033332 40099284 40160340 40215948 
2884.258 40265968 40311884 40355112 40397476 40440460 40485268 40532588 
2887.633 40583080 40636852 40693980 40753732 40814988 40876036 40934832 
2891.008 40989704 41039740 41084716 41125364 41162448 41196948 41229264 
2894.383 41259104 41285848 41308844 41327972 41343460 41356760 41369336 
2897.759 41382892 41399260 41419708 41445440 41476936 41514560 41558640 
2901.134 41608596 41664244 41725156 41790924 41861664 41938072 42021288 
2904.509 42113460 42216936 42335412 42472776 42633756 42823208 43046840 
2907.884 43309904 43618076 43976512 44389444 44860228 45390264 45978548 
2911.260 46620608 47308428 48030940 48773272 49517980 50247868 50944364 
2914.635 51590340 52171924 52677260 53098064 53430576 53674248 53832272 
2918.010 53910708 53918396 53865052 53760640 53614712 53434660 53225916 
2921.385 52991552 52732400 52447528 52134524 51790608 51412728 50998392 
2924.760 50546448 50057340 49533096 48977620 48395928 47793780 47176876 
2928.136 46551188 45922716 45297540 44682956 44087252 43518952 42987284 
2931.511 42499960 42063268 41681204 41355268 41084756 40867260 40699148 
2934.886 40575696 40490832 40438312 40410604 40400128 40400312 40404824 
2938.261 40409184 40410568 40407548 40399948 40388128 40373040 40355584 
2941.637 40336716 40317484 40299120 40283056 40270948 40264876 40266876 
2945.012 40279128 40303596 40342060 40396020 40467084 40556708 40666908 
2948.387 40799376 40955148 41133560 41331796 41543292 41758204 41964680 
2951.762 42148400 42295892 42395872 42439856 42423560 42346700 42211788 
2955.138 42023844 41788916 41514160 41206384 40872468 40519388 40153796 
2958.513 39782196 39410948 39045784 38692084 38354520 38036284 37739636 
2961.888 37464860 37210764 36974780 36753640 36544180 36343756 36150912 
2965.263 35965140 35786572 35615632 35452556 35297124 35148720 35006724 
2968.639 34870840 34740852 34617216 34500396 34391176 34290156 34197692 
2972.014 34114136 34039232 33972980 33915156 33865716 33824956 33793616 
2975.389 33772988 33764572 33769800 33789820 33824776 33874316 33937044 
2978.764 34011856 34097472 34193248 34299012 34414632 34539644 34672876 
2982.140 34812428 34955584 35100004 35243184 35383064 35518064 35646560 
2985.515 35766892 35876784 35974072 36056400 36122108 36170144 36200180 
2988.890 36212640 36207960 36186492 36148252 36093088 36021048 35932856 
2992.265 35830364 35716488 35595488 35472688 35353304 35242140 35143008 
2995.641 35058160 34987688 34930808 34885524 34850124 34823484 34805968 
2999.016 34798680 34803632 34822552 34856048 34903408 34962620 35030356 
3002.391 35103596 35179008 35254576 35329148 35402368 35474740 35547012 
3005.766 35620664 35697244 35778152 35864728 35957332 36055820 36158584 
3009.142 36263388 36368108 36470552 36569844 36665732 36759084 36851048 
3012.517 36942456 37033920 37125504 37216936 37307876 37398224 37488300 
3015.892 37578504 37669380 37761500 37855124 37950540 38047928 38147472 
3019.267 38249500 38354088 38461412 38571700 38685236 38802212 38922332 
3022.643 39045276 39169856 39294468 39417192 39536248 39650580 39760228 
3026.018 39866232 39970516 40075120 40181528 40289672 40399188 40508544 
3029.393 40616552 40722328 40826308 40929880 41034860 41142488 41253600 
3032.768 41367624 41483424 41599332 41714212 41827628 41940448 42054540 
3036.144 42172204 42296076 42428092 42569428 42720684 42881468 43051012 
3039.519 43228092 43411836 43601296 43795424 43993564 44193840 44394180 
3042.894 44591856 44782900 44963260 45128768 45275840 45401924 45506148 
3046.269 45589200 45653684 45703304 45743096 45778256 45813268 45852044 
3049.645 45896600 45948088 46005920 46068988 46136232 46206580 46279628 
3053.020 46355160 46433324 46514012 46596664 46680556 46764752 46848380 
3056.395 46930844 47011992 47091892 47170708 47248428 47325240 47401100 
3059.770 47475980 47550164 47623740 47697212 47770736 47844568 47918520 
3063.146 47992492 48066396 48140056 48213320 48285784 48356740 48424928 
3066.521 48488984 48547780 48600916 48648760 48692792 48735124 48777680 
3069.896 48822132 48869148 48918244 48968720 49019384 49069652 49119844 
3073.271 49171384 49225860 49285428 49351456 49424632 49504688 49590104 
3076.646 49679328 49770316 49861252 49950976 50038752 50124460 50208328 
3080.022 50290836 50372200 50452428 50531188 50607836 50681220 50749736 
3083.397 50811300 50863560 50904576 50933076 50948724 50952752 50947644 
3086.772 50937324 50925888 50917056 50913628 50916756 50926708 50942504 
3090.147 50963516 50989448 51021124 51060032 51107660 51165360 51233396 
3093.523 51311212 51397324 51489940 51587468 51688820 51793184 51900264 
3096.898 52009460 52119652 52228868 52334892 52435300 52527840 52611128 
3100.273 52685264 52750920 52810036 52864820 52917736 52971000 53026404 
3103.648 53085296 53149104 53219100 53296408 53382316 53477268 53581388 
3107.024 53694080 53814308 53941428 54075568 54218872 54375216 54551040 
3110.399 54754824 54995252 55282516 55625856 56033660 56513396 57071192 
3113.774 57711780 58438368 59251884 60150640 61129324 62178240 63281780 
3117.149 64415916 65548748 66639380 67636376 68485632 69131056 69520408 
3120.525 69615576 69394048 68853352 68010672 66902212 65577844 64091176 
3123.900 62500672 60860812 59216868 57609428 56070264 54622352 53282812 
3127.275 52060896 50959384 49974584 49098552 48320148 47626844 47007040 
3130.650 46450768 45949528 45496952 45087816 44717628 44382948 44080508 
3134.026 43807408 43561004 43338240 43136012 42950520 42777868 42614016 
3137.401 42455640 42299472 42143436 41986028 41826896 41666468 41506028 
3140.776 41347432 41192464 41042580 40898172 40759048 40623540 40490068 
3144.151 40357188 40223984 40090452 39957184 39824612 39692512 39560204 
3147.527 39426516 39290548 39152160 39012364 38872832 38735296 38600812 
3150.902 38469268 38339284 38208792 38075848 37939220 37798912 37655720 
3154.277 37510844 37365544 37220184 37074984 36929612 36784004 36638080 
3157.652 36492356 36347000 36202484 36059132 35916840 35776100 35637388 
3161.028 35500952 35367356 35236320 35106904 34978172 34849192 34719244 
3164.403 34588760 34458424 34328988 34201096 34074532 33948508 33822196 
3167.778 33694848 33566820 33439546 33313994 33191800 33072822 32956634 
3171.153 32841616 32726452 32610246 32493286 32376536 32261462 32149304 
3174.529 32040600 31935170 31832368 31731300 31631290 31532124 31433512 
3177.904 31335388 31237534 31139844 31041964 30944068 30846230 30748844 
3181.279 30652010 30555804 30459406 30362636 30265252 30167282 30069584 
3184.654 29973010 29878372 29786098 29695866 29606576 29517090 29426204 
3188.030 29333140 29237474 29139454 29039612 28938556 28837310 28736902 
3191.405 28638498 28543092 28450924 28361640 28274036 28186594 28097082 
3194.780 28004020 27906630 27805060 27700370 27594292 27488382 27384298 
3198.155 27282922 27184776 27089688 26997192 26906620 26817196 26728636 
3201.531 26641080 26555022 26471586 26391722 26315674 26243162 26172734 
3204.906 26102356 26029880 25954176 25874900 25793424 25711926 25632658 
3208.281 25557236 25486642 25420134 25356514 25293994 25231414 25167438 
3211.656 25101856 25034526 24965912 24896886 24828574 24762130 24698750 
3215.031 24638638 24581656 24526014 24469678 24410508 24347318 24280074 
3218.407 24210176 24140150 24072236 24007974 23947714 23890366 23834568 
3221.782 23778846 23722292 23665116 23608052 23551694 23497022 23444072 
3225.157 23392912 23343294 23295362 23248832 23203638 23159216 23114972 
3228.532 23070174 23024892 22979860 22936576 22897004 22862460 22833160 
3231.908 22807668 22782698 22755078 22721560 22680748 22632958 22580636 
3235.283 22526890 22475104 22427792 22385786 22349366 22317098 22287730 
3238.658 22259898 22232798 22205842 22178958 22152072 22124946 22097404 
3242.033 22068850 22038524 22006002 21971076 21934306 21896600 21859630 
3245.409 21824438 21792106 21762250 21733580 21704424 21673216 21639328 
3248.784 21603180 21566336 21530578 21497536 21467772 21440478 21414372 
3252.159 21387604 21358924 21328228 21295758 21262666 21229506 21196104 
3255.534 21162184 21126772 21089484 21050006 21008932 20967308 20925930 
3258.910 20885842 20847010 20809850 20774084 20739814 20706902 20675452 
3262.285 20645046 20615234 20585702 20556348 20527306 20499758 20475028 
3265.660 20454710 20440158 20431786 20429460 20431856 20436996 20441928 
3269.035 20443420 20437968 20422932 20396988 20360424 20315666 20266504 
3272.411 20217104 20171076 20130330 20094826 20062728 20031914 20000306 
3275.786 19967348 19933694 19900810 19870114 19841742 19814688 19787502 
3279.161 19758302 19726264 19691764 19656330 19621664 19589426 19560174 
3282.536 19533692 19509570 19487288 19466876 19448650 19432780 19419162 
3285.912 19406688 19394180 19380322 19365494 19350840 19338610 19331092 
3289.287 19329602 19333586 19341070 19348274 19351498 19348068 19336740 
3292.662 19317720 19292606 19262992 19230538 19196390 19161068 19124674 
3296.037 19087798 19050582 19013296 18976156 18939328 18902676 18866962 
3299.413 18833466 18803986 18780942 18766480 18762328 18768694 18784956 
3302.788 18808690 18836372 18863916 18886688 18900288 18901014 18886618 
3306.163 18856546 18811632 18754822 18689922 18620194 18549022 18478830 
3309.538 18410690 18345290 18283564 18226132 18174406 18129736 18092912 
3312.914 18064206 18043310 18029010 18020134 18015298 18013020 18012224 
3316.289 18011534 18009946 18006700 18001760 17995992 17991226 17989466 
3319.664 17992402 18001104 18015332 18033950 18054914 18076606 18097610 
3323.039 18117680 18136402 18153746 18169156 18182180 18192098 18198766 
3326.415 18202912 18206194 18210652 18218080 18229276 18244308 18262070 
3329.790 18281076 18300118 18318436 18335440 18351374 18365650 18377574 
3333.165 18386146 18390260 18389498 18384348 18376052 18365994 18355486 
3336.540 18344668 18332676 18317986 18298424 18272574 18239540 18199768 
3339.916 18154092 18103758 18049838 17992402 17931520 17866986 17798872 
3343.291 17727628 17654808 17581896 17511276 17444770 17383964 17329582 
3346.666 17281378 17238418 17198532 17158960 17116460 17068038 17011180 
3350.041 16944854 16869306 16786608 16699759 16612826 16529281 16451776 
3353.417 16381923 16319925 16265020 16216213 16172327 16132642 16096501 
3356.792 16063562 16033065 16003774 15974175 15942620 15907733 15869068 
3360.167 15826730 15781682 15735023 15688231 15642580 15598889 15558123 
3363.542 15521308 15489305 15462935 15442506 15427228 15415625 15404879 
3366.917 15391799 15373605 15347997 15313638 15271011 15220838 15164598 
3370.293 15104214 15040991 14976166 14911282 14847367 14786033 14728650 
3373.668 14676620 14631245 14593071 14562301 14538556 14520672 14507277 
3377.043 14496313 14486173 14475039 14462022 14446950 14430200 14412423 
3380.418 14394646 14376973 14359403 14341013 14320979 14298481 14273655 
3383.794 14247290 14220619 14195353 14172827 14153998 14139417 14129455 
3387.169 14123671 14122404 14125451 14131851 14140546 14149207 14155095 
3390.544 14155334 14147803 14131269 14106351 14074896 14039201 14002003 
3393.919 13965252 13929839 13896002 13863777 13833058 13805078 13781033 
3397.295 13762804 13751757 13747892 13749945 13754767 13758563 13757400 
3400.670 13748303 13729836 13702478 13668180 13629578 13589543 13550297 
3404.045 13513039 13478209 13446014 13416419 13389594 13365571 13344660 
3407.420 13326381 13310187 13295120 13280635 13266560 13253373 13241656 
3410.796 13232091 13224611 13218053 13210913 13201077 13187140 13168697 
3414.171 13146770 13123274 13100599 13080622 13064198 13051052 13039852 
3417.546 13028858 13016533 13001886 12984646 12965390 12945079 12925110 
3420.921 12906848 12891215 12878757 12869302 12862033 12855479 12848108 
3424.297 12838347 12825550 12809783 12791901 12773167 12754536 12736418 
3427.672 12718983 12701447 12683297 12664226 12644611 12625065 12606611 
3431.047 12589591 12573901 12558996 12544057 12528131 12511387 12494233 
3434.422 12477762 12462827 12450279 12440050 12431866 12424945 12418126 
3437.798 12410454 12400771 12388090 12371521 12350520 12324682 12294992 
3441.173 12262680 12229757 12198507 12170530 12146711 12126778 12109607 
3444.548 12093457 12076082 12055811 12031523 12002842 11970653 11936322 
3447.923 11902062 11870154 11842675 11820407 11803417 11790139 11778086 
3451.299 11764843 11748639 11728656 11705576 11681410 11658128 11637299 
3454.674 11619568 11604356 11590301 11575941 11560526 11544124 11527793 
3458.049 11512447 11498566 11486249 11474172 11460835 11445085 11426034 
3461.424 11404230 11380964 11357733 11335830 11315696 11296855 11278356 
3464.800 11258770 11237823 11215144 11191854 11169109 11147964 11129028 
3468.175 11112032 11095648 11078415 11059244 11037526 11014245 10990797 
3471.550 10969183 10950970 10936699 10925486 10915666 10904623 10890150 
3474.925 10871362 10848667 10823699 10798596 10775634 10756035 10740276 
3478.301 10727404 10715857 10704310 10691541 10677142 10661386 10644883 
3481.676 10627938 10610961 10593476 10575142 10555281 10533351 10508875 
3485.051 10482093 10453412 10423171 10392322 10361203 10330392 10300363 
3488.426 10271796 10245639 10223419 10205949 10194144 10188208 10186682 
3491.802 10187156 10186682 10182306 10172063 10155612 10134311 10110707 
3495.177 10087781 10067536 10050885 10037491 10026301 10016332 10007449 
3498.552 9999854 9994633 9992396 9992599 9993310 9991683 9984970 9970900 
3502.409 9949270 9921471 9890826 9860761 9834561 9814361 9800906 9793993 
3506.267 9792299 9794264 9797585 9799788 9798399 9791858 9779387 9762308 
3510.124 9743094 9725304 9711987 9704635 9702771 9703923 9704093 9700230 
3513.982 9690540 9675226 9657168 9639754 9626813 9620749 9622782 9632132 
3517.839 9647614 9667569 9690370 9715240 9740688 9765019 9786706 9803245 
3521.697 9813176 9815683 9811210 9801787 9790163 9778947 9770474 9765933 
3525.554 9765222 9767594 9772135 9777557 9783114 9788639 9794196 9799788 
3529.411 9806125 9813412 9821749 9831070 9841441 9852254 9863744 9875844 
3533.269 9888454 9901437 9914014 9925369 9934286 9939336 9940252 9937167 
3537.126 9931777 9926319 9923912 9927132 9937608 9955406 9979613 10007856 
3540.984 10037526 10066077 10091274 10111826 10126851 10135600 10137534 
3544.359 10131700 10117354 10094156 10062957 10025997 9986868 9949981 
3547.734 9919810 9899471 9889369 9887572 9889912 9890894 9884861 9867947 
3551.592 9839442 9801415 9758309 9715681 9678377 9649410 9628913 9615296 
3555.449 9605878 9597375 9586874 9572919 9554086 9530140 9501487 9469078 
3559.306 9434707 9401422 9373083 9353683 9346507 9353311 9373387 9403386 
3563.164 9437145 9467385 9486010 9484893 9458614 9404131 9322910 9221126 
3567.021 9108809 8998753 8901949 8826469 8775041 8745424 8731799 8726390 
3570.879 8722603 8714964 8700360 8678759 8651718 8621636 8591286 8562695 
3574.736 8536912 8514745 8495586 8479030 8464096 8449940 8435750 8420954 
3578.594 8405413 8389976 8376024 8365249 8359743 8361466 8371228 8389266 
3582.451 8414670 8445751 8480246 8515420 8547590 8572834 8587163 8586588 
3586.308 8568744 8533836 8484605 8427204 8369809 8319854 8283378 8263149 
3590.166 8258894 8267674 8284391 8303777 8319447 8326169 8320124 8299319 
3594.023 8264770 8219587 8169041 8119141 8075155 8040489 8016154 8000932 
3597.881 7991820 7985543 7979165 7971031 7961379 7951761 7944945 7942886 
3601.738 7947037 7957465 7973023 7991550 8011294 8030398 8047341 8060168 
3605.595 8067358 8065941 8052978 8026549 7986049 7933741 7875097 7817439 
3609.453 7767445 7729396 7703730 7686967 7673039 7655638 7631054 7598514 
3613.310 7561829 7526800 7500673 7488166 7490492 7504887 7524979 7542342 
3617.168 7548141 7534217 7496223 7434604 7354660 7266948 7184172 7117747 
3621.025 7075647 7060963 7071639 7102557 7147253 7199668 7256301 7314963 
3624.883 7375049 7435480 7491908 7536509 7556806 7538330 7469659 7348695 
3628.740 7188248 7013649 6856221 6738490 6668331 6639463 6637814 6647066 
3632.597 6653223 6648143 6629639 6601648 6570295 6542645 6522833 6511700 
3636.455 6507092 6505847 6505107 6503190 6499995 6495825 6491082 6485667 
3640.312 6479176 6471677 6464311 6459704 6462663 6477596 6508605 6556806 
3644.170 6620757 6694879 6771571 6841478 6895707 6926411 6929306 6902676 
3648.027 6848243 6770259 6674017 6567167 6457989 6357109 6275111 6220388 
3651.885 6197263 6204489 6235244 6277767 6318747 6345073 6346316 6319050 
3655.742 6268455 6207413 6152160 6116404 6107230 6123259 6156832 6197028 
3659.599 6234437 6261799 6276153 6278204 6272086 6263144 6256724 6257564 
3663.457 6269027 6293399 6331826 6384176 6449749 6526365 6610294 6696696 
3667.314 6778369 6848176 6899848 6931427 6947655 6963243 7000786 7082854 
3671.172 7227327 7439525 7712769 8029182 8362411 8681700 8948049 9122580 
3675.029 9174557 9093210 8894712 8613694 8290267 7954056 7621140 7301552 
3678.886 7002201 6732870 6505579 6329607 6209027 6139356 6110154 6108272 
3682.744 6122756 6147758 6182172 6227076 6282877 6345610 6406436 6453785 
3686.601 6475040 6461823 6412657 6335322 6243916 6154446 6079408 6023465 
3690.459 5985536 5961081 5946066 5938205 5937601 5943849 5956714 5973879 
3694.316 5992759 6010699 6026388 6039727 6052696 6067211 6084952 6105785 
3698.174 6127729 6148094 6162848 6168359 6162310 6143725 6113884 6076753 
3702.031 6037913 6004215 5982211 5976668 5990139 6022189 6070033 6129577 
3705.888 6195717 6263884 6330481 6392751 6448236 6494883 6529358 6547590 
3709.746 6545403 6519369 6468515 6395979 6309099 6218572 6135559 6069664 
3713.603 6026019 6005525 6005290 6020643 6046245 6077392 6110759 6144800 
3717.461 6178811 6213026 6247580 6281700 6313805 6341676 6363497 6378426 
3721.318 6387572 6393995 6400821 6411178 6426209 6444503 6461991 6473963 
3725.176 6476721 6469255 6454357 6439022 6432430 6442553 6474165 6527038 
3729.033 6595761 6671224 6742528 6800481 6838583 6856322 6857467 6849691 
3732.890 6839593 6828418 6811319 6779042 6722471 6637949 6530838 6415078 
3736.748 6309704 6229934 6183685 6170678 6185802 6222606 6276590 6346115 
3740.605 6430412 6526398 6626409 6715035 6770494 6770730 6700868 6566730 
3744.463 6399106 6247076 6153538 6136567 6188491 6284121 6393591 6487652 
3748.320 6545302 6555259 6517889 6443023 6345880 6241362 6139961 6048832 
3752.177 5974518 5923056 5899847 5906665 5939918 5990743 6047152 6098057 
3756.035 6134416 6152026 6151690 6137575 6114321 6084952 6050848 6012446 
3759.892 5972267 5935719 5910360 5902937 5916272 5947745 5989467 6030353 
3763.750 6061365 6076820 6077526 6069865 6063246 6065262 6078198 6099032 
3767.607 6119899 6132837 6131291 6113078 6081189 6042179 6003711 5971797 
3771.465 5950197 5939280 5938105 5944823 5957789 5975459 5996589 6020140 
3775.322 6044632 6068588 6089824 6105248 6111532 6105685 6086128 6054208 
3779.179 6014663 5975022 5943445 5925979 5924736 5936727 5956008 5975223 
3783.037 5988762 5993834 5991382 5984965 5979019 5976735 5979422 5985704 
3786.894 5994137 6002871 6011942 6021786 6033914 6048664 6065733 6084179 
3790.752 6103198 6123192 6145271 6171384 6202204 6237060 6271817 6301165 
3794.609 6319386 6322815 6312057 6292794 6274506 6267044 6276691 6304392 
3798.467 6344232 6384781 6410606 6407681 6365851 6285398 6178946 6070504 
3802.324 5986175 5943949 5949055 5993465 6060424 6128401 6176795 6190743 
3806.181 6164528 6104273 6027228 5955001 5904280 5882382 5887084 5910797 
3810.039 5945528 5986208 6031663 6083877 6144532 6212421 6281801 6342181 
3813.896 6381621 6389724 6362724 6307754 6243076 6192255 6174476 6198338 
3817.754 6258169 6337878 6414742 6466396 6473997 6428160 6333439 6209934 
3821.611 6088548 5996959 5952045 5954799 5993498 6049806 6105584 6148027 
3825.469 6170880 6176156 6172023 6169468 6177400 6198910 6231009 6266573 
3829.326 6297467 6316798 6322042 6314814 6300627 6286776 6279986 6285297 
3833.183 6305199 6338651 6382226 6430783 6476351 6510220 6524279 6513112 
3837.041 6475982 6418609 6351730 6288188 6238068 6206203 6191381 6188054 
3840.898 6189062 6188188 6181500 6167385 6146447 6120605 6092781 6066303 
3844.756 6045405 6034015 6035863 6053065 6085926 6133106 6192053 6260186 
3848.613 6336129 6419383 6509177 6602960 6693196 6766759 6805429 6788702 
3852.470 6702955 6550617 6357075 6163150 6008919 5917413 5888831 5908680 
3856.328 5956613 6016074 6075477 6129375 6176492 6218068 6255076 6287415 
3860.185 6314377 6335289 6349813 6358857 6363094 6361850 6353377 6336095 
3864.043 6310141 6280490 6255984 6247849 6264657 6307922 6370626 6437542 
3867.900 6490780 6512978 6494109 6436735 6357210 6280355 6227110 6208052 
3871.758 6219648 6248387 6277195 6292256 6287449 6265968 6238471 6218472 
3875.615 6217665 6240790 6285297 6342349 6400249 6446420 6469961 6464345 
3879.472 6429605 6372946 6307687 6249967 6214169 6207682 6229228 6269363 
3883.330 6313973 6346216 6352402 6326715 6273532 6207817 6149942 6118454 
3887.187 6123159 6162041 6224152 6293937 6354823 6392515 6398769 6372609 
3891.045 6321134 6256993 6194910 6147724 6122890 6122924 6145843 6187886 
3894.902 6243345 6306275 6371029 6431791 6483044 6520546 6541602 6545403 
3898.760 6534606 6513852 6489064 6465455 6445815 6429303 6412590 6390094 
3902.617 6357445 6313032 6259480 6203044 6152160 6114825 6095133 6093823 
3906.474 6107600 6131593 6160327 6189801 6217026 6240959 6261228 6277767 
3910.332 6290810 6300963 6308964 6316663 6326009 6339155 6356941 6378830 
3914.189 6401998 6422846 6437172 6442351 6437744 6425200 6408017 6390128 
3918.047 6374728 6362959 6355058 6350317 6348300 6348939 6352805 6360236 
3921.904 6370861 6382966 6393827 6400922 6402334 6398164 6390397 6382528 
3925.761 6378292 6380276 6389152 6403612 6421098 6437912 6450893 6457720 
3929.619 6457249 6449043 6434347 6414607 6392313 6370121 6351360 6339155 
3933.476 6335625 6341542 6356033 6376678 6399677 6421636 6439425 6451363 
3937.334 6457249 6458762 6457921 6456778 6456677 6457619 6458695 6458123 
3941.191 6454424 6446992 6436331 6424393 6413532 6406201 6403679 6406100 
3945.049 6412018 6418811 6424259 6426243 6423855 6417701 6409261 6400417 
3948.906 6392952 6387942 6385084 6383874 6383403 6383067 6382865 6383403 
3952.763 6385185 6388917 6394566 6401392 6408588 6414978 6420156 6424158 
3956.621 6427050 6429673 6432565 6436129 6440636 6445714 6451666 6458056 
3960.478 6464816 6471508 6477427 6481766 6483717 6482943 6479647 6474871 
3964.336 6470230 6467473 6467809 6471609 6478369 6486777 6494782 6500870 
3968.193 6503863 6503560 6500500 6495623 6490544 6486475 6484356 6484390 
3972.051 6486777 6491116 6496665 6503493 6511296 6520546 6531343 6544024 
3975.908 6558522 6573928 6588663 6601042 6609588 6613322 6612716 6608847 
3979.765 6603532 6598687 6595593 6594785 6595862 6598250 6600740 6603431 
3983.623 6606358 6609957 6614937 6621429 6629067 6637175 6645081 6652214 
3987.480 6658843 6665303 6672133 6679636 6687913 6696023 6703425 6709079 
3991.338 6712646 6713992 6713386 6711199 6707901 6703796 6698614 6692624 
3995.195 6685861 6678896 6672671 6667927 6665773 6666413 6669778 6675396 
3999.052 6681789 6687813 6691547 6692221 
##END=
