
##TITLE=1132a_3_e
##JCAMP-DX=5.01  $$ Nicolet v. 1
##DATATYPE=INFRARED SPECTRUM
##ORIGIN=UniL
##OWNER=Nicolet
##LONGDATE=2011/09/21
##TIME=14:33:28
##SPECTROMETER/DATA SYSTEM=Nicolet iS5
##DATA PROCESSING=
Ratio against background
%Transmittance->Absorbance
Truncated
ElementMultiply or ElementDivide
##COMMENTS=
Number of sample scans: 32
Collection length: 51.18 sec
Sample gain: 2.0
Background collected on: Mer Sep 21 14:22:11 2011 (GMT+02:00);
Number of background scans: 32
Background gain: 2.0
Sample spacing:  1.000
Number of scan points: 12415
Resolution points: 8192
Number of FFT points: 65536
Apodization: N-B fort;
Phase correction: Mertz;
Laser frequency: 15798.0 cm-1
Number of rejected sample scans: 0
Number of rejected background scans: 0
Bench serial number: ASB1000141;
##RESOLUTION=4.000
##XUNITS=1/CM
##YUNITS=ABSORBANCE
##FIRSTX=649.893372
##LASTX=4000.122314
##FIRSTY=0.057582
##MAXX=4000.122314
##MINX=649.893372
##MAXY=0.325240
##MINY=0.003127
##XFACTOR=1.000000
##YFACTOR=1.000000E-009
##NPOINTS=6950
##DELTAX=0.482117
##ZPD=6100
##XYDATA=(X++(Y..Y))
649.893 57581696 58227092 58886084 59570972 60292456 61056136 61861160 
653.268 62704280 63586012 64518312 65520040 66613732 67818048 69142944 
656.643 70592728 72175992 73908168 75817840 77942064 80313704 82958232 
660.018 85888328 89102744 92585912 96294984 100146608 103990976 107623336 
663.393 110822128 113370136 115113896 115958320 115836904 114687424 
666.285 112447528 109122360 104882304 100156168 95557312 91608304 88548920 
669.660 86317736 84701376 83464488 82427120 81486512 80601344 79776944 
673.035 79039864 78422024 77944848 77615376 77430752 77382048 77461008 
676.410 77659112 77970616 78390232 78912336 79530432 80238368 81031104 
679.785 81909144 82881192 83966872 85192624 86590896 88192352 90021248 
683.159 92098368 94445096 97089808 100078840 103474312 107347408 111776512 
686.534 116834432 122586856 129098352 136425520 144602512 153594048 
689.427 163236640 173160272 182699856 190972544 196920736 199501072 
692.320 198011536 192221760 182501472 169708288 155064784 139908208 
695.212 125393528 112481872 101781640 93537008 87731976 84136800 82422992 
698.587 82229840 83263560 85338944 88371616 92347112 97235680 102882464 
701.962 108947056 114853192 119814576 123044072 123878152 121984856 
704.855 117470328 110853304 102943776 94586256 86568040 79443416 73476608 
708.229 68711512 65021484 62211388 60072668 58439204 57194396 56252016 
711.604 55548204 55028724 54645312 54366016 54176228 54077180 54076280 
714.979 54175404 54363124 54616524 54906508 55209592 55515972 55828560 
718.354 56158416 56514072 56896612 57298088 57707276 58116736 58528860 
721.729 58955988 59416776 59927760 60497772 61127000 61808100 62529832 
725.104 63278252 64038372 64790248 65507100 66159948 66721588 67177744 
728.478 67535888 67829552 68114848 68453248 68902712 69499096 70250832 
731.853 71143120 72148920 73243408 74411920 75654688 76982384 78407456 
735.228 79936232 81566824 83293576 85114616 87041120 89101280 91332576 
738.603 93776592 96466448 99419328 102639744 106127616 109889000 113945920 
741.978 118339304 123123168 128369616 134169120 140637680 147939344 
744.870 156270000 165816464 176679440 188744256 201560400 214184448 
747.763 225282800 233272336 236653136 234593712 227214512 215692848 
750.656 201843088 187775152 175410160 166044080 160399472 158535168 
753.548 159989456 163899824 169212496 174927840 180131424 184171312 
756.441 186672208 187460096 186514368 183881200 179624848 173814192 
759.334 166545168 157985968 148398272 138156896 127744512 117660176 
762.227 108404352 100413032 93969896 89215688 86113664 84477336 83993856 
765.601 84287560 85001480 85803208 86441072 86755336 86653952 86116528 
768.976 85177776 83923664 82475120 80972808 79565648 78371776 77467152 
772.351 76876264 76578072 76525832 76669344 76976768 77436928 78053176 
775.726 78831088 79766392 80841712 82034080 83322760 84699040 86166192 
779.101 87732952 89401480 91160960 92984608 94838656 96693624 98529680 
782.475 100340680 102126952 103885152 105601144 107247248 108786384 
785.368 110183720 111411120 112450448 113290904 113920376 114320264 
788.261 114466136 114330440 113891776 113144048 112096840 110773552 
791.154 109200784 107404392 105402552 103208480 100837248 98310112 95655552 
794.528 92908480 90099192 87249840 84374192 81480840 78584392 75712864 
797.903 72906792 70216480 67691288 65364948 63255528 61364724 59685500 
801.278 58209056 56929096 55838772 54925460 54167484 53533712 52988220 
804.653 52500508 52051296 51633776 51249840 50903420 50594544 50319144 
808.028 50072736 49859020 49694076 49607968 49640808 49829924 50205240 
811.402 50780688 51551572 52492508 53554212 54665604 55723300 56602092 
814.777 57173496 57314988 56947608 56053264 54683864 52949852 50997572 
818.152 48985596 47042596 45259036 43684208 42330480 41190608 40247316 
821.527 39480904 38868408 38381524 37990964 37666056 37383924 37134132 
824.902 36917456 36741812 36614288 36535168 36496028 36484068 36488032 
828.277 36503884 36536396 36594860 36686572 36811880 36963380 37129440 
831.651 37300872 37475692 37659224 37861232 38088908 38342180 38613780 
835.026 38892652 39171920 39452384 39744396 40061492 40416424 40813936 
838.401 41250468 41717528 42208536 42723428 43270480 43862720 44512260 
841.776 45226384 46005736 46847272 47749024 48713176 49746984 50858492 
845.151 52051144 53319484 54646776 56008628 57372500 58700648 59952028 
848.525 61075776 62014012 62707992 63101620 63159136 62876500 62288940 
851.900 61467740 60507788 59517080 58587672 57788796 57161360 56716740 
855.275 56445548 56324176 56323648 56410792 56552984 56723688 56903300 
858.650 57082568 57264364 57460160 57685780 57955104 58278624 58662112 
862.025 59108920 59623232 60209744 60869580 61593152 62353656 63103116 
865.400 63770628 64278700 64550600 64524344 64169296 63487248 62514828 
868.774 61313936 59968196 58572540 57217604 55992988 54973856 54213504 
872.149 53746876 53587048 53732252 54173716 54904140 55923824 57243576 
875.524 58882632 60865236 63216276 65951132 69066960 72525048 76242216 
878.899 80069480 83783960 87123112 89787888 91499520 92067816 91414896 
882.274 89614840 86871792 83508496 79896208 76381568 73278832 70812296 
885.648 69115632 68254640 68231648 69005776 70497744 72599568 75167096 
889.023 78005072 80886664 83540752 85668472 87001648 87315992 86482152 
892.398 84495168 81476752 77660944 73334648 68820440 64409152 60314500 
895.773 56680872 53567108 50968436 48840524 47122436 45752520 44671060 
899.148 43826212 43170960 42659928 42256812 41932860 41669496 41457396 
902.523 41291424 41165836 41072080 40999064 40936144 40878256 40826896 
905.897 40789584 40774444 40786272 40823036 40877384 40939636 41003396 
909.272 41068180 41139132 41223104 41324472 41442160 41570708 41702828 
912.647 41834008 41965264 42102324 42252872 42421952 42609960 42813152 
916.022 43026976 43249688 43484272 43737192 44015012 44320528 44650092 
919.397 44994716 45344688 45693364 46040840 46392620 46757524 47143488 
922.771 47555156 47994936 48466308 48976140 49536400 50160348 50854732 
926.146 51612244 52404832 53187712 53900836 54482672 54886656 55087028 
929.521 55087176 54916852 54629040 54288588 53958836 53701920 53566392 
932.896 53585436 53778900 54151420 54695364 55392340 56215888 57131732 
936.271 58095832 59060516 59973484 60785116 61460792 61986000 62375036 
939.646 62668180 62929580 63233444 63646040 64221112 64988160 65952368 
943.020 67098884 68398160 69810632 71284000 72756952 74158536 75405072 
946.395 76415544 77116792 77453368 77400736 76966440 76190488 75133968 
949.770 73875248 72500104 71087072 69711696 68437728 67310688 66360996 
953.145 65600148 65022992 64613776 64352088 64220576 64205288 64298332 
956.520 64494020 64785212 65162324 65614068 66129008 66700460 67327096 
959.894 68013152 68764840 69588144 70486744 71462160 72517600 73660688 
963.269 74905512 76273336 77789528 79477032 81353864 83428392 85698624 
966.644 88153752 90778888 93561216 96495496 99589736 102866176 106359520 
970.019 110103752 114117560 118382432 122828728 127319944 131649016 
972.912 135577760 138846160 141224112 142568624 142842912 142142960 
975.804 140671904 138731456 136661072 134773296 133346992 132567104 
978.697 132510408 133140968 134310432 135779504 137223648 138303984 
981.590 138700576 138150240 136510592 133764904 130028368 125508440 
984.482 120479200 115236016 110034760 105096744 100582456 96584016 93144048 
987.857 90258320 87891656 85987992 84485064 83324408 82451072 81819568 
991.232 81392464 81134896 81017328 81014336 81103584 81269472 81501264 
994.607 81791568 82134712 82524752 82954304 83416504 83905296 84418416 
997.982 84956272 85522000 86118064 86744816 87399664 88076872 88771456 
1001.356 89478992 90198368 90930784 91678800 92444384 93228888 94032928 
1004.731 94858608 95709736 96593040 97515752 98484288 99501936 100567792 
1008.106 101677856 102825992 104007520 105218912 106458496 107726000 
1010.999 109020304 110339232 111680608 113043456 114429528 115844656 
1013.891 117298432 118802400 120367800 122005432 123723224 125528392 
1016.784 127427104 129425440 131529328 133743496 136070976 138511824 
1019.677 141063056 143717776 146463104 149275200 152118224 154934192 
1022.570 157643072 160150928 162348208 164132096 165426736 166193488 
1025.462 166447200 166252480 165721152 164984976 164176288 163416544 
1028.355 162789616 162339248 162062720 161912416 161794896 161574320 
1031.249 161095984 160184560 158668496 156413504 153327648 149387488 
1034.142 144643424 139220640 133305904 127115968 120896176 114875384 
1037.035 109239008 104129624 99621368 95729480 92422448 89640496 87312224 
1040.410 85364800 83736952 82376048 81236080 80280224 79475720 78796040 
1043.785 78222744 77743680 77351288 77040032 76803144 76632584 76520104 
1047.160 76459360 76448536 76489432 76586136 76739992 76946432 77192184 
1050.536 77456136 77712088 77929888 78082408 78146576 78105488 77952056 
1053.911 77690536 77338456 76924520 76489160 76077960 75731800 75485368 
1057.286 75360216 75364312 75496096 75747616 76108080 76561792 77086952 
1060.661 77652496 78212544 78712224 79093128 79298384 79287208 79038992 
1064.037 78556760 77864568 77004032 76028224 74991040 73947056 72945320 
1067.412 72022848 71206472 70509352 69932952 69470832 69114504 68857088 
1070.787 68696528 68634088 68671808 68809136 69040464 69356336 69744832 
1074.162 70196192 70703728 71264096 71875032 72532760 73230864 73962064 
1077.538 74720944 75508512 76333496 77213088 78170096 79226848 80404920 
1080.913 81722808 83196456 84844032 86686560 88748200 91056336 93637464 
1084.288 96513576 99701144 103205920 107020048 111114872 115439640 119916056 
1087.663 124436320 128881944 133127736 137058432 140591568 143674944 
1090.556 146287440 148425776 150085904 151248240 151875472 151920256 
1093.449 151351856 150183968 148501376 146465392 144293568 142253712 
1096.343 140603888 139559408 139277712 139821536 141156560 143141936 
1099.236 145553296 148084464 150365392 152033152 152739680 152208016 
1102.129 150287264 146954464 142325584 136616592 130125552 123178824 
1105.022 116077344 109103656 102480624 96361248 90846848 85977248 81747168 
1108.397 78119800 75039792 72445096 70269608 68452160 66933952 65657384 
1111.772 64571904 63631848 62798880 62045776 61353432 60709928 60108472 
1115.147 59545356 59018724 58528860 58079052 57674584 57321304 57023732 
1118.523 56783612 56598768 56465168 56378500 56336584 56339984 56390420 
1121.898 56489240 56635612 56825684 57054380 57317296 57613288 57944804 
1125.273 58317464 58736604 59206008 59726744 60297940 60919100 61591888 
1128.648 62320952 63112424 63971488 64898932 65889932 66933796 68015904 
1132.024 69118240 70221896 71307160 72351656 73333512 74231608 75029280 
1135.399 75720008 76311024 76825600 77299104 77777128 78309240 78939080 
1138.774 79705560 80639240 81761416 83086680 84622496 86368744 88316424 
1142.149 90447336 92735456 95143960 97629824 100142600 102620728 104995800 
1145.525 107189656 109111872 110672864 111782640 112360528 112349928 
1148.418 111718824 110466248 108618960 106229464 103368824 100116392 
1151.311 96562992 92801712 88919688 85002488 81122960 77338136 73695824 
1154.686 70231560 66972376 63942156 61158352 58632264 56367896 54360460 
1158.061 52599196 51068116 49750292 48627524 47679868 46886768 46223532 
1161.437 45663620 45182588 44758140 44374400 44022308 43697400 43397956 
1164.812 43122508 42869252 42636900 42425972 42240200 42085828 41969680 
1168.187 41897096 41869876 41886152 41942348 42035852 42166476 42337276 
1171.562 42552324 42815088 43126644 43485112 43887276 44330984 44816472 
1174.938 45347004 45927392 46562252 47254596 48005444 48815752 49687056 
1178.313 50622280 51624932 52696076 53831820 55020792 56243832 57478504 
1181.688 58701100 59891436 61036576 62130984 63176536 64181700 65161860 
1185.063 66137956 67134656 68180360 69301064 70514504 71826120 73223416 
1188.438 74677136 76139704 77553976 78860160 79997536 80916360 81579176 
1191.814 81960600 82049968 81847616 81362496 80608288 79601272 78359168 
1195.189 76899320 75244240 73424880 71483064 69477248 67478056 65555416 
1198.564 63775004 62181184 60790300 59591952 58554832 57639580 56806460 
1201.939 56027628 55289704 54591464 53939964 53346348 52822120 52376608 
1205.315 52017264 51748876 51572728 51486252 51483076 51554892 51693076 
1208.690 51891412 52147860 52463716 52841580 53283524 53789328 54356968 
1212.065 54984536 55671956 56422564 57242552 58139580 59119664 60186564 
1215.440 61341180 62584324 63918240 65349540 66888376 68548328 70344488 
1218.816 72290648 74400832 76688912 79169896 81861416 84782968 87952584 
1222.191 91385048 95086952 99054936 103270048 107697128 112282640 116944752 
1225.566 121577672 126046952 130180328 133790168 136674592 138633264 
1228.459 139508784 139198048 137677856 135009296 131335872 126867488 
1231.352 121838936 116511192 111137088 105929168 101072856 96701400 92892920 
1234.728 89685672 87079384 85049280 83553720 82543232 81965280 81762048 
1238.103 81878416 82261464 82861096 83636664 84553368 85578928 86683448 
1241.478 87831136 88978240 90077832 91078080 91931320 92602688 93071256 
1244.853 93335104 93408560 93321144 93112848 92829112 92522888 92246464 
1248.229 92047008 91964528 92021864 92223888 92556184 92990312 93489632 
1251.604 94015312 94535752 95028144 95480688 95892584 96273768 96643984 
1254.979 97029848 97466480 97991696 98638992 99434744 100390776 101501096 
1258.354 102740312 104065368 105420248 106732384 107923160 108909752 
1261.247 109604248 109928176 109814496 109214120 108105264 106493464 
1264.140 104411528 101910576 99057680 95929112 92601128 89156936 85681472 
1267.516 82253264 78948576 75830864 72944728 70321960 67980256 65927452 
1270.891 64166836 62696160 61508012 60587092 59911900 59456284 59192680 
1274.266 59098748 59157784 59358764 59694660 60158440 60741212 61433844 
1277.641 62226608 63114152 64095936 65176612 66363580 67664448 69086184 
1281.017 70634944 72317800 74144896 76129792 78286584 80626520 83151032 
1284.392 85847304 88682848 91609360 94562568 97463752 100234704 102795800 
1287.767 105072184 107003816 108541696 109651544 110314664 110523640 
1290.660 110278576 109582328 108435104 106833184 104773608 102260976 
1293.553 99318400 95995360 92375560 88568416 84700000 80911248 77333544 
1296.928 74087048 71279672 68990944 67276384 66162340 65642932 65682708 
1300.304 66220380 67182032 68481640 70029648 71743992 73538888 75330696 
1303.679 77040624 78586544 79893616 80900432 81557672 81835176 81720816 
1307.054 81217544 80344720 79140240 77671800 76035328 74359856 72802360 
1310.429 71509704 70604576 70149024 70122896 70415904 70840528 71182736 
1313.805 71225872 70811520 69873088 68437144 66612608 64550220 62422164 
1317.180 60375684 58513048 56893364 55530016 54408116 53499340 52776248 
1320.555 52217920 51809276 51539448 51397324 51369988 51444808 51610900 
1323.930 51860348 52189148 52593512 53067624 53601668 54180732 54787412 
1327.306 55405552 56020768 56623152 57206680 57766732 58299916 58803672 
1330.681 59276944 59721764 60144092 60553612 60960768 61375372 61804200 
1334.056 62250776 62716224 63201712 63709652 64244276 64810180 65410556 
1337.431 66045672 66712820 67407928 68128104 68873632 69648360 70459704 
1340.807 71314808 72218640 73173608 74179208 75234904 76341320 77502200 
1344.182 78723984 80015336 81383560 82834272 84369880 85990296 87693328 
1347.557 89476664 91338752 93278752 95295456 97385752 99543320 101758856 
1350.932 104022128 106323872 108661000 111037976 113468960 115974504 
1353.825 118579568 121311616 124196416 127258208 130518824 133991928 
1356.719 137676720 141546064 145544304 149577712 153521472 157249536 
1359.612 160642240 163617792 166147440 168253408 169998960 171460656 
1362.505 172720592 173844352 174876384 175848160 176777056 177671008 
1365.398 178529536 179346448 180113872 180831792 181517552 182212800 
1368.291 182984048 183905024 185047680 186467936 188196720 190248672 
1371.184 192629664 195346080 198405360 201810496 205550944 209591728 
1374.077 213877840 218352096 222976432 227749920 232702480 237875168 
1376.970 243280224 248870480 254508704 259987296 265042064 269374912 
1379.863 272709952 274783328 275351456 274229024 271310560 266633568 
1382.756 260393472 252930192 244635632 235822272 226686048 217264064 
1385.649 207489712 197281040 186636256 175683536 164663984 153858256 
1388.542 143507344 133780600 124768640 116519560 109074048 102455712 
1391.435 96676976 91724880 87550584 84080824 81230520 78927472 77109160 
1394.811 75720752 74708816 74001696 73517960 73184896 72950096 72802560 
1398.186 72776232 72945904 73401544 74219776 75452168 77114856 79201352 
1401.561 81692744 84562952 87765552 91208376 94749672 98178080 101226144 
1404.936 103630592 105157192 105653800 105076992 103481464 101004744 
1407.829 97826760 94165016 90243800 86270040 82445104 78930616 75836344 
1411.205 73225216 71109904 69473008 68285232 67521944 67166288 67203152 
1414.580 67610984 68354376 69383424 70650856 72118016 73767208 75604088 
1417.955 77644416 79894968 82332352 84903576 87542112 90194776 92841960 
1421.330 95492208 98164328 100860392 103547480 106151096 108551992 110622288 
1424.706 112253248 113370608 113941304 113949928 113378136 112200864 
1427.599 110397080 107977200 105000656 101588720 97906256 94119704 90384616 
1430.974 86824728 83529304 80569872 77995160 75826088 74057344 72654672 
1434.349 71568232 70745488 70154480 69794800 69694224 69886824 70383792 
1437.724 71156584 72145320 73278792 74490776 75733256 76968664 78166728 
1441.100 79304352 80358632 81310544 82148080 82866392 83468504 83961528 
1444.475 84352904 84645560 84836256 84918960 84891688 84765888 84573376 
1447.850 84362120 84184864 84084240 84077648 84159640 84311736 84518712 
1451.225 84779584 85110296 85534824 86073432 86728912 87484680 88304008 
1454.601 89141800 89956272 90710976 91383448 91964776 92458736 92870392 
1457.976 93200928 93450424 93622168 93728896 93794400 93847280 93916584 
1461.351 94024776 94183296 94395440 94659752 94976848 95353024 95801768 
1464.726 96339112 96982456 97749944 98659288 99734952 101004328 102492080 
1468.102 104214024 106170944 108350176 110721856 113250432 115893064 
1470.995 118584696 121235648 123721952 125894128 127612608 128775016 
1473.888 129326520 129253256 128561704 127275568 125440896 123135928 
1476.781 120469672 117555792 114497968 111362768 108175992 104941032 
1479.674 101656760 98333960 95008272 91731960 88560584 85542128 82704216 
1483.049 80055856 77594176 75308824 73188112 71220448 69395904 67708056 
1486.424 66156984 64749404 63497068 62411376 61497896 60753520 60168600 
1489.800 59734616 59447360 59309572 59324044 59486836 59781460 60181044 
1493.175 60651060 61159648 61683504 62209824 62738308 63274652 63821248 
1496.550 64367300 64886308 65340804 65696044 65928184 66031940 66020756 
1499.925 65924408 65783592 65639884 65534956 65501356 65558344 65710500 
1503.301 65945232 66234896 66534244 66790180 66953352 66997968 66942296 
1506.676 66851004 66809764 66874540 67054996 67321720 67632864 67949800 
1510.051 68246768 68513912 68752384 68972104 69187008 69411656 69657232 
1513.426 69928632 70223608 70533440 70845832 71148776 71438808 71725592 
1516.802 72033752 72393232 72826024 73336176 73905968 74500256 75075280 
1520.177 75597744 76058968 76486624 76931440 77446240 78055352 78745072 
1523.552 79475248 80197440 80874680 81485432 82030592 82527400 83002112 
1526.927 83477944 83970056 84489688 85048312 85662144 86350552 87128664 
1530.302 88000144 88952544 89963888 91009960 92077272 93174312 94333712 
1533.678 95601200 97008600 98565016 100252984 102045472 103913728 105839440 
1537.053 107822912 109871040 112003344 114247800 116637352 119199096 
1539.946 121941984 124864832 127945808 131158856 134491936 137942160 
1542.839 141515648 145214960 149025664 152902208 156765584 160524704 
1545.732 164088624 167385024 170364912 172973760 175139312 176775648 
1548.625 177790048 178134304 177837744 177015152 175817504 174363440 
1551.518 172702304 170806880 168620272 166122384 163380880 160561952 
1554.411 157888160 155532672 153562048 151906736 150393232 148778896 
1557.304 146810640 144311808 141266672 137899184 134601824 131734936 
1560.198 129444984 127670128 126241040 124980312 123740976 122399056 
1563.091 120860200 119064784 117004360 114731144 112346408 109967824 
1565.984 107671952 105468904 103295304 101043128 98595616 95878944 92905032 
1569.359 89781160 86679072 83763024 81139168 78831680 76804840 74996712 
1572.734 73344768 71795400 70305408 68840200 67383088 65952248 64618036 
1576.109 63498484 62730656 62413292 62583292 63225208 64299060 65770828 
1579.485 67627360 69879160 72550576 75665536 79234232 83237352 87616824 
1582.860 92277608 97069168 101791688 106216560 110080560 113137648 115193120 
1586.235 116113176 115854256 114464544 112094736 108980608 105429248 
1589.128 101799736 98422232 95581880 93493128 92276592 91985408 92614208 
1592.503 94120160 96429880 99449728 103079240 107197624 111672928 116373344 
1595.879 121160008 125909104 130520168 134904768 138982080 142663600 
1598.772 145834496 148368336 150144128 151067920 151102912 150272720 
1601.665 148656480 146363824 143529472 140304992 136839936 133288936 
1604.558 129791352 126447320 123318680 120422760 117744160 115252096 
1607.451 112917824 110725832 108672232 106758896 104984744 103340328 
1610.344 101811000 100385520 99060680 97845072 96750792 95783928 94932984 
1613.719 94163744 93421128 92643984 91780624 90816992 89795136 88812552 
1617.094 87987800 87407560 87102984 87047352 87183496 87445896 87781120 
1620.470 88156304 88556112 88984752 89460424 90012968 90675048 91474896 
1623.845 92433472 93557392 94841424 96270248 97821240 99463488 101159504 
1627.220 102872976 104569872 106226920 107835144 109399336 110932648 
1630.113 112450280 113967240 115496912 117053512 118652752 120314472 
1633.006 122064768 123936200 125969992 128217128 130737472 133577480 
1635.899 136760032 140282752 144112016 148215840 152577072 157198096 
1638.792 162096784 167297504 172826400 178692912 184885504 191376704 
1641.686 198116032 205043792 212107296 219246736 226416912 233597504 
1644.579 240788336 248021872 255344752 262796784 270351104 277900608 
1647.472 285285824 292341472 298956096 305079072 310704128 315785312 
1650.365 320159360 323504896 325240352 324604224 320967616 314346848 
1653.258 305717568 296525664 287847296 279946432 272534272 265130640 
1656.151 257359328 249034576 240162928 230882000 221384672 211863568 
1659.044 202423088 193086160 183815216 174545440 165232320 155883744 
1661.937 146578640 137466800 128746448 120616656 113231728 106665240 
1664.830 100901192 95858536 91414120 87434952 83803808 80441096 77317672 
1668.205 74457264 71921880 69782888 68089960 66853552 66046292 65617612 
1671.581 65516688 65700284 66136608 66807716 67707400 68843496 70235720 
1674.956 71909552 73883104 76152776 78702856 81516096 84588760 87936800 
1678.331 91587512 95565240 99862496 104437320 109223328 114147040 119179472 
1681.706 124355880 129779592 135597984 141942160 148831552 156074832 
1684.599 163303808 170111008 176197504 181413488 185697696 189021296 
1687.492 191333568 192579472 192724880 191759376 189713392 186656368 
1690.385 182708384 178040704 172861120 167398816 161823952 156199200 
1693.279 150457744 144409792 137830096 130609808 122917416 115239296 
1696.172 108207408 102273432 97548640 93813432 90692120 87784856 84811120 
1699.547 81711496 78671880 76023328 74013096 72655144 71750992 71033144 
1702.922 70246896 69210552 67807624 65974080 63701408 61034324 58068784 
1706.297 54927492 51741188 48628452 45673116 42925572 40398676 38072052 
1709.673 35909388 33878436 31967196 30190086 28576816 27150668 25913200 
1713.048 24833942 23861626 22940910 22039116 21156582 20321046 19564470 
1716.423 18899768 18306824 17746508 17187018 16630659 16114965 15689915 
1719.798 15387989 15206083 15110149 15049121 14979801 14879083 14754290 
1723.174 14633404 14549315 14517006 14526394 14546951 14547225 14511970 
1726.549 14447874 14378377 14327793 14306836 14305227 14298960 14264068 
1729.924 14193949 14103305 14021166 13972095 13961591 13966860 13945680 
1733.299 13854472 13679636 13453328 13240734 13098482 13043233 13052861 
1736.675 13085335 13101691 13077378 13011275 12921423 12835173 12771768 
1740.050 12731812 12698479 12651024 12578027 12484037 12384407 12295742 
1743.425 12223896 12160375 12086609 11985435 11852481 11698803 11546643 
1746.800 11415829 11314676 11233403 11150445 11042522 10898915 10726657 
1750.176 10548016 10386892 10257140 10156934 10074250 9997685 9925133 
1753.551 9865100 9830053 9827613 9853100 9889098 9911234 9902081 9860490 
1757.408 9803821 9757563 9742755 9764035 9808498 9851779 9870218 9853474 
1761.266 9808464 9755970 9718527 9708701 9723745 9750582 9775930 9794908 
1765.123 9812396 9838730 9881302 9939065 10000363 10049360 10074623 10077540 
1768.980 10071028 10073232 10095479 10134414 10172063 10183833 10153000 
1772.356 10082084 9994870 9922115 9886759 9891098 9920048 9950931 9966526 
1776.213 9962458 9948524 9940930 9953100 9986835 10031015 10067197 10080388 
1780.071 10067909 10041662 10021215 10022131 10047800 10087611 10123866 
1783.446 10140451 10133057 10110164 10089171 10085576 10104840 10139874 
1786.821 10178303 10209070 10230475 10250694 10281805 10332869 10401892 
1790.196 10475169 10532163 10556742 10545504 10512066 10478801 10466309 
1793.572 10481007 10514443 10550087 10574361 10583019 10582373 10584207 
1796.947 10597890 10624645 10656394 10680097 10685734 10673101 10651572 
1800.322 10637039 10640774 10663932 10696941 10726079 10741363 10743129 
1803.697 10741397 10750669 10781068 10833007 10896537 10957290 11004390 
1807.073 11035725 11059007 11086164 11126377 11179852 11237313 11285634 
1810.448 11316070 11330082 11339401 11358991 11399910 11462401 11536571 
1813.823 11608372 11667352 11712964 11754698 11807060 11880370 11975728 
1817.198 12082930 12186579 12272734 12336782 12383555 12423411 12464737 
1820.573 12508419 12547638 12572127 12574753 12555415 12521106 12482094 
1823.949 12446119 12413762 12379600 12337055 12284800 12229349 12182286 
1827.324 12152879 12143236 12144020 12139113 12112298 12057821 11984720 
1830.699 11914049 11867192 11854830 11872435 11904445 11932133 11942725 
1834.074 11935539 11920520 11912415 11920962 11946131 11977772 12002842 
1837.450 12012958 12010744 12007712 12019737 12057174 12119146 12194621 
1840.825 12267758 12326078 12364565 12387680 12404386 12422797 12444585 
1844.200 12464941 12477524 12481411 12483048 12493961 12523185 12571923 
1847.575 12632126 12690018 12732972 12755936 12765046 12774396 12798522 
1850.951 12844081 12907052 12974710 13034184 13078368 13110571 13141886 
1854.326 13184340 13242817 13311587 13376541 13423630 13445707 13446800 
1857.701 13439110 13436240 13445433 13463342 13478858 13479713 13461565 
1861.076 13430670 13402032 13390380 13404219 13440410 13487506 13532010 
1864.452 13566501 13592825 13620552 13659222 13711608 13769747 13818452 
1867.827 13843662 13840139 13817118 13794338 13792150 13820505 13874929 
1871.202 13940138 13999949 14044095 14072775 14094063 14117372 14146331 
1874.577 14176079 14194942 14192032 14164611 14120933 14076642 14047038 
1877.953 14039303 14049400 14064321 14070174 14060864 14041152 14024349 
1881.328 14024280 14047894 14090914 14142120 14188300 14223734 14252906 
1884.703 14287762 14340122 14413826 14501693 14588308 14658251 14703148 
1888.078 14726628 14741332 14763819 14804340 14863379 14932577 15002232 
1891.454 15067679 15131488 15201759 15285425 15383045 15486696 15583915 
1894.829 15663773 15724510 15774190 15827108 15894603 15979916 16075216 
1898.204 16167443 16245104 16305819 16358491 16418912 16500887 16609384 
1901.579 16737225 16869444 16992126 17097816 17189396 17276102 17365654 
1904.955 17457568 17541116 17599598 17619542 17597666 17544290 17477712 
1908.330 17417454 17375480 17351686 17337512 17323754 17307410 17294446 
1911.705 17296100 17322168 17374034 17443872 17517900 17584070 17637900 
1915.080 17684796 17735082 17796802 17870092 17945330 18009530 18053740 
1918.456 18081304 18106072 18147182 18217666 18317538 18432814 18542900 
1921.831 18631052 18691306 18731988 18770148 18822462 18894820 18980482 
1925.206 19064290 19132602 19180770 19215784 19251630 19300540 19365598 
1928.581 19438878 19505620 19554316 19583744 19605234 19637472 19695128 
1931.957 19782404 19888946 19996732 20088338 20156362 20205996 20250882 
1935.332 20303410 20366394 20431752 20484962 20514766 20520010 20511188 
1938.707 20505040 20514590 20540922 20572190 20588726 20575802 20530536 
1942.082 20466448 20404698 20364936 20352886 20358894 20363546 20349276 
1945.458 20311360 20257408 20204712 20167328 20149974 20144664 20137652 
1948.833 20118182 20087574 20059084 20052526 20080910 20143414 20224012 
1952.208 20300424 20354486 20381988 20392822 20404942 20431856 20473084 
1955.583 20513618 20532654 20515912 20465962 20402476 20354380 20345630 
1958.958 20381638 20447346 20513794 20555686 20562946 20544640 20521920 
1962.334 20515356 20533594 20570314 20610268 20640914 20662074 20686850 
1965.709 20734496 20816976 20930416 21053414 21158880 21225332 21248294 
1969.084 21241648 21226896 21221156 21225436 21225504 21201288 21140024 
1972.459 21046076 20941334 20855146 20809814 20809886 20842074 20884626 
1975.835 20922800 20957468 21005002 21084716 21204698 21352590 21499590 
1979.210 21613068 21672762 21680982 21660574 21642636 21651240 21694184 
1982.585 21761902 21835412 21897890 21943682 21979546 22018444 22069026 
1985.960 22130908 22193916 22246610 22284242 22313472 22348808 22405288 
1989.336 22487666 22586604 22681902 22753124 22791360 22804034 22812066 
1992.711 22835848 22886524 22956418 23024646 23066680 23068392 23034046 
1996.086 22983318 22940770 22924562 22937066 22966236 22993414 23006026 
1999.461 23004246 23000260 23010044 23041174 23086772 23126958 23139574 
2002.837 23110918 23045470 22962426 22889144 22845976 22837246 22850062 
2006.212 22864416 22864032 22845486 22818806 22798098 22791744 22795548 
2009.587 22794920 22774354 22728580 22668844 22618054 22599554 22625594 
2012.962 22688010 22765730 22831274 22867386 22873672 22865150 22862704 
2016.338 22879296 22913874 22951876 22976016 22976644 22960260 22944786 
2019.713 22951772 22992436 23061824 23141846 23211606 23258062 23283652 
2023.088 23302564 23332842 23384204 23451870 23520038 23571178 23596786 
2026.463 23602244 23603468 23616378 23647132 23686598 23716238 23718024 
2029.839 23686950 23635026 23587584 23569814 23594268 23654408 23729992 
2033.214 23797186 23840658 23860822 23871428 23888546 23920230 23961964 
2036.589 23998730 24016694 24010110 23986894 23961684 23949920 23956362 
2039.964 23972854 23982902 23972082 23937630 23891732 23855010 23846888 
2043.340 23874754 23930206 23992462 24040366 24061974 24061414 24055530 
2046.715 24064250 24101306 24167962 24253444 24342344 24421794 24488258 
2050.090 24544806 24596838 24647510 24695136 24735682 24767112 24792930 
2053.465 24822434 24865728 24928714 25007886 25090902 25161714 25209290 
2056.841 25233730 25246372 25265268 25306464 25376642 25470092 25572312 
2060.216 25666228 25742266 25798452 25841140 25877256 25910562 25938630 
2063.591 25955196 25955090 25939756 25918300 25903704 25906940 25930716 
2066.966 25968456 26008666 26040152 26058340 26066996 26075368 26092398 
2070.342 26120268 26153978 26183258 26199272 26198674 26186602 26172948 
2073.717 26167562 26174566 26191212 26209830 26223274 26229714 26233410 
2077.092 26241894 26260690 26288992 26318702 26337890 26336130 26310676 
2080.467 26266954 26216832 26172350 26140676 26121922 26110134 26098310 
2083.843 26081844 26061050 26039870 26022208 26008982 25996916 25980768 
2087.218 25957200 25926952 25895298 25869272 25853412 25847082 25843392 
2090.593 25833474 25811004 25775668 25734320 25696600 25671500 25662396 
2093.968 25666474 25676422 25685068 25689604 25691502 25695440 25703910 
2097.344 25715724 25724792 25724442 25710238 25684190 25653538 25627598 
2100.719 25612766 25609110 25610130 25607108 25593542 25568448 25536960 
2104.094 25506916 25484780 25471182 25461766 25449434 25430144 25404570 
2107.469 25379734 25363646 25362556 25376432 25399302 25421818 25437276 
2110.844 25443988 25445570 25448520 25456882 25470338 25483516 25489628 
2114.220 25484358 25468932 25450240 25436786 25433974 25441776 25453404 
2117.595 25459940 25453896 25433098 25401162 25364560 25328802 25294908 
2120.970 25259544 25217720 25167016 25110174 25053904 25006728 24973422 
2124.345 24952996 24938292 24920186 24892184 24853658 24810154 24769250 
2127.721 24736804 24712638 24692260 24668692 24638252 24602834 24569840 
2131.096 24548346 24542982 24551888 24566262 24576150 24575414 24565806 
2134.471 24556552 24559496 24581656 24621630 24668972 24710534 24736102 
2137.846 24743610 24738874 24730526 24724704 24719898 24708676 24681388 
2141.222 24634816 24573696 24512342 24465612 24442300 24440758 24448994 
2144.597 24450432 24433782 24398416 24354820 24317918 24298574 24297524 
2147.972 24304532 24303760 24281160 24232562 24163478 24085404 24007484 
2151.347 23931608 23850914 23755434 23637720 23498808 23347316 23195494 
2154.723 23051726 22916598 22783886 22648876 22516630 22405426 22343680 
2158.098 22357214 22455878 22626012 22834556 23040998 23216326 23350952 
2161.473 23454214 23543544 23634816 23732896 23831314 23918374 23985530 
2164.848 24032768 24067544 24100674 24136822 24171992 24195356 24195392 
2168.224 24167298 24116540 24057490 24006224 23972398 23954786 23941902 
2171.599 23919284 23877100 23816192 23747068 23685794 23645766 23631490 
2174.974 23637474 23652520 23664660 23666584 23656544 23635724 23604936 
2178.349 23563028 23508914 23443652 23375148 23316234 23282216 23282706 
2181.725 23316654 23371198 23427810 23470022 23490692 23494330 23494364 
2185.100 23504856 23531406 23569884 23606546 23627608 23624248 23598500 
2188.475 23560194 23523046 23496428 23482542 23476458 23471210 23463062 
2191.850 23452954 23446450 23448304 23458062 23468938 23471070 23455822 
2195.226 23422354 23378504 23337562 23311968 23307284 23318612 23334904 
2198.601 23342840 23335462 23313892 23287882 23269108 23265752 23279142 
2201.976 23303718 23332142 23358364 23381512 23404940 23432602 23466070 
2205.351 23502060 23535218 23561138 23579748 23596610 23618966 23652238 
2208.727 23695732 23742308 23781716 23806216 23815702 23818538 23828198 
2212.102 23856866 23909972 23983114 24064776 24140780 24201242 24243598 
2215.477 24271874 24292828 24311224 24327940 24339926 24343218 24336384 
2218.852 24322718 24307056 24294124 24284278 24272470 24251448 24215080 
2222.228 24163198 24102076 24042362 23994528 23964170 23949848 23944388 
2225.603 23939066 23928142 23910918 23891068 23873424 23861836 23856376 
2228.978 23854484 23853470 23853086 23855220 23863132 23878218 23897822 
2232.353 23914698 23921386 23912352 23887462 23852070 23814966 23783956 
2235.729 23762258 23747700 23734260 23717008 23694086 23669070 23647900 
2239.104 23637126 23639608 23653848 23674598 23696922 23717568 23736290 
2242.479 23754768 23773982 23792216 23806042 23811082 23805830 23792672 
2245.854 23778042 23769116 23770938 23783082 23800722 23817208 23827288 
2249.229 23830332 23830228 23833412 23844964 23865686 23891872 23917674 
2252.605 23938576 23954016 23968126 23987700 24018026 24059416 24106454 
2255.980 24149782 24180222 24192274 24185232 24163444 24133214 24100256 
2259.355 24067508 24035884 24005034 23975200 23947364 23922436 23900100 
2262.730 23877974 23852386 23820076 23780386 23736710 23694962 23662316 
2266.106 23642722 23635936 23637616 23641498 23642336 23638034 23630406 
2269.481 23623060 23618616 23617776 23618022 23615748 23608610 23597030 
2272.856 23584262 23574290 23570302 23572578 23578628 23584716 23588460 
2276.231 23590244 23593042 23600564 23615222 23636110 23659482 23679952 
2279.607 23693074 23697132 23693214 23683974 23672114 23658712 23643248 
2282.982 23624704 23602944 23579924 23558374 23541234 23529866 23522416 
2286.357 23515490 23505068 23489364 23469008 23447220 23427706 23412494 
2289.732 23401550 23391582 23378750 23360462 23336756 23310606 23285364 
2293.108 23264284 23248064 23235306 23223106 23209090 23192906 23175886 
2296.483 23160682 23149184 23141950 23137512 23134540 23131746 23129718 
2299.858 23130592 23136602 23149150 23167358 23188644 23210278 23230518 
2303.233 23249882 23270578 23295816 23327562 23365776 23408402 23451976 
2306.609 23493980 23533294 23571038 23608996 23648740 23690238 23732162 
2309.984 23771986 23807828 23839154 23867016 23893412 23920090 23947750 
2313.359 23976004 24003876 24030700 24056966 24083968 24113250 24145472 
2316.734 24180082 24215116 24248680 24279022 24305442 24328256 24347774 
2320.110 24363790 24375040 24379632 24375950 24362914 24341186 24311470 
2323.485 24274958 24231548 24181064 24122952 24058892 23991866 23927126 
2326.860 23870344 23825784 23794456 23774296 23760332 23747278 23731322 
2330.235 23711444 23689398 23668230 23650664 23637474 23628448 23622220 
2333.611 23618198 23617006 23620122 23628482 23641742 23657524 23671902 
2336.986 23681772 23685236 23682820 23677082 23670644 23665394 23661300 
2340.361 23657242 23651960 23645590 23639224 23634046 23629252 23621240 
2343.736 23602838 23566944 23508426 23428370 23334832 23242192 23165996 
2347.112 23119620 23111478 23142928 23210102 23304766 23417634 23538402 
2350.487 23657034 23765442 23857040 23927862 23977264 24008150 24025448 
2353.862 24034202 24038790 24040890 24039526 24032172 24016378 23991306 
2357.237 23958042 23918620 23874824 23827568 23775662 23717534 23652204 
2360.613 23580344 23504612 23428894 23356266 23288196 23224014 23162080 
2363.988 23100994 23041104 22983946 22931932 22886700 22847896 22812660 
2367.363 22777392 22739332 22697260 22652192 22606290 22561268 22517608 
2370.738 22474022 22428454 22379576 22327562 22274372 22222408 22173516 
2374.114 22127910 22084434 22040614 21994952 21947586 21899878 21854194 
2377.489 21812244 21774094 21738144 21701986 21663360 21621638 21577758 
2380.864 21534198 21493326 21456874 21425196 21397768 21373610 21352520 
2384.239 21334840 21321442 21313264 21310306 21311800 21316464 21323182 
2387.615 21331394 21340930 21351824 21363762 21374864 21383776 21388752 
2390.990 21389830 21388508 21387812 21390562 21398672 21411552 21427040 
2394.365 21441836 21453010 21459556 21462026 21462200 21461538 21460670 
2397.740 21458370 21453150 21443368 21429024 21411656 21393452 21376952 
2401.115 21363204 21352346 21343644 21336302 21330316 21326348 21325374 
2404.491 21328158 21333796 21341104 21348308 21353946 21358298 21362126 
2407.866 21366338 21371384 21376292 21379320 21379284 21376048 21371278 
2411.241 21368112 21369852 21378450 21393660 21413258 21434004 21453602 
2414.616 21471008 21487058 21503490 21521422 21540640 21559548 21575740 
2417.992 21587544 21594788 21598584 21601474 21604922 21609622 21614672 
2421.367 21618328 21619512 21617424 21613036 21607462 21601370 21594682 
2424.742 21586430 21575844 21562960 21549588 21537960 21531030 21529916 
2428.117 21533710 21540082 21546142 21549276 21548754 21545098 21539630 
2431.493 21533154 21525600 21515606 21502202 21485108 21465716 21446360 
2434.868 21429268 21415486 21403790 21391642 21375698 21354120 21326732 
2438.243 21295410 21262840 21231280 21201706 21173734 21146600 21120092 
2441.618 21095466 21075118 21061448 21055536 21056232 21060578 21064788 
2444.994 21065482 21061308 21052998 21042702 21032616 21024374 21018080 
2448.369 21013072 21008480 21003890 20999302 20994710 20989876 20983652 
2451.744 20974610 20961988 20945820 20927982 20910910 20896864 20886956 
2455.119 20880592 20875934 20870824 20863940 20855668 20847394 20841274 
2458.495 20838772 20840266 20844994 20851948 20860742 20871694 20885216 
2461.870 20901730 20920436 20939352 20955868 20967968 20975062 20978748 
2465.245 20981566 20986538 20995720 21009142 21025626 21043188 21060196 
2468.620 21075778 21089796 21102178 21112370 21119222 21121484 21118876 
2471.996 21112160 21103710 21096336 21091986 21091012 21091986 21092162 
2475.371 21089378 21082874 21073864 21065102 21058874 21056406 21057066 
2478.746 21058666 21059082 21056962 21052718 21048266 21045138 21044440 
2482.121 21045624 21046598 21046112 21043224 21039258 21036234 21036860 
2485.497 21042668 21053692 21068614 21085552 21102908 21120300 21137694 
2488.872 21155470 21173386 21190330 21205220 21217190 21226652 21235108 
2492.247 21244050 21254384 21265276 21274496 21278952 21276550 21267156 
2495.622 21252088 21234620 21217712 21203064 21190816 21180068 21169700 
2498.998 21159958 21151956 21147574 21148338 21153870 21162220 21170498 
2502.373 21176588 21179474 21180518 21182050 21186014 21192696 21200454 
2505.748 21206126 21206648 21200698 21189252 21175196 21161628 21150878 
2509.123 21143294 21137346 21130460 21120580 21107222 21091256 21074318 
2512.499 21058248 21043814 21030948 21019124 21007926 20996866 20986154 
2515.874 20975376 20963830 20950444 20934378 20915778 20896028 20877636 
2519.249 20863036 20853686 20849166 20847706 20846350 20843152 20837416 
2522.624 20829906 20822016 20814578 20807000 20796988 20782042 20760318 
2526.000 20732064 20699430 20665792 20634242 20605820 20579310 20551866 
2529.375 20520462 20483226 20440400 20394176 20347922 20304138 20264662 
2532.750 20229982 20199366 20172292 20148412 20127240 20108154 20089970 
2536.125 20070882 20049438 20024662 19997460 19969602 19942820 19918814 
2539.500 19897238 19877154 19856724 19834596 19811222 19788090 19767284 
2542.876 19750362 19737150 19726192 19715132 19701680 19685524 19667252 
2546.251 19649052 19632966 19620002 19610432 19603604 19598890 19596186 
2549.626 19596048 19599410 19606204 19615736 19626102 19635530 19643296 
2553.001 19649780 19657232 19667842 19683580 19704488 19729660 19756638 
2556.377 19783790 19810354 19836644 19863452 19891134 19919056 19945698 
2559.752 19969464 19989204 20005648 20020256 20035558 20052944 20072548 
2563.127 20093126 20112874 20130538 20146468 20162226 20180276 20202698 
2566.502 20229878 20260532 20292508 20323616 20352644 20379520 20405324 
2569.878 20430746 20456030 20480238 20501842 20519872 20534080 20545718 
2573.253 20556486 20568090 20581848 20597968 20616346 20636326 20658146 
2576.628 20681846 20707180 20733280 20758198 20779262 20794208 20802028 
2580.003 20803280 20800186 20795286 20790662 20787014 20783676 20779262 
2583.379 20772762 20764628 20756114 20749440 20746556 20748364 20754618 
2586.754 20763934 20775230 20787464 20800500 20814682 20830256 20847288 
2590.129 20865262 20883860 20902844 20923044 20945088 20969776 20996832 
2593.504 21025070 21052858 21078492 21101204 21121450 21140372 21159088 
2596.880 21178292 21197078 21213988 21227730 21237370 21243668 21248190 
2600.255 21252784 21258734 21265588 21271922 21275890 21276166 21272652 
2603.630 21266528 21259428 21252992 21247738 21243390 21238934 21233820 
2607.005 21227906 21222198 21217744 21215380 21215066 21216006 21216738 
2610.381 21216110 21213570 21209394 21204038 21198332 21192384 21186434 
2613.756 21180240 21174396 21169768 21167472 21168550 21172656 21178778 
2617.131 21184832 21188800 21189494 21186642 21181528 21175614 21170326 
2620.506 21166184 21163158 21160132 21156202 21150740 21143852 21135920 
2623.882 21127536 21119154 21111014 21103674 21097448 21093274 21091256 
2627.257 21091464 21093204 21094596 21094352 21091432 21085658 21078526 
2630.632 21071848 21067640 21067222 21070874 21077622 21086528 21096092 
2634.007 21105900 21115848 21126318 21137554 21149906 21163124 21177492 
2637.383 21193496 21211692 21232776 21257168 21284344 21313716 21343820 
2640.758 21373960 21403614 21433098 21462724 21492698 21522466 21551086 
2644.133 21577376 21600358 21620244 21637970 21655244 21673600 21694150 
2647.508 21716998 21741452 21766430 21791304 21815344 21838340 21859908 
2650.884 21879734 21896880 21910678 21921030 21928278 21933680 21938630 
2654.259 21944032 21949990 21956158 21961144 21964176 21965116 21964942 
2657.634 21965186 21967416 21972782 21981602 21993348 22007150 22022558 
2661.009 22039500 22059056 22081714 22108350 22138858 22172368 22207866 
2664.385 22243924 22279778 22314692 22348390 22380726 22411148 22439376 
2667.760 22464986 22487806 22507802 22525180 22540048 22552612 22562906 
2671.135 22570760 22576798 22581718 22586604 22592644 22600566 22610828 
2674.510 22623080 22637078 22652438 22669192 22687486 22708050 22730744 
2677.885 22755566 22781826 22808958 22836302 22864206 22892742 22922466 
2681.261 22953520 22985310 23017312 23048650 23078944 23108646 23138386 
2684.636 23169490 23202344 23237298 23273688 23310920 23348330 23385778 
2688.011 23423790 23463132 23504438 23548020 23593986 23641988 23692094 
2691.386 23744758 23800826 23861136 23926076 23995368 24068208 24144142 
2694.762 24222684 24304496 24390532 24482578 24581656 24688228 24801700 
2698.137 24920678 25043618 25168878 25295048 25420730 25544762 25665314 
2701.512 25780660 25888968 25988896 26079768 26161228 26233446 26296102 
2704.887 26348522 26390030 26419610 26437040 26442850 26438552 26426052 
2708.263 26407708 26385280 26360140 26333242 26305712 26278430 26252594 
2711.638 26229362 26209442 26193218 26180514 26171012 26164888 26162108 
2715.013 26163094 26168056 26176994 26189242 26204092 26221268 26240768 
2718.388 26263540 26290752 26323034 26360386 26401616 26444680 26487538 
2721.764 26528816 26568160 26606028 26643618 26681034 26717854 26752350 
2725.139 26782342 26805884 26822166 26831718 26836546 26838732 26840354 
2728.514 26843032 26847332 26853006 26859598 26866542 26873202 26878878 
2731.889 26883002 26884942 26884660 26882440 26879442 26877046 26876412 
2735.265 26878068 26881664 26885894 26889384 26891322 26891534 26891182 
2738.640 26892062 26895940 26904330 26917832 26936304 26959536 26987074 
2742.015 27018876 27055302 27096528 27142590 27193242 27248028 27306384 
2745.390 27367820 27431802 27497842 27564954 27632216 27698782 27763908 
2748.766 27828092 27892356 27958538 28028830 28104542 28186840 28275878 
2752.141 28371474 28473070 28580600 28693892 28812524 28935794 29062322 
2755.516 29190764 29319456 29447514 29574760 29701968 29829572 29958384 
2758.891 30088370 30218786 30348672 30477602 30605184 30732094 30859110 
2762.267 30986802 31115282 31244084 31372212 31498418 31621952 31741920 
2765.642 31858108 31970012 32077592 32180346 32278162 32370862 32458934 
2769.017 32542746 32622996 32699834 32773078 32842546 32907986 32969572 
2772.392 33028058 33084516 33139620 33193838 33247170 33299468 33350774 
2775.768 33402116 33455186 33512414 33576484 33649124 33731228 33822520 
2779.143 33922320 34029524 34143136 34262760 34388272 34519196 34654824 
2782.518 34794444 34937448 35083300 35232620 35386084 35544676 35708864 
2785.893 35878512 36052296 36228416 36404968 36580044 36752340 36920668 
2789.269 37084256 37242388 37394612 37540968 37682172 37819916 37956252 
2792.644 38093176 38232172 38373776 38517532 38662236 38806596 38949548 
2796.019 39090736 39229944 39367088 39501592 39632796 39759828 39881960 
2799.394 39999292 40112512 40222964 40331808 40439876 40547324 40653372 
2802.770 40757228 40857468 40952964 41042980 41126752 41204012 41274880 
2806.145 41339744 41399660 41455720 41509164 41560464 41609468 41654908 
2809.520 41694988 41728036 41753424 41771772 41785340 41797272 41810404 
2812.895 41827188 41848680 41874912 41904904 41938004 41973368 42010996 
2816.271 42050928 42092872 42136352 42180204 42222488 42261636 42296148 
2819.646 42324968 42347872 42365036 42376764 42383780 42386844 42386700 
2823.021 42384144 42379868 42374096 42367044 42358608 42348892 42338264 
2826.396 42327852 42319124 42313976 42314008 42320436 42333992 42354920 
2829.771 42383232 42419652 42464844 42519948 42586316 42664824 42756624 
2833.147 42862048 42982200 43117680 43270004 43440692 43631044 43841788 
2836.522 44073172 44324416 44594352 44882272 45187956 45512072 45856500 
2839.897 46223456 46614816 47032740 47477940 47950784 48450452 48976028 
2843.272 49526076 50098652 50690936 51298164 51913556 52528144 53129592 
2846.648 53703456 54234304 54704572 55098084 55399756 55596592 55679752 
2850.023 55644688 55492328 55228140 54862860 54410932 53887820 53309968 
2853.398 52692744 52047932 51385276 50711680 50031280 49347336 48662620 
2856.773 47979688 47301260 46630232 45969120 45320524 44686560 44069464 
2860.149 43472368 42898324 42351232 41834776 41352096 40905052 40494468 
2863.524 40119816 39780344 39474628 39201836 38961292 38752756 38575756 
2866.899 38429776 38314204 38227612 38168236 38133872 38121644 38128228 
2870.274 38149788 38182780 38223124 38267484 38312832 38356768 38397160 
2873.650 38432816 38462900 38487552 38508080 38526656 38545956 38568804 
2877.025 38597520 38633228 38676184 38725840 38780944 38840652 38904068 
2880.400 38970572 39039584 39110100 39180188 39248188 39312204 39370752 
2883.775 39423724 39471508 39515636 39557444 39598276 39638860 39679768 
2887.151 39721232 39763604 39807072 39851960 39898048 39944836 39991660 
2890.526 40037332 40081004 40122360 40161356 40198500 40233724 40267348 
2893.901 40298792 40327336 40352024 40371912 40387004 40397440 40404348 
2897.276 40409076 40413660 40420060 40430644 40447260 40471552 40504472 
2900.652 40546192 40595996 40652896 40715920 40784124 40857468 40936580 
2904.027 41022624 41117536 41223180 41342548 41478796 41635872 41818284 
2907.402 42031544 42280844 42571844 42909920 43299544 43744376 44246852 
2910.777 44806776 45421568 46085272 46789328 47521292 48266380 49009448 
2914.153 49733424 50422104 51061260 51637472 52140128 52562324 52899924 
2917.528 53152960 53324840 53422256 53453508 53427876 53354552 53240932 
2920.903 53092748 52913396 52704564 52465848 52195276 51890256 51547056 
2924.278 51162196 50732976 50258060 49738252 49176616 48578312 47950380 
2927.654 47300448 46636840 45968016 45302024 44647668 44013728 43408576 
2931.029 42840908 42318028 41845576 41427652 41066544 40762432 40514256 
2934.404 40319408 40174148 40072720 40009024 39975532 39964416 39968704 
2937.779 39981816 39998308 40014696 40028140 40037076 40040964 40039768 
2941.155 40034204 40025452 40015240 40005356 39997908 39995076 39999108 
2944.530 40012188 40036568 40074212 40126612 40195156 40281016 40385220 
2947.905 40509416 40654720 40822524 41012280 41221428 41443912 41670112 
2951.280 41887828 42082396 42239688 42347720 42397332 42383960 42306708 
2954.656 42168188 41973184 41728072 41440412 41117352 40766656 40396096 
2958.031 40013024 39624484 39237088 38856452 38487480 38134340 37799744 
2961.406 37485520 37192100 36918572 36663136 36423420 36197264 35982852 
2964.781 35779016 35585168 35400676 35224964 35056864 34894752 34737656 
2968.156 34584420 34435036 34290548 34152132 34021676 33900612 33790072 
2971.532 33690268 33601296 33522256 33452644 33391670 33339214 33295498 
2974.907 33261906 33239942 33231896 33239406 33263732 33304870 33361934 
2978.282 33433284 33517316 33612752 33719092 33836380 33964848 34104316 
2981.657 34253692 34411044 34573368 34737692 34901076 35060780 35214472 
2985.033 35359952 35494692 35616280 35722136 35810284 35879372 35929112 
2988.408 35959852 35972776 35968816 35948908 35913316 35862136 35795028 
2991.783 35712208 35614768 35504548 35384756 35259680 35134064 35013156 
2995.158 34901432 34802340 34717916 34648472 34592996 34550336 34519268 
2998.534 34499532 34491644 34496952 34516468 34550692 34598664 34658412 
3001.909 34727176 34802232 34880896 34961364 35042608 35123752 35204556 
3005.284 35284760 35364696 35444972 35526660 35611172 35699656 35792944 
3008.659 35890784 35992032 36095532 36199348 36302436 36404284 36504932 
3012.035 36604988 36704708 36804268 36903892 37002996 37101544 37199392 
3015.410 37296864 37394652 37493396 37594004 37697024 37803140 37912244 
3018.785 38024272 38138648 38254388 38370844 38487840 38605560 38725012 
3022.160 38847248 38973184 39102956 39235492 39369048 39501336 39630616 
3025.536 39755868 39877236 39996096 40113600 40231036 40348312 40464756 
3028.911 40579116 40690812 40799668 40907052 41014976 41125692 41240668 
3032.286 41360480 41484116 41609796 41735296 41858820 41979828 42099076 
3035.661 42218468 42341112 42470512 42609304 42759732 42922612 43097516 
3039.037 43282928 43476728 43676988 43882036 44090956 44302988 44517508 
3042.412 44733200 44947712 45157188 45356644 45540808 45704368 45843352 
3045.787 45955900 46042464 46105796 46151008 46184688 46213620 46243840 
3049.162 46280404 46325524 46380228 46443504 46513532 46588476 46667276 
3052.538 46749108 46834096 46922240 47013352 47106924 47201844 47297084 
3055.913 47391748 47484996 47576672 47666408 47753720 47838092 47919448 
3059.288 47997816 48074240 48150344 48227836 48307892 48390780 48475532 
3062.663 48560228 48642460 48721256 48796032 48867848 48938084 49008072 
3066.039 49077960 49147044 49213536 49275700 49332416 49383944 49431428 
3069.414 49476836 49522028 49568228 49615660 49664472 49714104 49765044 
3072.789 49818068 49874704 49936296 50004064 50078312 50158788 50244332 
3076.164 50333652 50425712 50519016 50612672 50705832 50797560 50887476 
3079.540 50975404 51061632 51146500 51230380 51313376 51395120 51474272 
3082.915 51548888 51616572 51674824 51721256 51754772 51775380 51784264 
3086.290 51784304 51779560 51774184 51772168 51776276 51787736 51806328 
3089.665 51830444 51858856 51890928 51927336 51969872 52021112 52083196 
3093.041 52156940 52241576 52334820 52433508 52534720 52636708 52738684 
3096.416 52841880 52947192 53055532 53166704 53279028 53389768 53495480 
3099.791 53593384 53681524 53759288 53827808 53889324 53946984 54003788 
3103.166 54062996 54127248 54198304 54277852 54366620 54465020 54572832 
3106.542 54689580 54814064 54945540 55083376 55228368 55383004 55551820 
3109.917 55741640 55961476 56220676 56529736 56898764 57336236 57850080 
3113.292 58446936 59131700 59908552 60779704 61744724 62799416 63934596 
3116.667 65134340 66372888 67615432 68817448 69922752 70872400 71605696 
3120.042 72065480 72209832 72013024 71470368 70599040 69435920 68033616 
3123.418 66449484 64746672 62983968 61211072 59472324 57802388 56226788 
3126.793 54764824 53427316 52217920 51133752 50166484 49304764 48535108 
3130.168 47845344 47224712 46664212 46156720 45696600 45278636 44898696 
3133.543 44552976 44238196 43951948 43691428 43453908 43236288 43034696 
3136.919 42845076 42663580 42486296 42310396 42133432 41954424 41773304 
3140.294 41590800 41408736 41229300 41054340 40885500 40723092 40566204 
3143.669 40413112 40261860 40110988 39959620 39807832 39656136 39504676 
3147.044 39353664 39202672 39051080 38898740 38746344 38594984 38445736 
3150.420 38299040 38154276 38009808 37862896 37711444 37553796 37390136 
3153.795 37221628 37050516 36878788 36708204 36539456 36372760 36207960 
3157.170 36044876 35883548 35724080 35566180 35409488 35253352 35097204 
3160.545 34940680 34783672 34626836 34470872 34316296 34163748 34013576 
3163.921 33866112 33721492 33579672 33440300 33302400 33164692 33025808 
3167.296 32884322 32740134 32593638 32446724 32300864 32157830 32017950 
3170.671 31880718 31745058 31609728 31474442 31339410 31206096 31075916 
3174.046 30949724 30827806 30709368 30593168 30477746 30362282 30246600 
3177.422 30130702 30014654 29898676 29782338 29665604 29548406 29430708 
3180.797 29313112 29196256 29080672 28966254 28853210 28741044 28629792 
3184.172 28519136 28409322 28300420 28192640 28085594 27978752 27872040 
3187.547 27765146 27658064 27551080 27444014 27336978 27229578 27121394 
3190.923 27012496 26903096 26793654 26684592 26576014 26467572 26358520 
3194.298 26247454 26133604 26016932 25897830 25777494 25657686 25539632 
3197.673 25424174 25311416 25200898 25091638 24983072 24874640 24766164 
3201.048 24658522 24552344 24448962 24349178 24253444 24161446 24072200 
3204.424 23984128 23895408 23804572 23711198 23615608 23519058 23423404 
3207.799 23330112 23240268 23154078 23070664 22989536 22909576 22830504 
3211.174 22751902 22673872 22596170 22518828 22441574 22364716 22288638 
3214.549 22214246 22141962 22071990 22003074 21933820 21862034 21786114 
3217.925 21705678 21621010 21534198 21447300 21362194 21279994 21201044 
3221.300 21125032 21051258 20979652 20909970 20842248 20776342 20711906 
3224.675 20647550 20582890 20517336 20451306 20385460 20321046 20259004 
3228.050 20199886 20143658 20089934 20038820 19989898 19943548 19899700 
3231.426 19858078 19817428 19775780 19731324 19682332 19628114 19569150 
3234.801 19506522 19442204 19377862 19315088 19254712 19197740 19144376 
3238.176 19094898 19049578 19008140 18970098 18934552 18900392 18866478 
3241.551 18831666 18795094 18755686 18713342 18667544 18618914 18567902 
3244.927 18515896 18464344 18414666 18367378 18322306 18278726 18235462 
3248.302 18191718 18147080 18101684 18056226 18011154 17966466 17921506 
3251.677 17875582 17827904 17778056 17726766 17674894 17623614 17573582 
3255.052 17524558 17475850 17426524 17375824 17323512 17270104 17216596 
3258.427 17163818 17112428 17062628 17014076 16966628 16919946 16874300 
3261.803 16829902 16786918 16745524 16705647 16667360 16630761 16596163 
3265.178 16564047 16535064 16509628 16487911 16469808 16454838 16441898 
3268.553 16429717 16416401 16399471 16376831 16346794 16308572 16262820 
3271.928 16211396 16157093 16102724 16050359 16000921 15954170 15909452 
3275.304 15866010 15823638 15782574 15743542 15706714 15671605 15636774 
3278.679 15600709 15562313 15521550 15479657 15438833 15401412 15368799 
3282.054 15341166 15317276 15295172 15272795 15248429 15221559 15192357 
3285.429 15161647 15130425 15099926 15071658 15047475 15029363 15019108 
3288.805 15017255 15023017 15033445 15044455 15051282 15049772 15037939 
3292.180 15015609 14984843 14948661 14910391 14871849 14834270 14797072 
3295.555 14759226 14719944 14678642 14636043 14593037 14551302 14511970 
3298.930 14476547 14445614 14420197 14400948 14389029 14385638 14391460 
3302.306 14406634 14429925 14458083 14486516 14509572 14521289 14517143 
3305.681 14494566 14453869 14397591 14330328 14257151 14182275 14108678 
3309.056 14037798 13969666 13903837 13840139 13779050 13721423 13668352 
3312.431 13620893 13579458 13544350 13515192 13491984 13474210 13461428 
3315.807 13452986 13447382 13443656 13440341 13436787 13432994 13429986 
3319.182 13428858 13430328 13435078 13442528 13451722 13461565 13471340 
3322.557 13480739 13490240 13499913 13509620 13518815 13526677 13532385 
3325.932 13535941 13537718 13539257 13542298 13548247 13557510 13569680 
3329.308 13583663 13597919 13611389 13623219 13633202 13641716 13648999 
3332.683 13655358 13661069 13666335 13671361 13676285 13681106 13685175 
3336.058 13687397 13685654 13678131 13662778 13638365 13604824 13562912 
3339.433 13514576 13461702 13406543 13350298 13293582 13236122 13177406 
3342.809 13116580 13053237 12987547 12920229 12852955 12787431 12725534 
3346.184 12668627 12617049 12570729 12528199 12487481 12446017 12401181 
3349.559 12350725 12293458 12228939 12158365 12083850 12008496 11935335 
3352.934 11867089 11805051 11749285 11698395 11650471 11603777 11557055 
3356.310 11510610 11465360 11422769 11384059 11349094 11317125 11286042 
3359.685 11254009 11218986 11180328 11138309 11094152 11049693 11007041 
3363.060 10968198 10935067 10908803 10890421 10879856 10875982 10876424 
3366.435 10877714 10876016 10867285 10848735 10818841 10777944 10727506 
3369.811 10669875 10608008 10544520 10481821 10422051 10366905 10317702 
3373.186 10275290 10240143 10211851 10189531 10171656 10156324 10142045 
3376.561 10127461 10111317 10093173 10072860 10051191 10028675 10006703 
3379.936 9986360 9968527 9953236 9939981 9927438 9914250 9899165 9881674 
3383.794 9862218 9841950 9822359 9805176 9791485 9782233 9777489 9777082 
3387.651 9780844 9788029 9797924 9809040 9819513 9826765 9828528 9822801 
3391.509 9808668 9786402 9757529 9724152 9688744 9653780 9620580 9590025 
3395.366 9562689 9538709 9518523 9502842 9492378 9487670 9488042 9492378 
3399.223 9497796 9501114 9498879 9488449 9468333 9439245 9403047 9362824 
3403.081 9321827 9282897 9247865 9217369 9191479 9169752 9151478 9136014 
3406.938 9122817 9110974 9099504 9087391 9074263 9060020 9045471 9031533 
3410.796 9019186 9008901 9000377 8992326 8983497 8972706 8959549 8944835 
3414.653 8929682 8915376 8902930 8892175 8882672 8873371 8863598 8852844 
3418.510 8841077 8828904 8816697 8804591 8793027 8782445 8773214 8765877 
3422.368 8760908 8758000 8756208 8754010 8749345 8741197 8728993 8713848 
3426.225 8697655 8682782 8671120 8663210 8658444 8655199 8651413 8644924 
3430.083 8634716 8620453 8602574 8582364 8561107 8540730 8522516 8507885 
3433.940 8497749 8492004 8489808 8489741 8489639 8487782 8482612 8473590 
3437.798 8461055 8445176 8426731 8406056 8383253 8358561 8332587 8306344 
3441.655 8281554 8260042 8243056 8231271 8224145 8220499 8218439 8215602 
3445.512 8209795 8199294 8182782 8160195 8132274 8101283 8069586 8040287 
3449.370 8015479 7996039 7981459 7969614 7958038 7944776 7928882 7911200 
3453.227 7893856 7879112 7868585 7862579 7859846 7858463 7856237 7852154 
3457.085 7846115 7839266 7832754 7827188 7821993 7815347 7805395 7790450 
3460.942 7769840 7744912 7718165 7692262 7669869 7652737 7640361 7631796 
3464.800 7624546 7616925 7607213 7594974 7580542 7564931 7549051 7533913 
3468.657 7519551 7505257 7490458 7474513 7457322 7439525 7422470 7407640 
3472.514 7395944 7387654 7381621 7376397 7369893 7360692 7348493 7334036 
3476.372 7318771 7304416 7292185 7282717 7275135 7267959 7259670 7248350 
3480.229 7233290 7214221 7192021 7167632 7142941 7119532 7098818 7081575 
3484.087 7067733 7056451 7046415 7035875 7023381 7008531 6991089 6972098 
3487.944 6952840 6934625 6918566 6905437 6895573 6889143 6885777 6884901 
3491.802 6885036 6884329 6880559 6871941 6857567 6837607 6813843 6789005 
3495.659 6765783 6746297 6731658 6721630 6716044 6714294 6716347 6722471 
3499.516 6732399 6745119 6758312 6768172 6771268 6764604 6747374 6721327 
3503.374 6690706 6660255 6634786 6617258 6608679 6608444 6614028 6622809 
3507.231 6631960 6639328 6643096 6642794 6638891 6632835 6626914 6623717 
3511.089 6624996 6630883 6639698 6648311 6652517 6649287 6637208 6617561 
3514.946 6593675 6570060 6551357 6540593 6538776 6545605 6559262 6577965 
3518.803 6600269 6625097 6651238 6677079 6700834 6719880 6732466 6737884 
3522.661 6736807 6731658 6725736 6722068 6723044 6729067 6739230 6751884 
3526.518 6765177 6777696 6788702 6798967 6809199 6820306 6833365 6848546 
3530.376 6865511 6883824 6902878 6921697 6940113 6957486 6974018 6988934 
3534.233 7001864 7012303 7019475 7022674 7022001 7018162 7012740 7007824 
3538.091 7005972 7009205 7019139 7035976 7059212 7087199 7118117 7149779 
3541.948 7180500 7208292 7231707 7249192 7258997 7259738 7250304 7230426 
3545.805 7201757 7167194 7130950 7097673 7071707 7055811 7049884 7051770 
3549.663 7057461 7061940 7060290 7049412 7028264 6998160 6961997 6923414 
3553.520 6885945 6851710 6821585 6796005 6774364 6756359 6741350 6728966 
3557.378 6718029 6706925 6694172 6678223 6658607 6636065 6612985 6592497 
3561.235 6578032 6572482 6576888 6590445 6610025 6630816 6646192 6648715 
3565.093 6631893 6591118 6525019 6437912 6338247 6238807 6151119 6084515 
3568.950 6042717 6023600 6020879 6026456 6032873 6033948 6026489 6009993 
3572.807 5985671 5955404 5921511 5885808 5849670 5814712 5782173 5753230 
3576.665 5728452 5707838 5690548 5675207 5660537 5645800 5631333 5617940 
3580.522 5606864 5599513 5596325 5597768 5603641 5613644 5627607 5644659 
3584.380 5663457 5681048 5693502 5696087 5684572 5657213 5614919 5562930 
3588.237 5509269 5461855 5427263 5409448 5408643 5422566 5446857 5476619 
3592.094 5505880 5528833 5540780 5537927 5519269 5485947 5442227 5393311 
3595.952 5345038 5302036 5266451 5238313 5215777 5196496 5178053 5159511 
3599.809 5141405 5125244 5113443 5107508 5108380 5116058 5129602 5147574 
3603.667 5168966 5192203 5215610 5236301 5251124 5255316 5245054 5217689 
3607.524 5173761 5116997 5054675 4995848 4948021 4915447 4897821 4890247 
3611.382 4886025 4877547 4860425 4833118 4798777 4762864 4732079 4710809 
3615.239 4700258 4697913 4697913 4693425 4677516 4645364 4595968 4532282 
3619.096 4461072 4391648 4332944 4291414 4269898 4266853 4278699 4300182 
3622.954 4326619 4354999 4384552 4415680 4449791 4486615 4522672 4551266 
3626.811 4561512 4540786 4480321 4378661 4247613 4108979 3988880 3905322 
3630.669 3863933 3857983 3874363 3898134 3915820 3919598 3906927 3880782 
3634.526 3847118 3813122 3783875 3761816 3746275 3735480 3727259 3720274 
3638.384 3713992 3708277 3702897 3697048 3689730 3680207 3668879 3657818 
3642.241 3651002 3652539 3666139 3693473 3733742 3782773 3834248 3880147 
3646.098 3913011 3925784 3914382 3877673 3817735 3739324 3649097 3555650 
3649.956 3467499 3393993 3342869 3319030 3323103 3351217 3395395 3444721 
3653.813 3487606 3512992 3513292 3486337 3437975 3380268 3328045 3293722 
3657.671 3283640 3296526 3325607 3361201 3394660 3419306 3432297 3434468 
3661.528 3429191 3421443 3416067 3416801 3426186 3445189 3474179 3512457 
3665.385 3559825 3614649 3674960 3737285 3796209 3845848 3881016 3899906 
3669.243 3907763 3918260 3952532 4031618 4171031 4375682 4639269 4946580 
3673.100 5275842 5602164 5893331 6115195 6237060 6240892 6129745 5924534 
3676.958 5655334 5348158 5021791 4691013 4369089 4071350 3814627 3611308 
3680.815 3466931 3377396 3332018 3316525 3319030 3332552 3354890 3386078 
3684.673 3426018 3470806 3512724 3542020 3548734 3526988 3477385 3407918 
3688.530 3331316 3260571 3204723 3166172 3142942 3130827 3126556 3128725 
3692.387 3136935 3150685 3168074 3185831 3200617 3209496 3211933 3209029 
3696.245 3204423 3202220 3205391 3215238 3230793 3249421 3267515 3281102 
3700.102 3287345 3284374 3271921 3252091 3228891 3206893 3191171 3185330 
3703.960 3191538 3209330 3237103 3272222 3311751 3353387 3395662 3436906 
3707.817 3475448 3508783 3532900 3542855 3534470 3504942 3454941 3389484 
3711.675 3317360 3249454 3195577 3162600 3152821 3164169 3191639 3228891 
3715.532 3269952 3309480 3344071 3372588 3395395 3414430 3431562 3448361 
3719.389 3464961 3480291 3492683 3500900 3505075 3507480 3510921 3518904 
3723.247 3533468 3554146 3577565 3599080 3613881 3619227 3614983 3605461 
3727.104 3597209 3596875 3609036 3634362 3669681 3708778 3744036 3769871 
3730.962 3782973 3785313 3782037 3780165 3784310 3793936 3801858 3797680 
3734.819 3771175 3717668 3641078 3553344 3471039 3407985 3371486 3362069 
3738.677 3375326 3406582 3452202 3511088 3582810 3664501 3749082 3822749 
3742.534 3866307 3860791 3794504 3674392 3528725 3401172 3327944 3322602 
3746.391 3375927 3464159 3560727 3640377 3686188 3690900 3657217 3595873 
3750.249 3520541 3443418 3371719 3309915 3262273 3233764 3229091 3250322 
3754.106 3294456 3353120 3415632 3471540 3512524 3534771 3539448 3530529 
3757.964 3512591 3488241 3458581 3423614 3385544 3349614 3323170 3313220 
3761.821 3323003 3350015 3386880 3422512 3447760 3456711 3449497 3432497 
3765.678 3415065 3405413 3406716 3416768 3428824 3435637 3431128 3413495 
3769.536 3385444 3352953 3322836 3300466 3288614 3287212 3294690 3309046 
3773.393 3328312 3350883 3375526 3401473 3428156 3454540 3479423 3500566 
3777.251 3514795 3518837 3510186 3487940 3455542 3418738 3385344 3362670 
3781.108 3354523 3361001 3378431 3401172 3423915 3442717 3456177 3464460 
3784.966 3469202 3471707 3472409 3470939 3467499 3462322 3457346 3454707 
3788.823 3456511 3463591 3475515 3491280 3509484 3530228 3554113 3582609 
3792.680 3615785 3652539 3688861 3719606 3739858 3746275 3740059 3725956 
3796.538 3712120 3706272 3713056 3732005 3757304 3778695 3783474 3761415 
3800.395 3706038 3620430 3518035 3420074 3348479 3316492 3325874 3367479 
3804.253 3425284 3479623 3513192 3514061 3479557 3418070 3347444 3288747 
3808.110 3256865 3256832 3284341 3329981 3383874 3439077 3493017 3546363 
3811.968 3600751 3655880 3707876 3749149 3770573 3764557 3729498 3673022 
3815.825 3611943 3567108 3554547 3579770 3636167 3708110 3774751 3816565 
3819.682 3817535 3770406 3680975 3567943 3459182 3379233 3342302 3348479 
3823.540 3386746 3440446 3492716 3532199 3552944 3556986 3552108 3549269 
3827.397 3557988 3582409 3620697 3666640 3711853 3748247 3770874 3778795 
3831.255 3774650 3764122 3753060 3747311 3750018 3762284 3782271 3806103 
3835.112 3827763 3840332 3837725 3816298 3776422 3723416 3666406 3615084 
3838.969 3576763 3553745 3543456 3541151 3541118 3539782 3535573 3529193 
3842.827 3522278 3516432 3512825 3512324 3515330 3523547 3538446 3561629 
3846.684 3594069 3635766 3685587 3741830 3803295 3868714 3936550 4003760 
3850.542 4063490 4104931 4113661 4074260 3977912 3829802 3653642 3485268 
3854.399 3357394 3287345 3273090 3300299 3350749 3409989 3468167 3520608 
3858.257 3566641 3607500 3644319 3677533 3706706 3731537 3752224 3769269 
3862.114 3783207 3792866 3796309 3791329 3777425 3758407 3741630 3736449 
3865.971 3750519 3785112 3834516 3885195 3921872 3929361 3899504 3835385 
3869.829 3752625 3674025 3619060 3597243 3604927 3629885 3656549 3672220 
3873.686 3671385 3656816 3638038 3627245 3634663 3664602 3714827 3777391 
3877.544 3841469 3895726 3929562 3936282 3914783 3870786 3815863 3764891 
3881.401 3731804 3724051 3741830 3776790 3815897 3843174 3845179 3815496 
3885.259 3757939 3686689 3621165 3579870 3572487 3597744 3645221 3700290 
3889.116 3747645 3774450 3773915 3746509 3700156 3646825 3599682 3568879 
3892.973 3558990 3570449 3599648 3642749 3694910 3752124 3810783 3867310 
3896.831 3918027 3959353 3987977 4001520 4000417 3986505 3964135 3938322 
3900.688 3913079 3890544 3870151 3848856 3823217 3790828 3751656 3708411 
3904.546 3666406 3631689 3608569 3599314 3602989 3617255 3638171 3662463 
3908.403 3687191 3710315 3730701 3747545 3760245 3769771 3776823 3783675 
3912.260 3792934 3807173 3827529 3853603 3882421 3909467 3929996 3940228 
3916.118 3938622 3926753 3908531 3888371 3870051 3855342 3843876 3834081 
3919.975 3824621 3815128 3806805 3801992 3802393 3808777 3820008 3833881 
3923.833 3847419 3858819 3867076 3873628 3881016 3891079 3905255 3922941 
3927.690 3942267 3960557 3975103 3983897 3986439 3982526 3973330 3960156 
3931.548 3944574 3928626 3914282 3904018 3899404 3901310 3908966 3920166 
3935.405 3931835 3940930 3944909 3943404 3937252 3929227 3922105 3918327 
3939.262 3918695 3922072 3926720 3929528 3928358 3922072 3911173 3897966 
3943.120 3885195 3875701 3871355 3872826 3878977 3887703 3896629 3903449 
3946.977 3906459 3905322 3900708 3893988 3886800 3880682 3876068 3872625 
3950.835 3870018 3867410 3864869 3862730 3861928 3863398 3868045 3875567 
3954.692 3885530 3896763 3908163 3918628 3927355 3934242 3939224 3942568 
3958.550 3944541 3945310 3945912 3946480 3947985 3950392 3953736 3956946 
3962.407 3959788 3961259 3961326 3960657 3960423 3961728 3965406 3971558 
3966.264 3979048 3986572 3992424 3995200 3994263 3990151 3983629 3976173 
3970.122 3969485 3964737 3963399 3966007 3972862 3983797 3997641 4013258 
3973.979 4029243 4044393 4057738 4069343 4079511 4088575 4096636 4103326 
3977.837 4108009 4109748 4108410 4104162 4098342 4092388 4087672 4085097 
3981.694 4084795 4085866 4087204 4088174 4088441 4088207 4088241 4089044 
3985.552 4090916 4094127 4098476 4104195 4111521 4121054 4132895 4147078 
3989.409 4162734 4178123 4191907 4202612 4209739 4213787 4215928 4217601 
3993.266 4220311 4224527 4230315 4236739 4242795 4247613 4250458 4251261 
3997.124 4250424 4248183 4245037 4241189 4236438 4230516 4222887 4213318 
##END=
