
##TITLE=1132a_2_a
##JCAMP-DX=5.01  $$ Nicolet v. 1
##DATATYPE=INFRARED SPECTRUM
##ORIGIN=UniL
##OWNER=Nicolet
##LONGDATE=2011/09/21
##TIME=14:11:34
##SPECTROMETER/DATA SYSTEM=Nicolet iS5
##DATA PROCESSING=
Ratio against background
%Transmittance->Absorbance
Truncated
ElementMultiply or ElementDivide
##COMMENTS=
Number of sample scans: 32
Collection length: 51.21 sec
Sample gain: 2.0
Background collected on: Mer Sep 21 14:09:10 2011 (GMT+02:00);
Number of background scans: 32
Background gain: 2.0
Sample spacing:  1.000
Number of scan points: 12415
Resolution points: 8192
Number of FFT points: 65536
Apodization: N-B fort;
Phase correction: Mertz;
Laser frequency: 15798.0 cm-1
Number of rejected sample scans: 0
Number of rejected background scans: 0
Bench serial number: ASB1000141;
##RESOLUTION=4.000
##XUNITS=1/CM
##YUNITS=ABSORBANCE
##FIRSTX=649.893372
##LASTX=4000.122314
##FIRSTY=0.077927
##MAXX=4000.122314
##MINX=649.893372
##MAXY=0.286035
##MINY=0.004784
##XFACTOR=1.000000
##YFACTOR=1.000000E-009
##NPOINTS=6950
##DELTAX=0.482117
##ZPD=6100
##XYDATA=(X++(Y..Y))
649.893 77927432 78490544 79088120 79729448 80418128 81151152 81924904 
653.268 82741664 83613288 84561424 85607776 86766992 88042056 89424920 
656.643 90908072 92495296 94207248 96082328 98167856 100503352 103118184 
660.018 106026400 109225328 112695456 116387424 120206824 123990944 
662.911 127524288 130581336 132950080 134489424 135118736 134782784 
665.803 133422672 130970936 127423864 122947752 117977736 113148560 
668.696 109010336 105825240 103538608 101929016 100742592 99778768 98918800 
672.071 98111208 97357224 96684472 96124744 95695864 95397800 95219080 
675.446 95145696 95172096 95301768 95545384 95914152 96413616 97040664 
678.820 97785432 98637704 99593280 100659824 101857496 103211424 104748816 
682.195 106491264 108451816 110643024 113084640 115809264 118871968 
685.088 122342264 126290904 130786864 135884960 141628720 148058784 
687.981 155210784 163098512 171666496 180732064 189910560 198538032 
690.873 205760640 210584304 212062784 209595872 203036400 192792896 
693.766 179711888 164966464 149829248 135398592 122592040 111993952 
696.659 103839784 98112040 94584488 92933096 92803024 93906096 96062232 
700.034 99186896 103258032 108228320 113915464 119950552 125736896 130486640 
703.408 133437168 133973480 131824880 127148032 120492544 112669216 
706.301 104499104 96731624 89881440 84182008 79658072 76176072 73543472 
709.676 71559752 70068272 68960264 68155160 67591936 67215064 66972532 
713.051 66825844 66752196 66744620 66805252 66934100 67121784 67350424 
716.425 67597704 67846480 68092408 68343208 68612824 68913464 69248904 
719.800 69613120 69996248 70390536 70796896 71226304 71695808 72220280 
723.175 72807416 73453880 74148000 74873072 75610672 76343528 77054624 
726.550 77725208 78336464 78872360 79326424 79707872 80045936 80386944 
729.925 80781128 81275272 81898464 82656600 83537984 84520800 85587040 
733.300 86728304 87949712 89263464 90681584 92208360 93838688 95563920 
736.674 97381144 99301824 101356216 103585336 106033072 108734328 111705976 
740.049 114950504 118464640 122251200 126328840 130735768 135524112 
742.942 140763024 146539680 152964880 160193584 168408368 177777616 
745.835 188375376 200058256 212350736 224298784 234587072 241693424 
748.727 244220496 241451920 233600640 221879456 208072480 194211776 
751.620 182120256 173008608 167530704 165704928 167056032 170731424 
754.513 175705568 181017648 185799728 189445088 191615648 192167824 
757.405 191098064 188457904 184305024 178691552 171691200 163448448 
760.298 154206368 144328112 134292064 124596968 115743552 108164256 
763.191 102136000 97789160 95075864 93802088 93650128 94242728 95223048 
766.566 96257640 97091992 97562456 97574528 97107992 96202840 94954216 
769.940 93493128 91970008 90540824 89328576 88412184 87819776 87533720 
773.315 87510016 87699616 88068352 88598568 89285104 90125000 91107832 
776.690 92213560 93419776 94708336 96071992 97514176 99041448 100653808 
780.065 102338688 104070168 105817416 107554016 109262744 110938216 
782.958 112578904 114179656 115724528 117185632 118527016 119716216 
785.850 120726904 121542472 122152992 122548192 122712896 122627808 
788.743 122271400 121628744 120697464 119489208 118026432 116334704 
791.636 114438328 112355384 110099952 107688168 105141480 102487632 99758424 
795.010 96981176 94174032 91346968 88505656 85661696 82840928 80081552 
798.385 77433728 74947688 72659608 70591408 68747688 67122400 65705484 
801.760 64486636 63454920 62594160 61880800 61285128 60773340 60317468 
805.135 59899084 59510432 59151936 58825756 58531704 58267292 58031332 
808.510 57830360 57682640 57618544 57676624 57891952 58291996 58888512 
811.885 59674816 60622104 61677700 62766872 63783252 64602196 65099584 
815.259 65161400 64719216 63764720 62356600 60606904 58658468 56663548 
818.634 54743548 52983428 51429360 50093444 48969576 48041968 47292244 
822.009 46697672 46230424 45861284 45560648 45306036 45087632 44905676 
825.384 44767104 44676976 44634080 44628428 44646860 44677524 44717116 
828.759 44770116 44846380 44953668 45092592 45255760 45431648 45610620 
832.133 45789816 45974096 46173264 46396272 46645688 46917552 47204176 
835.508 47499560 47803728 48123508 48468716 48847972 49264308 49714732 
838.883 50193744 50698684 51233060 51807448 52434180 53123416 53879008 
842.258 54697620 55572984 56500940 57482588 58525220 59638096 60826088 
845.633 62084916 63398972 64743168 66083716 67380568 68591048 69663640 
849.008 70541592 71169432 71496072 71491696 71157128 70532000 69689632 
852.382 68725992 67748440 66847912 66091388 65516920 65132184 64923896 
855.757 64864456 64921976 65061896 65252192 65467492 65689684 65910720 
859.132 66132828 66366204 66624664 66920772 67264384 67661200 68115704 
862.507 68632336 69216232 69868224 70578504 71320048 72044440 72680600 
865.882 73150424 73376112 73295384 72877472 72127168 71086336 69823200 
869.256 68428880 67004464 65643696 64436248 63454956 62748952 62349140 
872.631 62265728 62494744 63025644 63849152 64962528 66372036 68092600 
876.006 70144512 72548656 75317064 78442112 81878024 85532688 89246656 
879.381 92788784 95894728 98272632 99662760 99902280 98947888 96906992 
882.756 94009472 90593160 87030752 83658320 80769432 78562080 77142992 
886.131 76550256 76763088 77723976 79343016 81509056 84082112 86877056 
889.505 89681152 92241016 94278008 95543152 95830392 95024312 93127136 
892.880 90259912 86648296 82565272 78315392 74171424 70332216 66930972 
896.255 64020708 61594488 59609548 58007588 56730332 55721488 54932452 
899.630 54319080 53839212 53458940 53151952 52901532 52699816 52542876 
903.005 52426592 52343492 52282796 52233464 52189224 52149616 52120104 
906.379 52107624 52117564 52149728 52199496 52260296 52327644 52402180 
909.754 52488616 52592652 52717844 52862200 53019852 53183592 53348408 
913.129 53514408 53686360 53870792 54072080 54290504 54522340 54763132 
916.504 55010748 55267612 55539508 55833384 56152532 56495316 56854988 
919.879 57223196 57594560 57968584 58350248 58747188 59167316 59616200 
923.254 60097320 60615440 61177920 61795528 62479056 63232100 64043900 
926.628 64883768 65704720 66446008 67046024 67459632 67663176 67664256 
930.003 67497056 67220016 66901712 66608444 66402072 66328996 66418440 
933.378 66685856 67131528 67745616 68507480 69390272 70358240 71366472 
936.753 72365552 73302640 74128472 74810480 75338104 75730304 76031496 
940.128 76309520 76640328 77090520 77712808 78534376 79557728 80764488 
943.502 82120696 83582920 85094456 86590656 87998520 89233912 90217168 
946.877 90878248 91166192 91062296 90579968 89765760 88685576 87421336 
950.252 86059328 84676776 83345768 82126056 81060136 80176992 79488376 
953.627 78991576 78672392 78511544 78490264 78591944 78804616 79119288 
957.002 79526896 80017648 80581680 81209472 81895904 82640408 83447144 
960.377 84321960 85270520 86296760 87402576 88591088 89870032 91252648 
963.751 92759944 94417384 96248584 98272800 100499344 102925720 105539288 
967.126 108322024 111257104 114335144 117560480 120951280 124535880 
970.019 128339336 132367520 136586960 140914448 145204544 149251520 
972.912 152829600 155704448 157681888 158656416 158628112 157720848 
975.804 156152480 154227408 152275904 150594704 149440608 148975568 
978.697 149253840 150216368 151693872 153428720 155080832 156300896 
981.590 156764432 156211168 154508416 151656096 147790544 143140016 
984.482 137997888 132673856 127430888 122491864 118013696 114081880 
987.375 110731136 107949368 105694792 103906360 102517720 101467696 
990.268 100699552 100167224 99833008 99662712 99627416 99701736 99862912 
993.643 100094280 100384264 100725328 101113000 101543416 102011560 
996.535 102511720 103038024 103585456 104151144 104733928 105333584 
999.428 105949680 106580320 107223080 107875536 108536424 109206576 
1002.321 109888616 110586128 111302352 112039832 112800312 113586224 
1005.213 114401192 115250752 116141192 117077496 118062784 119096392 
1008.106 120174704 121292072 122443552 123625568 124836296 126074776 
1010.999 127340240 128631072 129945144 131281760 132642688 134033400 
1013.891 135464000 136946656 138494096 140117472 141825424 143623280 
1016.784 145515584 147505504 149596688 151792976 154097216 156510080 
1019.677 159028368 161643968 164340720 167090448 169852832 172566992 
1022.570 175152192 177517248 179558256 181181152 182320288 182949104 
1025.462 183094560 182832288 182282976 181582272 180859984 180227808 
1028.355 179753040 179457728 179313840 179250848 179155984 178880592 
1031.249 178265408 177139152 175341584 172754416 169306336 164995344 
1034.142 159890528 154133648 147922992 141481184 135056160 128875744 
1037.035 123122336 117934264 113381056 109472360 106171704 103413768 
1039.928 101122872 99223080 97652312 96359264 95301360 94445264 93761584 
1043.303 93225080 92816728 92521216 92326336 92222336 92198248 92242904 
1046.678 92346624 92502560 92708624 92967080 93281872 93654192 94078472 
1050.053 94538840 95010952 95463808 95863000 96177752 96383624 96465168 
1053.429 96418872 96253216 95990608 95662072 95308784 94974912 94699104 
1056.804 94512808 94434760 94470840 94617320 94864208 95199152 95605128 
1060.179 96059800 96532448 96978608 97344704 97573616 97609824 97414024 
1063.554 96968168 96279888 95379104 94314520 93146064 91932960 90732288 
1066.930 89593576 88552456 87633528 86848080 86196688 85672512 85266192 
1070.305 84970544 84781240 84697552 84719256 84843832 85064272 85370240 
1073.680 85748840 86188696 86681664 87222296 87807568 88433792 89096072 
1077.055 89789192 90509936 91259960 92048024 92889720 93805912 94817464 
1080.431 95945352 97208240 98623104 100209080 101988472 103985504 106227808 
1083.806 108741008 111545600 114654944 118070656 121779104 125744552 
1086.699 129909976 134192584 138483024 142665200 146620656 150244608 
1089.592 153466176 156245632 158574016 160457472 161899856 162887056 
1092.485 163385504 163350224 162751104 161600800 159981072 158047376 
1095.378 156009440 154123344 152633344 151738592 151577584 152194560 
1098.271 153537552 155450864 157701616 159982912 161934304 163212032 
1101.164 163497360 162549968 160255488 156625696 151802416 146014288 
1104.057 139559488 132752744 125875976 119187448 112885464 107102472 
1106.950 101921592 97370360 93434816 90072576 87225536 84830504 82821768 
1110.326 81139768 79728088 78531512 77501768 76594400 75771560 75007104 
1113.701 74282904 73590104 72925992 72291704 71690264 71125632 70603056 
1117.076 70128584 69708384 69347200 69047656 68809064 68628496 68502312 
1120.451 68427368 68401888 68424656 68493736 68604984 68752344 68929112 
1123.827 69129664 69352568 69600440 69880056 70199072 70564392 70980664 
1127.202 71450136 71974544 72556328 73199800 73910168 74691264 75543088 
1130.577 76459760 77429728 78436912 79460800 80480328 81473640 82417312 
1133.952 83290736 84075472 84759240 85340512 85830952 86257720 86658320 
1137.328 87079704 87571088 88174496 88926072 89851608 90967104 92281048 
1140.703 93795384 95505872 97401256 99463816 101669112 103983104 106365192 
1144.078 108766800 111127112 113378528 115443480 117233544 118662504 
1146.971 119645512 120108472 120001656 119300040 118008312 116156952 
1149.864 113799320 111004696 107848184 104414560 100790144 97056240 93293416 
1153.240 89571304 85945464 82462976 79158928 76060000 73189248 70563304 
1156.615 68192376 66079928 64221188 62604336 61212484 60026744 59026052 
1159.990 58187308 57486788 56897332 56390420 55940632 55525460 55129232 
1163.365 54743960 54367180 53999504 53642864 53298732 52968496 52654740 
1166.740 52362144 52097164 51866696 51676208 51528368 51423168 51359168 
1170.116 51335640 51354172 51418284 51531800 51697220 51913856 52178944 
1173.491 52488284 52839632 53234004 53675860 54171500 54726220 55343184 
1176.866 56022540 56763108 57563764 58424988 59348848 60335972 61383428 
1180.241 62481888 63614584 64760752 65898068 67006588 68073880 69094768 
1183.617 70072312 71016320 71943152 72874456 73833424 74845912 75933968 
1186.992 77111016 78378256 79719928 81104976 82484776 83802160 84998016 
1190.367 86013032 86799640 87323120 87562136 87510168 87171992 86561048 
1193.742 85694792 84593352 83277736 81769008 80092472 78282456 76382000 
1197.118 74449560 72553360 70758632 69124920 67689232 66461256 65424576 
1200.493 64543800 63776768 63083112 62435020 61820168 61238652 60699144 
1203.868 60213588 59794272 59450320 59188504 59012120 58920768 58910104 
1207.243 58971888 59096504 59274328 59499184 59769480 60088460 60461820 
1210.619 60894892 61391592 61953592 62581376 63276640 64043328 64887004 
1213.994 65814196 66829784 67935928 69132488 70418672 71796104 73270080 
1217.369 74850048 76548672 78380232 80357240 82491304 84793400 87274224 
1220.744 89946200 92822504 95914440 99228368 102761464 106499224 110410408 
1224.120 114447160 118545472 122616952 126555952 130236624 133506328 
1227.013 136205520 138169776 139243792 139314800 138322896 136279760 
1229.906 133267448 129435568 124985128 120130224 115102280 110120144 
1232.799 105364960 100991952 97109944 93779344 91024912 88838040 87188560 
1236.174 86031984 85318216 84995840 85009784 85308784 85844152 86569704 
1239.549 87447472 88443664 89525856 90663168 91818656 92948328 94006184 
1242.925 94943168 95716224 96296056 96668696 96838864 96826480 96665512 
1246.300 96398064 96069392 95730384 95429712 95210624 95108776 95143792 
1249.675 95317456 95613720 96003664 96450896 96917928 97375552 97803224 
1253.050 98191912 98543024 98867168 99184232 99519896 99907320 100382264 
1256.426 100976144 101713744 102604656 103641232 104795832 106023688 
1259.319 107267400 108454624 109508384 110349568 110895864 111075504 
1262.212 110829272 110115912 108921552 107258280 105164408 102693968 
1265.105 99914496 96900160 93722728 90459168 87187464 83979904 80907184 
1268.480 78028392 75385240 73006976 70908368 69094928 67566304 66317724 
1271.855 65339684 64615844 64124396 63839668 63734172 63785212 63975408 
1275.230 64293072 64730824 65282456 65940568 66696868 67543472 68474816 
1278.606 69490272 70593080 71789496 73086008 74488928 76003504 77635264 
1281.981 79392376 81285336 83324848 85518368 87864352 90347696 92934368 
1285.356 95576104 98210064 100762016 103159736 105333168 107219304 108771440 
1288.731 109954376 110747296 111142088 111139784 110746008 109965480 
1291.625 108798088 107238048 105278352 102918912 100177360 97097056 93754760 
1295.000 90252288 86708040 83254088 80013552 77098664 74609624 72620208 
1298.375 71181136 70315648 70016408 70247368 70946680 72040880 73443640 
1301.750 75066376 76827576 78643840 80434392 82124016 83635464 84898856 
1305.125 85858520 86471192 86713384 86579200 86078400 85235512 84092800 
1308.501 82720328 81213232 79697120 78320752 77220688 76505200 76220024 
1311.876 76330848 76716552 77185736 77529968 77547040 77098872 76139784 
1315.251 74713504 72937904 70963416 68953504 67042820 65320388 63834256 
1318.626 62590940 61573448 60753636 60106076 59611980 59258720 59037780 
1322.002 58941112 58959024 59081548 59298708 59601948 59984552 60439084 
1325.377 60956728 61526068 62133048 62762432 63400544 64035876 64659952 
1328.752 65267592 65854764 66418752 66957764 67471352 67961536 68433072 
1332.127 68893544 69350816 69812776 70285040 70770760 71271312 71787544 
1335.503 72320976 72874192 73450072 74051288 74679272 75333928 76014840 
1338.878 76722360 77459272 78230048 79041456 79899464 80807824 81767888 
1342.253 82778304 83837408 84944512 86101304 87313280 88587928 89933568 
1345.628 91357152 92862632 94450904 96119704 97866240 99687728 101582984 
1349.004 103550632 105588304 107690160 109846664 112045928 114276984 
1351.897 116534248 118821344 121151816 123547216 126032336 128633576 
1354.790 131373496 134271296 137342144 140593168 144017696 147584624 
1357.683 151236608 154881232 158398912 161671280 164590656 167089440 
1360.576 169152320 170814432 172148560 173236416 174162240 174990848 
1363.469 175765264 176514496 177254800 177992560 178726400 179447792 
1366.362 180146832 180820192 181481424 182167440 182938512 183861200 
1369.255 184997600 186390480 188057184 189996320 192198096 194657136 
1372.148 197373040 200347520 203574736 207030704 210674816 214461952 
1375.041 218361968 222372672 226515232 230816032 235273776 239833504 
1377.934 244362720 248672272 252530224 255682976 257901904 258973056 
1380.827 258702608 256948320 253638960 248827472 242699408 235559712 
1383.720 227748960 219529328 211054096 202334928 193295632 183852752 
1386.614 174003392 163869136 153677824 143694112 134144064 125186648 
1389.507 116905544 109343920 102536640 96502408 91249656 86763672 82998784 
1392.882 79888000 77355128 75336840 73777224 72625848 71830192 71319736 
1396.257 71015072 70847088 70768184 70772824 70898888 71222200 71830856 
1399.632 72797112 74165688 75944936 78120392 80663624 83539384 86691936 
1403.008 90022712 93388888 96586088 99363800 101482680 102737664 103005048 
1406.383 102263000 100580456 98100328 95000312 91489824 87781408 84068640 
1409.758 80538080 77337024 74563280 72269192 70459664 69111632 68190784 
1413.133 67668440 67523880 67739072 68291632 69146712 70256752 71577168 
1416.509 73071968 74725112 76544048 78547272 80747256 83127960 85643936 
1419.884 88232984 90840640 93440280 96031608 98625600 101220160 103784440 
1423.259 106251552 108514808 110459800 111987608 113028544 113548560 
1426.152 113528728 112948472 111783240 110015120 107658408 104773824 
1429.045 101480632 97937552 94303488 90727152 87327096 84190008 81384992 
1432.420 78958232 76927008 75281832 73985048 72985024 72229752 71690216 
1435.796 71370496 71303760 71527904 72054568 72852944 73859928 75000448 
1439.171 76205808 77426832 78626248 79775704 80854920 81844528 82728872 
1442.546 83498096 84148544 84682448 85105664 85423808 85638128 85745368 
1445.921 85740440 85624200 85411872 85140568 84862608 84633728 84497576 
1449.297 84470048 84542664 84693320 84903728 85169312 85502832 85925472 
1452.672 86453888 87086952 87803304 88561640 89311848 90009544 90620104 
1456.047 91131496 91554128 91916416 92243064 92541672 92806632 93028696 
1459.422 93207784 93356104 93494648 93646056 93827256 94045144 94297688 
1462.798 94578672 94885240 95223496 95610408 96069800 96629080 97314272 
1466.173 98146512 99148304 100340888 101740672 103354616 105174544 107179352 
1469.548 109329432 111577944 113870888 116135560 118284056 120209800 
1472.441 121798144 122951720 123606632 123732520 123324400 122389304 
1475.334 120948920 119047576 116761496 114193368 111446184 108607048 
1478.227 105725136 102811336 99858320 96858784 93822032 90783864 87797024 
1481.603 84916144 82187072 79633512 77260544 75061136 73022456 71131176 
1484.978 69375272 67745040 66234776 64845072 63583284 62461340 61491904 
1488.353 60682796 60034888 59543608 59205476 59019828 58990144 59117044 
1491.728 59391964 59793396 60289984 60842784 61416936 61987072 62538864 
1495.104 63072308 63595296 64114332 64624884 65106512 65527208 65856116 
1498.479 66071904 66170992 66168324 66094360 65989508 65893636 65844388 
1501.854 65869108 65981096 66178664 66443808 66744156 67030868 67249336 
1505.229 67352632 67323464 67195256 67050704 66989736 67072244 67301528 
1508.604 67637112 68025592 68419384 68786584 69114856 69405592 69670648 
1511.980 69926176 70188008 70466128 70762456 71071184 71380848 71680208 
1515.355 71962112 72231472 72507152 72820656 73202112 73667792 74211128 
1518.730 74804144 75403928 75964000 76454816 76877096 77271312 77697864 
1522.105 78213304 78837872 79549896 80300232 81034664 81714096 82318576 
1525.481 82853280 83341632 83815304 84301408 84815432 85366416 85961496 
1528.856 86611400 87329808 88126640 89000936 89937032 90910312 91896392 
1532.231 92884720 93890760 94958752 96147608 97498624 99023472 100698136 
1535.606 102483768 104336488 106222312 108127368 110046408 111991808 
1538.500 113991320 116087336 118324552 120731320 123320704 126075224 
1541.393 128964528 131965760 135064160 138254864 141532160 144878320 
1544.286 148251968 151586800 154809104 157845520 160634512 163129520 
1547.179 165273328 166990944 168200192 168822048 168830048 168274384 
1550.072 167282256 166002656 164540752 162927408 161120464 159054656 
1552.965 156705504 154137664 151510992 149035984 146871664 145071248 
1555.858 143555712 142148160 140607776 138689136 136228464 133229208 
1558.751 129935488 126749944 124030936 121911760 120315432 119060648 
1561.644 117963480 116875752 115675304 114272848 112614976 110699792 
1564.537 108582920 106365272 104160784 102041272 100013728 98015944 95945064 
1567.912 93693992 91198848 88477744 85638616 82846144 80252392 77950984 
1571.288 75956464 74227952 72700504 71310944 70006048 68743920 67493696 
1574.663 66243804 65019444 63896516 62994660 62446420 62340920 62704280 
1578.038 63511484 64716288 66280128 68185480 70438384 73058016 76062832 
1581.413 79457616 83218816 87286704 91568248 95920888 100161752 104085744 
1584.789 107463160 110084280 111788896 112473024 112112536 110762688 
1587.682 108568624 105747368 102576376 99375840 96437072 94009144 92276704 
1591.057 91341536 91245288 91978696 93498960 95735888 98599488 101993208 
1594.432 105801096 109897832 114159744 118459072 122683664 126744184 
1597.325 130562144 134066552 137179440 139800688 141822224 143142912 
1600.218 143688720 143436848 142417920 140711360 138421952 135676064 
1603.111 132614224 129372448 126088160 122881792 119835880 116998288 
1606.004 114378432 111959648 109714672 107620536 105665888 103848320 
1608.897 102168448 100622808 99200848 97889904 96681616 95576800 94584488 
1612.273 93714960 92968928 92329696 91759832 91204288 90606424 89921344 
1615.648 89142248 88314120 87532176 86908384 86522304 86401128 86517616 
1619.023 86816760 87234936 87718632 88233432 88761408 89305464 89885760 
1622.398 90537320 91298600 92201640 93265032 94487312 95852384 97334088 
1625.774 98904200 100532000 102186392 103841128 105474312 107073680 
1628.667 108638280 110178504 111711024 113252840 114818832 116419216 
1631.560 118061008 119747960 121485880 123286680 125170472 127172320 
1634.453 129342632 131746608 134438160 137444608 140761888 144349584 
1637.346 148165920 152183328 156394560 160807936 165438608 170304000 
1640.239 175407968 180738400 186271184 191962384 197756512 203597600 
1643.132 209414096 215138784 220721008 226129824 231376032 236509888 
1646.025 241614976 246752560 251933344 257112624 262199728 267102368 
1648.918 271740096 276049632 279923136 283146880 285372768 286035392 
1651.811 284449824 280119328 273206656 264756528 256161872 248378960 
1654.704 241568288 235385600 229334336 223034112 216291360 209091760 
1657.597 201544416 193811184 186054192 178359072 170738544 163150896 
1660.490 155532016 147837888 140074416 132312480 124686288 117371672 
1663.384 110542872 104332776 98804560 93944720 89685176 85923416 82548560 
1666.759 79463504 76603328 73947016 71521344 69388792 67622832 66278352 
1670.134 65371728 64879536 64749712 64925900 65357172 66005476 66851588 
1673.509 67892496 69142752 70628984 72380432 74412632 76714176 79258176 
1676.885 82016952 84977672 88147376 91545176 95188352 99067336 103143352 
1680.260 107356528 111638520 115952264 120304592 124745232 129352224 
1683.153 134192584 139268864 144458864 149541760 154270656 158449920 
1686.046 161957488 164713408 166663328 167749552 167935120 167218832 
1688.939 165633952 163245952 160139296 156425296 152240144 147738800 
1691.832 143088000 138404720 133719144 128955512 123939856 118474256 
1694.725 112463760 106053040 99658504 93818904 88916512 85039608 81993176 
1698.100 79451768 77073504 74624648 72066336 69571432 67429368 65845044 
1701.476 64813444 64145716 63597368 62940040 62012716 60714956 58996180 
1704.851 56859068 54356480 51587728 48672888 45734336 42880696 40186764 
1708.226 37697712 35424804 33349414 31437464 29657020 27993700 26455844 
1711.601 25066540 23844508 22790136 21875936 21056232 20281292 19521252 
1714.977 18775578 18068592 17429800 16873476 16385639 15935849 15498542 
1718.352 15075192 14696259 14400605 14211478 14122267 14099334 14096219 
1721.727 14074657 14015690 13928846 13841405 13785103 13774706 13801179 
1725.102 13837026 13853001 13834906 13788695 13735205 13696528 13682815 
1728.478 13686098 13685278 13660214 13605098 13532591 13466623 13426637 
1731.853 13414335 13407397 13368784 13263861 13089227 12882375 12706598 
1735.228 12610056 12600574 12649285 12710829 12745972 12731028 12666648 
1738.603 12573355 12481684 12414443 12374896 12347861 12312138 12253887 
1741.979 12174959 12088381 12009926 11946778 11893174 11833106 11750988 
1745.354 11641792 11514182 11386679 11276622 11191004 11121414 11048776 
1748.729 10953043 10825771 10675682 10525407 10399517 10312137 10261483 
1752.104 10234342 10216228 10200114 10189463 10192550 10214904 10253273 
1755.479 10294121 10319500 10317634 10290354 10254459 10231799 10238821 
1758.855 10276818 10332293 10382582 10408069 10401621 10373420 10345085 
1762.230 10338265 10363273 10414314 10475644 10530872 10572494 10602847 
1765.605 10630825 10664544 10705974 10748258 10781000 10797000 10798460 
1768.980 10795980 10803011 10826620 10861781 10891543 10895518 10862291 
1772.356 10798188 10727370 10678263 10669637 10700813 10755526 10811436 
1775.731 10851963 10873094 10883083 10895960 10922495 10962829 11006633 
1779.106 11037662 11044562 11027941 11001433 10984476 10991510 11023795 
1782.481 11069067 11109380 11129335 11125323 11107136 11092996 11098197 
1785.857 11128076 11175433 11226500 11269854 11302433 11330864 11366100 
1789.232 11415999 11478492 11540961 11584278 11594453 11569849 11525138 
1792.607 11483629 11465632 11477506 11511256 11550589 11582373 11602689 
1795.982 11617458 11637572 11671470 11718750 11769813 11810669 11830145 
1799.358 11827624 11813325 11803928 11812371 11842368 11885103 11927195 
1802.733 11957336 11973650 11983630 12000287 12033431 12084360 12144803 
1806.108 12201983 12246082 12275223 12296253 12320693 12357884 12409091 
1809.483 12466715 12518684 12556950 12581780 12603234 12634923 12686742 
1812.859 12759620 12845037 12930333 13005983 13070514 13132051 13202613 
1816.234 13290985 13397384 13512628 13622569 13715302 13787498 13844791 
1819.609 13897439 13953550 14013158 14068155 14106522 14118810 14102586 
1822.984 14063465 14012029 13958717 13908935 13862683 13817323 13773201 
1826.360 13734692 13709215 13701896 13711027 13725596 13729767 13708633 
1829.735 13658093 13588551 13521344 13477799 13469015 13491129 13529412 
1833.110 13565749 13587457 13592586 13589646 13591731 13608312 13639699 
1836.485 13677242 13709283 13728228 13735991 13743241 13764241 13808636 
1839.861 13876058 13955877 14032528 14093276 14131475 14149822 14155779 
1843.236 14158380 14161769 14165638 14168137 14170431 14178954 14202850 
1846.611 14248488 14314986 14393036 14468907 14529923 14571038 14597149 
1849.986 14621101 14656605 14710723 14781165 14858237 14931275 14994721 
1853.362 15051179 15109600 15178871 15261230 15349267 15428430 15485185 
1856.737 15512724 15515471 15505753 15498302 15501667 15515128 15529688 
1860.112 15535354 15527764 15511591 15498577 15500500 15523438 15563549 
1863.487 15610292 15651992 15682425 15704514 15727326 15759932 15804360 
1866.863 15853776 15894948 15916703 15916670 15906256 15904674 15930865 
1870.238 15991330 16078105 16172327 16255492 16315451 16352093 16374422 
1873.613 16394723 16420152 16449023 16472219 16479308 16465988 16438080 
1876.988 16408451 16391523 16395101 16417088 16447200 16473044 16487567 
1880.364 16493384 16500473 16519232 16555235 16604666 16657410 16703341 
1883.739 16737914 16766358 16800936 16853668 16928902 17020482 17113428 
1887.114 17192878 17249726 17286102 17314030 17349340 17403348 17477850 
1890.489 17565648 17656602 17743676 17826282 17908868 17996234 18088212 
1893.865 18178794 18257576 18316742 18356282 18385282 18419988 18473542 
1897.240 18552272 18651424 18759318 18863468 18957360 19044212 19133158 
1900.615 19234244 19350874 19478034 19605094 19721338 19821556 19908892 
1903.990 19991460 20076436 20164518 20247340 20311118 20343754 20341082 
1907.365 20309900 20263656 20218422 20184926 20164552 20153202 20144804 
1910.741 20138660 20140464 20159796 20204086 20274452 20363340 20459398 
1914.116 20551102 20633720 20709160 20783640 20861888 20942968 21019714 
1917.491 21083432 21130042 21164898 21201010 21253236 21329446 21426554 
1920.866 21530160 21623100 21693314 21740478 21776672 21820048 21885660 
1924.242 21976932 22084016 22189802 22279394 22347658 22401554 22454832 
1927.617 22520330 22602764 22695620 22786226 22862880 22923060 22974828 
1930.992 23032684 23108366 23204894 23313262 23418998 23508670 23578384 
1934.367 23634920 23691848 23760682 23843668 23932272 24012598 24073146 
1937.743 24112092 24138224 24165616 24205446 24258034 24311610 24347810 
1941.118 24352680 24324190 24275762 24228462 24202574 24205868 24231442 
1944.493 24263220 24285854 24294336 24295316 24302674 24327728 24372202 
1947.868 24426528 24475004 24504382 24513148 24512096 24519212 24548978 
1951.244 24604764 24675636 24744626 24796298 24826294 24842360 24860080 
1954.619 24892500 24941488 24996622 25041514 25064574 25065556 25059800 
1957.994 25067558 25107226 25181518 25277734 25372076 25445218 25489910 
1961.369 25515350 25538752 25576320 25633012 25700994 25765506 25814944 
1964.745 25849756 25882990 25934232 26016580 26129346 26256290 26374752 
1968.120 26466198 26525260 26561748 26591868 26627480 26667080 26697382 
1971.495 26699954 26664720 26597080 26517828 26454258 26428306 26444892 
1974.870 26493068 26553928 26614342 26674268 26746114 26844336 26973182 
1978.246 27117336 27248664 27335988 27361148 27327732 27258576 27185200 
1981.621 27132892 27112118 27116596 27130776 27140510 27141532 27139628 
1984.996 27146434 27169080 27205094 27243760 27272478 27285390 27288600 
1988.371 27296858 27325932 27382852 27460428 27540134 27600932 27632426 
1991.747 27638430 27636558 27647082 27683348 27742716 27810006 27864834 
1995.122 27894866 27901084 27897056 27900906 27924050 27965286 28010768 
1998.497 28043320 28051980 28039752 28021796 28018722 28041412 28087290 
2001.872 28139644 28177754 28186134 28165416 28130346 28104118 28103162 
2005.248 28131300 28174998 28214242 28232242 28224708 28200948 28177578 
2008.623 28167008 28171074 28179558 28178956 28162200 28134482 28111504 
2011.998 28111080 28142154 28199040 28264702 28317890 28345584 28350040 
2015.373 28345690 28351418 28377168 28420004 28462492 28486586 28481526 
2018.749 28454178 28424674 28418624 28451808 28523700 28616770 28708228 
2022.124 28779988 28827926 28862488 28900732 28954742 29023954 29095518 
2025.499 29150792 29176872 29173150 29151358 29128362 29117024 29120000 
2028.874 29128220 29129566 29117946 29096722 29080884 29086944 29124040 
2032.250 29188742 29267174 29340796 29396564 29431522 29451202 29463648 
2035.625 29471060 29467478 29440742 29382382 29292694 29185378 29080920 
2039.000 29000080 28953396 28936750 28935048 28930836 28914650 28887204 
2042.375 28859760 28844428 28847614 28865460 28885822 28895312 28887842 
2045.750 28867868 28848746 28843826 28860610 28895420 28936290 28967776 
2049.126 28980598 28973656 28954460 28932606 28915606 28905018 28898962 
2052.501 28894924 28894180 28902326 28926408 28970254 29031430 29100054 
2055.876 29162980 29211248 29243108 29266288 29292622 29332608 29389010 
2059.251 29455954 29521310 29573198 29606116 29622786 29632080 29642794 
2062.627 29659858 29680470 29697890 29705234 29700870 29689906 29681322 
2066.002 29683200 29697462 29718858 29737948 29746250 29740998 29726592 
2069.377 29711798 29704630 29707822 29716870 29723116 29719460 29703780 
2072.752 29681214 29660248 29648860 29649498 29656878 29661844 29655992 
2076.128 29635912 29605866 29574510 29549860 29535744 29529184 29523014 
2079.503 29509996 29487336 29458294 29429998 29408584 29395960 29387912 
2082.878 29376746 29354340 29317116 29267280 29211318 29156956 29108414 
2086.253 29066148 29027746 28990976 28955840 28925912 28904982 28894782 
2089.629 28892480 28890640 28881114 28858874 28825696 28789972 28762638 
2093.004 28752904 28764056 28792202 28828388 28863336 28891524 28912632 
2096.379 28929312 28944718 28958284 28966254 28963632 28947658 28920352 
2099.754 28888054 28858804 28838018 28824918 28813516 28795884 28766852 
2103.130 28726848 28682352 28642146 28613726 28598508 28592634 28588634 
2106.505 28581378 28569596 28557104 28549532 28550700 28558556 28566906 
2109.880 28567330 28554592 28529928 28500880 28477140 28466350 28469746 
2113.255 28481844 28493414 28496068 28486762 28468542 28448164 28432102 
2116.631 28422692 28417352 28410772 28397968 28378052 28354638 28333594 
2120.006 28320332 28314814 28313434 28309190 28296846 28275098 28247410 
2123.381 28219688 28197060 28180442 28166902 28151734 28131654 28108182 
2126.756 28086726 28073082 28070960 28077890 28086974 28089376 28079832 
2130.132 28059332 28036110 28021832 28025402 28049790 28090332 28138654 
2133.507 28186522 28230932 28274744 28324398 28384384 28453826 28524904 
2136.882 28586688 28630642 28653684 28660232 28658106 28655948 28657646 
2140.257 28662284 28666850 28668726 28670318 28677010 28694882 28725290 
2143.633 28763738 28801054 28827396 28838018 28837134 28835612 28846022 
2147.008 28874882 28919042 28967422 29005216 29021156 29013186 28988002 
2150.383 28957010 28928852 28905478 28880758 28846092 28793866 28724228 
2153.758 28642536 28559332 28481384 28411162 28347492 28291400 28251830 
2157.134 28248400 28304556 28437198 28645332 28904664 29175668 29414646 
2160.509 29593026 29703176 29757036 29775702 29780634 29782622 29782338 
2163.884 29775274 29757214 29731346 29705588 29689730 29686784 29692036 
2167.259 29693348 29677808 29637968 29576036 29501806 29428084 29363060 
2170.635 29307192 29254060 29196434 29131374 29064694 29008120 28974932 
2174.010 28972062 28996502 29035078 29071002 29090628 29088538 29067742 
2177.385 29035750 28998946 28959524 28915712 28864718 28807850 28752162 
2180.760 28708902 28686708 28688266 28706600 28728726 28741858 28739416 
2184.135 28723522 28703378 28689964 28688690 28696512 28704230 28701078 
2187.511 28681220 28646428 28606116 28571012 28548894 28539872 28538032 
2190.886 28534776 28525080 28507920 28488284 28470912 28458106 28446536 
2194.261 28429910 28401328 28358564 28304662 28247022 28192074 28142792 
2197.636 28096058 28046820 27990272 27928538 27869038 27824418 27804000 
2201.012 27811314 27840458 27880132 27918468 27949104 27972744 27996102 
2204.387 28027238 28070078 28121898 28175422 28222200 28258514 28285602 
2207.762 28310002 28339074 28375648 28418096 28460122 28495430 28521898 
2211.137 28542562 28564536 28592952 28629686 28668832 28701078 28717220 
2214.513 28713186 28691946 28662744 28635986 28617760 28609232 28606258 
2217.888 28602720 28595288 28584388 28574162 28568852 28569880 28573736 
2221.263 28574268 28565526 28545284 28516128 28483508 28452622 28424922 
2224.638 28397614 28364576 28321462 28268628 28211698 28160326 28122464 
2228.014 28101358 28093336 28090400 28083190 28066188 28039008 28006494 
2231.389 27974616 27946348 27921860 27897338 27869110 27835830 27800856 
2234.764 27768924 27745472 27731132 27722374 27712518 27695320 27667986 
2238.139 27633238 27596764 27565484 27543488 27530390 27522272 27514788 
2241.515 27505646 27495760 27488560 27487748 27493748 27504762 27515494 
2244.890 27521424 27520260 27514224 27506774 27501832 27500456 27500702 
2248.265 27498126 27489336 27473170 27452522 27432154 27416520 27407310 
2251.640 27402932 27399898 27395274 27388392 27381934 27380206 27386522 
2255.016 27401204 27420614 27438508 27449768 27451462 27444756 27432790 
2258.391 27419238 27405438 27389452 27367748 27336978 27296294 27247922 
2261.766 27195606 27143226 27092332 27042328 26990846 26936268 26879266 
2265.141 26823542 26774096 26735190 26708060 26690934 26679482 26669440 
2268.517 26658378 26646224 26634880 26626002 26620508 26616596 26612122 
2271.892 26605042 26595354 26584328 26574006 26566080 26559952 26553964 
2275.267 26545792 26534276 26520328 26507156 26497612 26493280 26493702 
2278.642 26495252 26494266 26487432 26474404 26456478 26436582 26416616 
2282.018 26396650 26375068 26349366 26317928 26280966 26240380 26198674 
2285.393 26157602 26117452 26076532 26033396 25986854 25937610 25887876 
2288.768 25840156 25795568 25753974 25713122 25671078 25626438 25579906 
2292.143 25533376 25489348 25448484 25410332 25372778 25333860 25292836 
2295.519 25250904 25211012 25175512 25145986 25121620 25099818 25077984 
2298.894 25054500 25029964 25006906 24988374 24976054 24970052 24968262 
2302.269 24968404 24968650 24969140 24971036 24976124 24984934 24995954 
2305.644 25006414 25013082 25014098 25009642 25002026 24994130 24988478 
2309.020 24985636 24985214 24985460 24985144 24984548 24984688 24986934 
2312.395 24991638 24997532 25002516 25004202 25001746 24996094 24989602 
2315.770 24984758 24982968 24982898 24981916 24977142 24966298 24949874 
2319.145 24929802 24909730 24891974 24877202 24863484 24847344 24824434 
2322.521 24791140 24744590 24683282 24606832 24515952 24412928 24302288 
2325.896 24190208 24084178 23991376 23916344 23859526 23817698 23785110 
2329.271 23755572 23725196 23693704 23663856 23639468 23623690 23616868 
2332.646 23616588 23619560 23622046 23622430 23620646 23617568 23613858 
2336.021 23608856 23601228 23589160 23572402 23552148 23530532 23510418 
2339.397 23493384 23479220 23466978 23454878 23442078 23428510 23414488 
2342.772 23399274 23380916 23356932 23325464 23288020 23250510 23222442 
2346.147 23214648 23235446 23287566 23367420 23466454 23572998 23674842 
2349.522 23762118 23827742 23867856 23881510 23870658 23839574 23793232 
2352.898 23738214 23680896 23626140 23577126 23533994 23494294 23454248 
2356.273 23409836 23359378 23303368 23244430 23185498 23129090 23075486 
2359.648 23023774 22972558 22921524 22871752 22825650 22785456 22752112 
2363.023 22724912 22701592 22679386 22656764 22633412 22610304 22588630 
2366.399 22568910 22550518 22532682 22514676 22497334 22482676 22473220 
2369.774 22471092 22476360 22487806 22502636 22519072 22535790 22552820 
2373.149 22571178 22591318 22612818 22634634 22655090 22673872 22691430 
2376.524 22709690 22730500 22755290 22783712 22814126 22844368 22872938 
2379.900 22899936 22926692 22955196 22987022 23021888 23058014 23092432 
2383.275 23122626 23146844 23164912 23178228 23188608 23197486 23206222 
2386.650 23215592 23226252 23239220 23255650 23275960 23299382 23323576 
2390.025 23345462 23361966 23371616 23375252 23375498 23376022 23379520 
2393.401 23387142 23397668 23408856 23418718 23426202 23432182 23438476 
2396.776 23446206 23455718 23465650 23473938 23478836 23479780 23478066 
2400.151 23475864 23475338 23476912 23479570 23481040 23479430 23473588 
2403.526 23464356 23453934 23444772 23438862 23436868 23438512 23442848 
2406.902 23449144 23456906 23465614 23474498 23481878 23486356 23486564 
2410.277 23483136 23478136 23475442 23478310 23489224 23507654 23531162 
2413.652 23555892 23578910 23598324 23614732 23629988 23645766 23662980 
2417.027 23680686 23697518 23711304 23721768 23729186 23734822 23739616 
2420.403 23743710 23745634 23743744 23736640 23724568 23709168 23692968 
2423.778 23678552 23667390 23659272 23653358 23648216 23643422 23638420 
2427.153 23634254 23630652 23627292 23623236 23618126 23612110 23606510 
2430.528 23603714 23605462 23612110 23622184 23632610 23640030 23641954 
2433.904 23638106 23629672 23619316 23609030 23599340 23589018 23575900 
2437.279 23558514 23536478 23510770 23483522 23457082 23432286 23409416 
2440.654 23388154 23367980 23349868 23335114 23325220 23320568 23320150 
2444.029 23321548 23321968 23319170 23312352 23302494 23291238 23280294 
2447.405 23270402 23261278 23252190 23242680 23233102 23224608 23218528 
2450.780 23214926 23213528 23212200 23209300 23203358 23194690 23184764 
2454.155 23175116 23167080 23160472 23154218 23146704 23137196 23126188 
2457.530 23115670 23107632 23103930 23104872 23109416 23115950 23122974 
2460.906 23129614 23136080 23142964 23150932 23159914 23170154 23181548 
2464.281 23194934 23211432 23232300 23257956 23287112 23317318 23345252 
2467.656 23368296 23385428 23397946 23408226 23418718 23430992 23444422 
2471.031 23457290 23467188 23473274 23475652 23475932 23476038 23476840 
2474.406 23477926 23477612 23474044 23466454 23455684 23443652 23432952 
2477.782 23425048 23420012 23416236 23411864 23405710 23397946 23390290 
2481.157 23384870 23383366 23386162 23392282 23400848 23411304 23424172 
2484.532 23440820 23462328 23488628 23518044 23547636 23574152 23595666 
2487.907 23611934 23624180 23634676 23645102 23655178 23663996 23669734 
2491.283 23670958 23668264 23663610 23659586 23659132 23663226 23671938 
2494.658 23683066 23695102 23705564 23713368 23717288 23716762 23711410 
2498.033 23701226 23686706 23669874 23653534 23640098 23632156 23630372 
2501.408 23633626 23640098 23647690 23655528 23663820 23673618 23685866 
2504.784 23700246 23714664 23726316 23732126 23730516 23721732 23707874 
2508.159 23691708 23675718 23661336 23648426 23636146 23623934 23611620 
2511.534 23599726 23588914 23579294 23570302 23560438 23548616 23534202 
2514.909 23518078 23501744 23486810 23473974 23463132 23453130 23442498 
2518.285 23430784 23418684 23407492 23399380 23395150 23394974 23397632 
2521.660 23401338 23404172 23405114 23403016 23397596 23387772 23372910 
2525.035 23351826 23324624 23292250 23256908 23221498 23188258 23158342 
2528.410 23131082 23105328 23079434 23052704 23025626 22999738 22976472 
2531.786 22956628 22939652 22923478 22906048 22885406 22860820 22832740 
2535.161 22802498 22771700 22741600 22713112 22686438 22661932 22640184 
2538.536 22621160 22605000 22591108 22578752 22566640 22554460 22542038 
2541.911 22530066 22519108 22509196 22500124 22490842 22480514 22468720 
2545.287 22456122 22443248 22431140 22420080 22409474 22398170 22385646 
2548.662 22372250 22359832 22351110 22348946 22354876 22368308 22387076 
2552.037 22408112 22428628 22447224 22463870 22479886 22496530 22514362 
2555.412 22533034 22551390 22568386 22583848 22598542 22613830 22630898 
2558.788 22650098 22670554 22691118 22710388 22727914 22743906 22759374 
2562.163 22775192 22791744 22809098 22826664 22843846 22861028 22878596 
2565.538 22897596 22918274 22940560 22963232 22985344 23006166 23025800 
2568.913 23045262 23065736 23088134 23112456 23137758 23162430 23185392 
2572.289 23205840 23223806 23239920 23254566 23267676 23279282 23288998 
2575.664 23296760 23303474 23309976 23317108 23324834 23332492 23338574 
2579.039 23341828 23341302 23337140 23330324 23321896 23312284 23301724 
2582.414 23289524 23275016 23258760 23242050 23226950 23215976 23210696 
2585.790 23211362 23217444 23227404 23240024 23254462 23270402 23288056 
2589.165 23307284 23327318 23347386 23366372 23383960 23400430 23416866 
2592.540 23434280 23453270 23473728 23495134 23516364 23536828 23556276 
2595.915 23574572 23591364 23605916 23617114 23623866 23625790 23623690 
2599.291 23619246 23614558 23611164 23609486 23608016 23604902 23597940 
2602.666 23586396 23571142 23554178 23537912 23524130 23512938 23503878 
2606.041 23494994 23485340 23474254 23462258 23450436 23439526 23429734 
2609.416 23420992 23412494 23404172 23396444 23390008 23385708 23383786 
2612.792 23383260 23382912 23381162 23377384 23371756 23365638 23360568 
2616.167 23357736 23357036 23357630 23357980 23356686 23352874 23346862 
2619.542 23338958 23329974 23320430 23310326 23299488 23288232 23276974 
2622.917 23266240 23256524 23247924 23239744 23230866 23220486 23208180 
2626.292 23194480 23180640 23167778 23156942 23148066 23140726 23134158 
2629.668 23127728 23121542 23116230 23112352 23110604 23110884 23112770 
2633.043 23115462 23118676 23122346 23127238 23134018 23143314 23155160 
2636.418 23169664 23186232 23204372 23223806 23244358 23265646 23287148 
2639.793 23308122 23327946 23346196 23363400 23380218 23397702 23416270 
2643.169 23435994 23456206 23475968 23494644 23512028 23528922 23546202 
2646.544 23564708 23584680 23605602 23626698 23646746 23665044 23681526 
2649.919 23696468 23709976 23722152 23732336 23739824 23743988 23744618 
2653.294 23742416 23738320 23733350 23728486 23723728 23719036 23714452 
2656.670 23710044 23706790 23705914 23708330 23715014 23725582 23739266 
2660.045 23755082 23771918 23789416 23807336 23825958 23845594 23866562 
2663.420 23888826 23912494 23937526 23964134 23991972 24020684 24049472 
2666.795 24077174 24102672 24125368 24144948 24161762 24176228 24188876 
2670.171 24199526 24208004 24213680 24216518 24216902 24215922 24214976 
2673.546 24215254 24217672 24222158 24228498 24236452 24245702 24257088 
2676.921 24271174 24288834 24310348 24335614 24363826 24394142 24425932 
2680.296 24458636 24491902 24525874 24559846 24593438 24626258 24657680 
2683.672 24687770 24716846 24745538 24774444 24803770 24833590 24863904 
2687.047 24894746 24926538 24960016 24995498 25033404 25073666 25115686 
2690.422 25159360 25204444 25251710 25302354 25357462 25417850 25483866 
2693.797 25555234 25631006 25710554 25793740 25880632 25971904 26067876 
2697.173 26168582 26273786 26382708 26494548 26608706 26724372 26840740 
2700.548 26956364 27069514 27177722 27278970 27371030 27453086 27524814 
2703.923 27586206 27637512 27678652 27709306 27729154 27738336 27737560 
2707.298 27728342 27712448 27692070 27668692 27643656 27617844 27591820 
2710.674 27566614 27543064 27522024 27504268 27489794 27478428 27469780 
2714.049 27463286 27459120 27457604 27459156 27463992 27472216 27483618 
2717.424 27498268 27516234 27538546 27565660 27598212 27636028 27677628 
2720.799 27720782 27763416 27803646 27840774 27874904 27906878 27937336 
2724.175 27966700 27994408 28019464 28041024 28058590 28072304 28083262 
2727.550 28092062 28100050 28107334 28114122 28120308 28126104 28131654 
2730.925 28137524 28143852 28150214 28156260 28161068 28164284 28165876 
2734.300 28166512 28167150 28168598 28171356 28175314 28180018 28185144 
2737.676 28190554 28196882 28205050 28216012 28230544 28248788 28270926 
2741.051 28296422 28325282 28357608 28393724 28433730 28477990 28526000 
2744.426 28577310 28631280 28687558 28745822 28806046 28868612 28933280 
2747.801 29000256 29069124 29140196 29213550 29289434 29368166 29449748 
2751.177 29534148 29621260 29710698 29803062 29898498 29997684 30100904 
2754.552 30208164 30319074 30432964 30548838 30666340 30785406 30906106 
2757.927 31028724 31153122 31278870 31405300 31531588 31657304 31782348 
2761.302 31907142 32031648 32156010 32279876 32401952 32521530 32637640 
2764.677 32749816 32858022 32962244 33062418 33158180 33249278 33334956 
2768.053 33415072 33489652 33559272 33624312 33685540 33743156 33797880 
2771.428 33850496 33901824 33953488 34006664 34061776 34118832 34176832 
2774.803 34234476 34290800 34345808 34400572 34457168 34518044 34585176 
2778.178 34659596 34741608 34830520 34925452 35025544 35130688 35240776 
2781.554 35355892 35475924 35600452 35729332 35862388 36000204 36143640 
2784.929 36293248 36449252 36611156 36776824 36944080 37110384 37273756 
2788.304 37432860 37587468 37737720 37884260 38027204 38167116 38303672 
2791.679 38437088 38567608 38695452 38820940 38944948 39067752 39190232 
2795.055 39313112 39437184 39563072 39690624 39819128 39947304 40073012 
2798.430 40194756 40311120 40421732 40527096 40628556 40727060 40823800 
2801.805 40919504 41014032 41106972 41197676 41285412 41369224 41448360 
2805.180 41521812 41589160 41649912 41704328 41753532 41798256 41840140 
2808.556 41879760 41917020 41951580 41982932 42010336 42034684 42056512 
2811.931 42077612 42099116 42122444 42148072 42175968 42205980 42237788 
2815.306 42271608 42307400 42345204 42384876 42425460 42466088 42505260 
2818.681 42542128 42575752 42605576 42631196 42652288 42668372 42679304 
2822.057 42685040 42685844 42682700 42676668 42668884 42660148 42651048 
2825.432 42641944 42633096 42625348 42619428 42616652 42618076 42624908 
2828.807 42637812 42657116 42684128 42719224 42763900 42819516 42887352 
2832.182 42967856 43061256 43167192 43285376 43415716 43559024 43716708 
2835.558 43890760 44083220 44295688 44529112 44783740 45059512 45356240 
2838.933 45674000 46012696 46372968 46754716 47157964 47582516 48027908 
2842.308 48493388 48978696 49483780 50007560 50549240 51105312 51670084 
2845.683 52235072 52787996 53313564 53794804 54212752 54548976 54787112 
2849.059 54913240 54918544 54799776 54559904 54207348 53755952 53223480 
2852.434 52628632 51990712 51327396 50652884 49978228 49310816 48654692 
2855.809 48011916 47383028 46768076 46167072 45580368 45008388 44451948 
2859.184 43911988 43389720 42886768 42405548 41948404 41518936 41119760 
2862.560 40753336 40421220 40123704 39860060 39629128 39428728 39257108 
2865.935 39112384 38993152 38898632 38828476 38782104 38759572 38759748 
2869.310 38781056 38820364 38873808 38936864 39004460 39072068 39136060 
2872.685 39193608 39244052 39286924 39323704 39356168 39387152 39419440 
2876.061 39455288 39496436 39543688 39596896 39655048 39717132 39782088 
2879.436 39849560 39919552 39992060 40067056 40143620 40220420 40295632 
2882.811 40367332 40434532 40496724 40554708 40609204 40661704 40712608 
2886.186 40762544 40810912 40857688 40902572 40945864 40987776 41029252 
2889.562 41070512 41111960 41153380 41194688 41235420 41275208 41313836 
2892.937 41350748 41385116 41416208 41442960 41464288 41480072 41490388 
2896.312 41496404 41499756 41502420 41506572 41513724 41525388 41541720 
2899.687 41562904 41588356 41617564 41650276 41686708 41727708 41774616 
2903.063 41829196 41893336 41968552 42056624 42159280 42278180 42415852 
2906.438 42575352 42760460 42975868 43226776 43518696 43857736 44249128 
2909.813 44697612 45205644 45772256 46392988 47057292 47751912 48458380 
2913.188 49156500 49826464 50448820 51007116 51488972 51885216 52191128 
2916.563 52405880 52532032 52575484 52544184 52448576 52299424 52107288 
2919.939 51882116 51632020 51362524 51077624 50778752 50465644 50135988 
2923.314 49787112 49414608 49014600 48583800 48120292 47624368 47098468 
2926.689 46547348 45977152 45394716 44807144 44221428 43643904 43081344 
2930.064 42540304 42027460 41550180 41114876 40727204 40391588 40110368 
2933.440 39884028 39710376 39585756 39504420 39459424 39443712 39449988 
2936.815 39471688 39503148 39539624 39577080 39612432 39643324 39668224 
2940.190 39686596 39698940 39706964 39712700 39718400 39726060 39736736 
2943.565 39751224 39770068 39794000 39824248 39862600 39911636 39974004 
2946.941 40052120 40148708 40265896 40405512 40568056 40752280 40954456 
2950.316 41167476 41380600 41581828 41756780 41892280 41978000 42006176 
2953.691 41973332 41879616 41727816 41522508 41269596 40976232 40649188 
2957.066 40296684 39927220 39548660 39169020 38795472 38433396 38087132 
2960.442 37759944 37453340 37168168 36904252 36660724 36435956 36227840 
2963.817 36034472 35853752 35683788 35522668 35368580 35219824 35074932 
2967.192 34932960 34793472 34657048 34524828 34398132 34278432 34166688 
2970.567 34063316 33968608 33882592 33805184 33736492 33676516 33625136 
2973.943 33582216 33547670 33521968 33506364 33502464 33512272 33537470 
2977.318 33579136 33636776 33708816 33793440 33888500 33992328 34104140 
2980.693 34223720 34350828 34484828 34624680 34768348 34913748 35058408 
2984.068 35200280 35337416 35467728 35588980 35698792 35794420 35873796 
2987.444 35935232 35977992 36002364 36009276 35999592 35974320 35934224 
2990.819 35879664 35811436 35730340 35638072 35537088 35430732 35322716 
2994.194 35216916 35117320 35026836 34947504 34880356 34825248 34781268 
2997.569 34747528 34723264 34708728 34704636 34711996 34731588 34763536 
3000.945 34806792 34859964 34921180 34988552 35060996 35137836 35218424 
3004.320 35302372 35388744 35476464 35564992 35653972 35744192 35836804 
3007.695 35933396 36035048 36141840 36252724 36366128 36479704 36591832 
3011.070 36701140 36807336 36910492 37010608 37108076 37202896 37295240 
3014.446 37385656 37475084 37564884 37656768 37751888 37851292 37954880 
3017.821 38062032 38171676 38282756 38394156 38505472 38616752 38728848 
3021.196 38842644 38959408 39079720 39203688 39330160 39457828 39584340 
3024.571 39708128 39828280 39944796 40058656 40171424 40284292 40397836 
3027.947 40511312 40623540 40733028 40838868 40941568 41042616 41144708 
3031.322 41250284 41361208 41477664 41598824 41722380 41845940 41967380 
3034.697 42085788 42201236 42315140 42429808 42547904 42672172 42805072 
3038.072 42948216 43102748 43268612 43444940 43630164 43822364 44019376 
3041.448 44219300 44420492 44620788 44818276 45009820 45191596 45359440 
3044.823 45508984 45636680 45740632 45821368 45881356 45925400 45959876 
3048.198 45990780 46023748 46062688 46109148 46163204 46223456 46288108 
3051.573 46355640 46425580 46498080 46574088 46654544 46739960 46829704 
3054.948 46922424 47016196 47108588 47198004 47282824 47362852 47438092 
3058.324 47509392 47577784 47644408 47710008 47775656 47841792 47908752 
3061.699 47976504 48045152 48114440 48184556 48255864 48328480 48402816 
3065.074 48478420 48554040 48627788 48697316 48760364 48815752 48863212 
3068.449 48904188 48940904 48976140 49011892 49049840 49090128 49132352 
3071.825 49175760 49219960 49265456 49313636 49366420 49425968 49493808 
3075.200 49570792 49656148 49748396 49844788 49942540 50038712 50130892 
3078.575 50217960 50299424 50376144 50449676 50521844 50594356 50668000 
3081.950 50742660 50816628 50887292 50951332 51005176 51046352 51073372 
3085.326 51086680 51088356 51081608 51070764 51059692 51051760 51049372 
3088.701 51053696 51065024 51083212 51108292 51140312 51179564 51226276 
3092.076 51280228 51340672 51406536 51476588 51549932 51626388 51706660 
3095.451 51792104 51883688 51982232 52086968 52195948 52305780 52412648 
3098.827 52512808 52603424 52682908 52751516 52810896 52863396 52912424 
3102.202 52961156 53012028 53067400 53128768 53197112 53273184 53357284 
3105.577 53449460 53549412 53656852 53770840 53890860 54017140 54150932 
3108.952 54295084 54454348 54635016 54844852 55091988 55385188 55732792 
3112.328 56142280 56620736 57174588 57808556 58526360 59328908 60214804 
3115.703 61177848 62207180 63285804 64387748 65479548 66519296 67455496 
3119.078 68235296 68805408 69117736 69138560 68849592 68252512 67367336 
3122.453 66231608 64895348 63411400 61836444 60222644 58613004 57045424 
3125.829 55548804 54143684 52844988 51659748 50589704 49630628 48774860 
3129.204 48012620 47333000 46726268 46184064 45698480 45263412 44872684 
3132.579 44520152 44201068 43910848 43645880 43403960 43182964 42981244 
3135.954 42796880 42627180 42469196 42319672 42174980 42032132 41888776 
3139.330 41743612 41595724 41445844 41295432 41146200 41000444 40860052 
3142.705 40725496 40596688 40472536 40351076 40230600 40109240 39986176 
3146.080 39860384 39731728 39600348 39466536 39331612 39196980 39064564 
3149.455 38936284 38812828 38694040 38578036 38462064 38342828 38217624 
3152.831 38085220 37945876 37801624 37654816 37507988 37362868 37220112 
3156.206 37079672 36940976 36803512 36666744 36530884 36395816 36261732 
3159.581 36128480 35996100 35864512 35733724 35603436 35473984 35345144 
3162.956 35216700 35088332 34960036 34831204 34702124 34572648 34443072 
3166.332 34313680 34184824 34057152 33931600 33808980 33689980 33574660 
3169.707 33462558 33352774 33243842 33134938 33025734 32916636 32809026 
3173.082 32704194 32603354 32506928 32414376 32324384 32235406 32146022 
3176.457 32054938 31961418 31865526 31767554 31668034 31568360 31469740 
3179.833 31373992 31282290 31195414 31113004 31033706 30955418 30875722 
3183.208 30792696 30705278 30613610 30518868 30423156 30328278 30235694 
3186.583 30146256 30059820 29975744 29892712 29809414 29724394 29636408 
3189.958 29544822 29449748 29352530 29254378 29157490 29063666 28973726 
3193.333 28887984 28805338 28724300 28642890 28559580 28473460 28384384 
3196.709 28292994 28200134 28107298 28015540 27925604 27837984 27752394 
3200.084 27668550 27585642 27503244 27421072 27339376 27258506 27179026 
3203.459 27101608 27026318 26952910 26881134 26810430 26740548 26671202 
3206.834 26602610 26534698 26467678 26401230 26335178 26269700 26205148 
3210.210 26142224 26081526 26023546 25968106 25914712 25862416 25810582 
3213.585 25759036 25708236 25658882 25611360 25565848 25521534 25476698 
3216.960 25429934 25379804 25326272 25269936 25211924 25153954 25096940 
3220.335 25041336 24987426 24934854 24883518 24833764 24785738 24739576 
3223.711 24695278 24652174 24609532 24566720 24523314 24479388 24435256 
3227.086 24391372 24348336 24306634 24266970 24230076 24196898 24167926 
3230.461 24143336 24122180 24102636 24082428 24059278 24031156 23997714 
3233.836 23959618 23918444 23876048 23834218 23794140 23756342 23721172 
3237.212 23688734 23659098 23632156 23608052 23586326 23566490 23548056 
3240.587 23530460 23513532 23496812 23479816 23461838 23441938 23419488 
3243.962 23394694 23368260 23341860 23317176 23295118 23275574 23256908 
3247.337 23236948 23213528 23185498 23153204 23118362 23083416 23050326 
3250.713 23020036 22992332 22965922 22939406 22912232 22884044 22856070 
3254.088 22828932 22803196 22778474 22754102 22729242 22703406 22677186 
3257.463 22651494 22627444 22605556 22585558 22566432 22546922 22526054 
3260.838 22503404 22479152 22454240 22429258 22404870 22381320 22358644 
3264.214 22337122 22316714 22298474 22282742 22270012 22260944 22255154 
3267.589 22252328 22251980 22252748 22252818 22249784 22241098 22224254 
3270.964 22198206 22163056 22120866 22074882 22028902 21985992 21947794 
3274.339 21914164 21883916 21855064 21826004 21796042 21765384 21734590 
3277.715 21704600 21675862 21648626 21622750 21598548 21576436 21556832 
3281.090 21540082 21525912 21513692 21502166 21490294 21477134 21462304 
3284.465 21445526 21426796 21405878 21382418 21356660 21329514 21302928 
3287.840 21279960 21263744 21256366 21258142 21267050 21279228 21289634 
3291.216 21293670 21288660 21273766 21250694 21222406 21192244 21162496 
3294.591 21134562 21108162 21082144 21054980 21025314 20992484 20956494 
3297.966 20918178 20878646 20839536 20803106 20771372 20746694 20731402 
3301.341 20727058 20734566 20753368 20781312 20814368 20847218 20874056 
3304.717 20889076 20888032 20868738 20831506 20778394 20713088 20639974 
3308.092 20562878 20485206 20409664 20338512 20273516 20215994 20167260 
3311.467 20127832 20097154 20073938 20056204 20041910 20029348 20017412 
3314.842 20005372 19993020 19980564 19968076 19956142 19945560 19937962 
3318.218 19934736 19937512 19946912 19962628 19983166 20006412 20030562 
3321.593 20054226 20077440 20101074 20126096 20152820 20180726 20208494 
3324.968 20234078 20255708 20272716 20285146 20294312 20301708 20308722 
3328.343 20316568 20325874 20336846 20349484 20363618 20379002 20394558 
3331.719 20408796 20420222 20427724 20430502 20429008 20424564 20418590 
3335.094 20412476 20406330 20399698 20390946 20378166 20359902 20335040 
3338.469 20303200 20264594 20219604 20168578 20112318 20051034 19985630 
3341.844 19916940 19845834 19773386 19700120 19626136 19551820 19477376 
3345.219 19403638 19331542 19262160 19196216 19133954 19074954 19018006 
3348.595 18961548 18903680 18842670 18777066 18705904 18629046 18547500 
3351.970 18463134 18378956 18298114 18223886 18158098 18101166 18051598 
3355.345 18006906 17964150 17920538 17875202 17828284 17780644 17733634 
3358.720 17687938 17643318 17599252 17554434 17508240 17460394 17411694 
3362.096 17363134 17316238 17272274 17232626 17197878 17168750 17145482 
3365.471 17127628 17114048 17102674 17090818 17075102 17052806 17021828 
3368.846 16981204 16931176 16873130 16809030 16741151 16671801 16603151 
3372.221 16536750 16473802 16415369 16361589 16312424 16267668 16227115 
3375.597 16190657 16158467 16130578 16106782 16086323 16068099 16050495 
3378.972 16031861 16011234 15988477 15963623 15937533 15911136 15885049 
3382.347 15859652 15834840 15810579 15786905 15764089 15742272 15722174 
3385.722 15704310 15689021 15676862 15668342 15663808 15663086 15665421 
3389.098 15668891 15670849 15668685 15659651 15642442 15617024 15584739 
3392.473 15547923 15508741 15469356 15431005 15393859 15358157 15323935 
3395.848 15291775 15262705 15238202 15219568 15207077 15200146 15196989 
3399.223 15194622 15190092 15180484 15163912 15139620 15108365 15071555 
3402.599 15031764 14991154 14951542 14913991 14878672 14845448 14813665 
3405.974 14783530 14755181 14729301 14706542 14687382 14671685 14658696 
3409.349 14647557 14636797 14625316 14612192 14596669 14578474 14557298 
3412.724 14533143 14506728 14479013 14451643 14425952 14403380 14384405 
3416.100 14368479 14354301 14339985 14323821 14304644 14282113 14256535 
3419.475 14229042 14200625 14172553 14145407 14119973 14096356 14074657 
3422.850 14054807 14036360 14018873 14001797 13985133 13969187 13954645 
3426.225 13942532 13932987 13925904 13919917 13913075 13903051 13888031 
3429.601 13867334 13841063 13810517 13777716 13744507 13712908 13683910 
3432.976 13658402 13637134 13620039 13606944 13596928 13588312 13579560 
3436.351 13568552 13554468 13536488 13515431 13492393 13468571 13444750 
3439.726 13421272 13397761 13373841 13349034 13323135 13296418 13268746 
3443.102 13239983 13209376 13175972 13138915 13098106 13054159 13008953 
3446.477 12965084 12925144 12891556 12865617 12847528 12836402 12829782 
3449.852 12825105 12819031 12808623 12791799 12767844 12736998 12701686 
3453.227 12665147 12630249 12599345 12573287 12551083 12530655 12509442 
3456.603 12485606 12458257 12428321 12397396 12367396 12339748 12315205 
3459.978 12293424 12273348 12254125 12235346 12216773 12198643 12181161 
3463.353 12163987 12146438 12127426 12106131 12082214 12055914 12028389 
3466.728 12000764 11974365 11949571 11926514 11904343 11882140 11858849 
3470.104 11834265 11808660 11782886 11758239 11735294 11714495 11695161 
3473.479 11676202 11656223 11633930 11608916 11581760 11553618 11526227 
3476.854 11501322 11479649 11461380 11445153 11429266 11411374 11389808 
3480.229 11363345 11332225 11297264 11260673 11224393 11191004 11161868 
3483.604 11137493 11117538 11100679 11085043 11069067 11051461 11031510 
3486.980 11009454 10986005 10962082 10938602 10915700 10893581 10871838 
3490.355 10849721 10826824 10802808 10777366 10750432 10721902 10692356 
3493.730 10661997 10631911 10603152 10576670 10553516 10533826 10517260 
3497.105 10503376 10491292 10480362 10470213 10460744 10451918 10443162 
3500.481 10433218 10420592 10403487 10380750 10352042 10318788 10283671 
3503.856 10250118 10221689 10200894 10188819 10184952 10186919 10191600 
3507.231 10195569 10195807 10190447 10179219 10163345 10145064 10127223 
3510.606 10112436 10101923 10096022 10093478 10092326 10090223 10085543 
3513.982 10077200 10065433 10050885 10035118 10019825 10006737 9997379 
3517.357 9993039 9994498 10001787 10014162 10030134 10047529 10063806 
3520.732 10077302 10087035 10093037 10096259 10097989 10099346 10100939 
3524.107 10102431 10103347 10102805 10100668 10096972 10092800 10089307 
3527.483 10087204 10087340 10089816 10094834 10102059 10111656 10123560 
3530.858 10137873 10154763 10173521 10193669 10214260 10233969 10251915 
3534.233 10267046 10278718 10286623 10291135 10292797 10293476 10294630 
3537.608 10298566 10307014 10320925 10340334 10363952 10390456 10417334 
3540.984 10442246 10463390 10479140 10488169 10489527 10482229 10465902 
3544.359 10440277 10406678 10366802 10323809 10281838 10245029 10216499 
3547.734 10198046 10188988 10187021 10187597 10185529 10176675 10157816 
3551.109 10128580 10090664 10048003 10004804 9965001 9930828 9902250 9878048 
3554.967 9856015 9834459 9812227 9789079 9765357 9741433 9717545 9693183 
3558.824 9667366 9639754 9610214 9579388 9548734 9519945 9494578 9473412 
3562.682 9456176 9441141 9425260 9403759 9371458 9323046 9255379 9168162 
3566.539 9066008 8957824 8855550 8770273 8709622 8676088 8665914 8671626 
3570.396 8684371 8695965 8700563 8695357 8680482 8658173 8631235 8602168 
3574.254 8573307 8545393 8518766 8493423 8469266 8446123 8423825 8401765 
3578.111 8379572 8357278 8335120 8313942 8294624 8278008 8264601 8254369 
3581.969 8246636 8240996 8236707 8232824 8227657 8218541 8201590 8172518 
3585.826 8128054 8067189 7993643 7915418 7843416 7789506 7760934 7759619 
3589.684 7781072 7817033 7856742 7890584 7911706 7916869 7906037 7882519 
3593.541 7850906 7816628 7783636 7755470 7733275 7717524 7707440 7701571 
3597.398 7697827 7693881 7687338 7676479 7660426 7640125 7617903 7597030 
3601.256 7581284 7573327 7574237 7583576 7598885 7617093 7634291 7647038 
3605.113 7651793 7645925 7627142 7594299 7548377 7492144 7431031 7372083 
3608.971 7322074 7285749 7263646 7252629 7246362 7237737 7220723 7192459 
3612.828 7154596 7112392 7072650 7041768 7022708 7014626 7012437 7008430 
3616.686 6994928 6964321 6912675 6839761 6750504 6654266 6561986 6485230 
3620.543 6431186 6403208 6399072 6413767 6440434 6473459 6509110 6546143 
3624.400 6585130 6625938 6666211 6698647 6712074 6691346 6622843 6500500 
3628.258 6333137 6146481 5975492 5854137 5798560 5804604 5853096 5919866 
3632.115 5982110 6023130 6036367 6023533 5993398 5957823 5927222 5907236 
3635.973 5898537 5897798 5900048 5901526 5900048 5895145 5887722 5878621 
3639.830 5868646 5858537 5848965 5841778 5839696 5845305 5860518 5885472 
3643.688 5917649 5952985 5985772 6010128 6020845 6014159 5987418 5939381 
3647.545 5870425 5782644 5679906 5569105 5460882 5367346 5301567 5273360 
3651.402 5285736 5334975 5410891 5499135 5583101 5648150 5683062 5682559 
3655.260 5649359 5594780 5537290 5495041 5481182 5499537 5544908 5605790 
3659.117 5668493 5721703 5757695 5773913 5772839 5760348 5743929 5730667 
3662.975 5725933 5732380 5751215 5781602 5822301 5871131 5925374 5981337 
3666.832 6033511 6075477 6101215 6108070 6100308 6091706 6105954 6172426 
3670.689 6313570 6539887 6844170 7206035 7595681 7977848 8317387 8575301 
3674.547 8716721 8719932 8585304 8338970 8021082 7671521 7316041 6967284 
3678.404 6630850 6313267 6024205 5776935 5582664 5446488 5364427 5326052 
3682.262 5317935 5328233 5350607 5382844 5424814 5475109 5527759 5572361 
3686.119 5596358 5586759 5536183 5445918 5327293 5198977 5080688 4987334 
3689.977 4924629 4891152 4881770 4890985 4915280 4951942 4998026 5049647 
3693.834 5101407 5148513 5186537 5214369 5233518 5248240 5263164 5281107 
3697.691 5301969 5321960 5335478 5336317 5319981 5285367 5235899 5178590 
3701.549 5122830 5078409 5052462 5049043 5068385 5108011 5163131 5228118 
3705.406 5297173 5364662 5425183 5475109 5511081 5531920 5537156 5527088 
3709.264 5502222 5463231 5410857 5346816 5274970 5202632 5138488 5091651 
3713.121 5069659 5074453 5104122 5151933 5208869 5265579 5314346 5350305 
3716.979 5372713 5383985 5388547 5391130 5395022 5400759 5406764 5410019 
3720.836 5408542 5401732 5391231 5379892 5370432 5364293 5360435 5356041 
3724.693 5348292 5334941 5317399 5300360 5290901 5296838 5323369 5370768 
3728.551 5433973 5504504 5571186 5623008 5653118 5659127 5644659 5617974 
3732.408 5587799 5559406 5532155 5498531 5449743 5380362 5293048 5199514 
3736.266 5117600 5064899 5050149 5073012 5125244 5196026 5277351 5365199 
3740.123 5459171 5558735 5659060 5748798 5808164 5813234 5743896 5595653 
3743.980 5391835 5181775 5026316 4965784 5004529 5116393 5261051 5399551 
3747.838 5499303 5542223 5523933 5454742 5353659 5242606 5139158 5053233 
3751.695 4989915 4952747 4945440 4969973 5024540 5101776 5189521 5273695 
3755.553 5342623 5388883 5410757 5411897 5399082 5378349 5353257 5324946 
3759.410 5294188 5264036 5241533 5234456 5249313 5286943 5341483 5401631 
3763.268 5453836 5487155 5496853 5485411 5461990 5438570 5424277 5421627 
3767.125 5425887 5428471 5420150 5394921 5353391 5301500 5250084 5210244 
3770.982 5189454 5190627 5211787 5247234 5289928 5333365 5372143 5403477 
3774.840 5426760 5443703 5456185 5465748 5471653 5470881 5459607 5434376 
3778.697 5395224 5347319 5300191 5264942 5250252 5258871 5287077 5326220 
3782.555 5365568 5396062 5413071 5416360 5410186 5400323 5391936 5387306 
3786.412 5386870 5388749 5391936 5395962 5401363 5409012 5419010 5430517 
3790.270 5442495 5454172 5466083 5480411 5499135 5522960 5550177 5576153 
3794.127 5594713 5600419 5591189 5569843 5544404 5525712 5522658 5538800 
3797.984 5570213 5606226 5631467 5630058 5590014 5508363 5395055 5271984 
3801.842 5169603 5113007 5112705 5163199 5245490 5334606 5404046 5432967 
3805.699 5411025 5341449 5242237 5141271 5067279 5036808 5051792 5101474 
3809.557 5170374 5244283 5314849 5380630 5444844 5511651 5581758 5649660 
3813.414 5704380 5732044 5720730 5666949 5579778 5482055 5402537 5363891 
3817.271 5374860 5427766 5502356 5571757 5611596 5603272 5540713 5434041 
3821.129 5308979 5199748 5132888 5120651 5157096 5225234 5302372 5368520 
3824.986 5411964 5428337 5423271 5408173 5396532 5398545 5417399 5449273 
3828.844 5486149 5519168 5541183 5549573 5546317 5537055 5528799 5527390 
3832.701 5536820 5557728 5587262 5620558 5651003 5670842 5672286 5650130 
3836.559 5602802 5534605 5454776 5377309 5314917 5275171 5259911 5264170 
3840.416 5280101 5299186 5315520 5325650 5329239 5327998 5324275 5321189 
3844.273 5321793 5328770 5344803 5371606 5409918 5458735 5516417 5580852 
3848.131 5650433 5724154 5801447 5879662 5952515 6008012 6028035 5992289 
3851.988 5882785 5695215 5448166 5186738 4965080 4826115 4784136 4825144 
3855.846 4921211 5042272 5166116 5278961 5374625 5452561 5514470 5562393 
3859.703 5597801 5621330 5634354 5638348 5635361 5626835 5612872 5591995 
3863.561 5564037 5531115 5500511 5482625 5487692 5520947 5578704 5647882 
3867.418 5708643 5741378 5730600 5673058 5580416 5478263 5396196 5354867 
3871.275 5358255 5394049 5442932 5483531 5502960 5498564 5478330 5457191 
3875.133 5450112 5466821 5508195 5567159 5631568 5688299 5726169 5737785 
3878.990 5720864 5680477 5627708 5576925 5543062 5536250 5558735 5603843 
3882.848 5657482 5702701 5722543 5705454 5651003 5571287 5489303 5429947 
3886.705 5412132 5440516 5505141 5586189 5661410 5710792 5721132 5689608 
3890.563 5623780 5540847 5460480 5400021 5369258 5369493 5395458 5439476 
3894.420 5493833 5552862 5611966 5668056 5717540 5756386 5781166 5788990 
3898.277 5778983 5753666 5718849 5680343 5644391 5613979 5588034 5562863 
3902.135 5533666 5496752 5452326 5404718 5360804 5329071 5315453 5321927 
3905.992 5346380 5383650 5427565 5471988 5513329 5548969 5578502 5602433 
3909.850 5621599 5637543 5651674 5665740 5681685 5701089 5724490 5750779 
3913.707 5777573 5800373 5815081 5818338 5808533 5786807 5756722 5723046 
3917.564 5690918 5664330 5645397 5635294 5634085 5641638 5656978 5678765 
3921.422 5704212 5729056 5748966 5759777 5759273 5748126 5730600 5712370 
3925.279 5699915 5697934 5707703 5727310 5752055 5777103 5797888 5811454 
3929.137 5817532 5816458 5809608 5798157 5782878 5764713 5745004 5726303 
3932.994 5711732 5704346 5706058 5716936 5734831 5756285 5777472 5795134 
3936.852 5807996 5816122 5821159 5824920 5828346 5831402 5832342 5829286 
3940.709 5820521 5805343 5785431 5763471 5743291 5728754 5722543 5725329 
3944.566 5736039 5751853 5769044 5783886 5793221 5795303 5790098 5779118 
3948.424 5764948 5750947 5740001 5733824 5732715 5735805 5741512 5748026 
3952.281 5753902 5758333 5761154 5762631 5762732 5762027 5760919 5759811 
3956.139 5759609 5761557 5766526 5775088 5787076 5801112 5815518 5828111 
3959.996 5836842 5840805 5839730 5834223 5825894 5816089 5806350 5797787 
3963.854 5791441 5787848 5787344 5790434 5796814 5805813 5817129 5829320 
3967.711 5840939 5850913 5858201 5862298 5863440 5862399 5860115 5858167 
3971.568 5857596 5858973 5862399 5867134 5872071 5876538 5880132 5882651 
3975.426 5885103 5888360 5893264 5899578 5906900 5913920 5919160 5922150 
3979.283 5922284 5920571 5918219 5916540 5916507 5918791 5922855 5928263 
3983.141 5934242 5940120 5945595 5950701 5955773 5961484 5968337 5976802 
3986.998 5986914 5998605 6010968 6022659 6032268 6038551 6041339 6041138 
3990.855 6039727 6038954 6040667 6045774 6054073 6064624 6075342 6084885 
3994.713 6092277 6097486 6100678 6102795 6104442 6105584 6106088 6105785 
3998.570 6104509 6101921 6098259 6093353 6086868 
##END=
