
##TITLE=1132a_3_b
##JCAMP-DX=5.01  $$ Nicolet v. 1
##DATATYPE=INFRARED SPECTRUM
##ORIGIN=UniL
##OWNER=Nicolet
##LONGDATE=2011/09/21
##TIME=14:25:28
##SPECTROMETER/DATA SYSTEM=Nicolet iS5
##DATA PROCESSING=
Ratio against background
%Transmittance->Absorbance
Truncated
ElementMultiply or ElementDivide
##COMMENTS=
Number of sample scans: 32
Collection length: 51.19 sec
Sample gain: 2.0
Background collected on: Mer Sep 21 14:22:11 2011 (GMT+02:00);
Number of background scans: 32
Background gain: 2.0
Sample spacing:  1.000
Number of scan points: 12415
Resolution points: 8192
Number of FFT points: 65536
Apodization: N-B fort;
Phase correction: Mertz;
Laser frequency: 15798.0 cm-1
Number of rejected sample scans: 0
Number of rejected background scans: 0
Bench serial number: ASB1000141;
##RESOLUTION=4.000
##XUNITS=1/CM
##YUNITS=ABSORBANCE
##FIRSTX=649.893372
##LASTX=4000.122314
##FIRSTY=0.069726
##MAXX=4000.122314
##MINX=649.893372
##MAXY=0.295592
##MINY=0.005499
##XFACTOR=1.000000
##YFACTOR=1.000000E-009
##NPOINTS=6950
##DELTAX=0.482117
##ZPD=6100
##XYDATA=(X++(Y..Y))
649.893 69726440 70142400 70610424 71154904 71789024 72512824 73315664 
653.268 74185032 75113792 76105120 77168040 78313208 79545512 80863704 
656.643 82267920 83768528 85389232 87169928 89157296 91390360 93896512 
660.018 96687240 99759672 103095624 106650632 110341536 114020184 117486264 
663.393 120525560 122931264 124559672 125324144 125160712 124002584 
666.285 121775208 118462464 114212328 109440088 104765048 100731184 97604184 
669.660 95338328 93721864 92511696 91515264 90618384 89771504 88976448 
673.035 88260232 87656232 87184752 86848608 86637976 86538280 86540176 
676.410 86642304 86851112 87175472 87622536 88192032 88877560 89668800 
679.785 90558912 91549056 92652600 93890872 95291080 96878288 98671712 
683.159 100689856 102955456 105502408 108383720 111667320 115423728 
686.052 119722632 124621032 130163640 136392096 143343360 151036944 
688.945 159431360 168366160 177487680 186166032 193573248 198724896 
691.838 200661040 198746896 192788912 183149360 170640176 156413664 
694.730 141732976 127694192 115215976 104884248 96937600 91362024 87935064 
698.105 86336448 86212296 87273736 89337248 92316088 96190400 100923096 
701.480 106353680 112143544 117731864 122364752 125300232 125925304 
704.373 123950568 119501296 113089280 105493496 97516456 89901168 83165480 
707.747 77552192 73094120 69663640 67070036 65110976 63626476 62505528 
711.122 61666580 61050304 60606600 60290136 60070268 59932020 59875044 
714.497 59905052 60022976 60217392 60465588 60739076 61014344 61281460 
717.872 61543668 61813408 62102084 62415200 62748840 63095032 63448056 
721.247 63810460 64193992 64616844 65095888 65640576 66251412 66919996 
724.621 67632744 68372296 69120608 69855808 70551096 71179032 71714096 
727.996 72142312 72470352 72729368 72973456 73263296 73658248 74197680 
731.371 74893272 75732824 76688992 77734080 78849520 80031920 81290456 
734.746 82639048 84087376 85637600 87286984 89034736 90891240 92882296 
738.121 95043904 97416592 100033664 102912072 106055368 109460592 113129040 
741.496 117076624 121338296 125964176 131023528 136605840 142825520 
744.388 149841872 157843024 167004864 177416192 188956416 201182176 
747.281 213179376 223667600 231138368 234171024 231987024 224711120 
750.174 213470112 199996768 186309104 174251312 165073936 159478656 
753.066 157528800 158784928 162419824 167421904 172831520 177771888 
755.959 181619232 184015904 184795744 183937856 181481264 177478512 
758.852 171983392 165076688 156911728 147738288 137922368 127939360 
761.744 118281088 109439872 101840280 95754720 91312048 88467512 87031600 
765.119 86695088 87090432 87871488 88717472 89386376 89724816 89645704 
768.494 89131504 88218696 86994520 85579008 84111104 82735728 81567384 
771.869 80679336 80096024 79798448 79743696 79885408 80193528 80656000 
775.244 81273272 82046688 82968256 84017976 85171696 86408240 87718344 
778.619 89104416 90574096 92129376 93760312 95443040 97147688 98848240 
781.993 100527536 102180440 103806416 105401576 106951424 108429232 
784.886 109800112 111031264 112096840 112979840 113670064 114156512 
787.779 114422456 114446040 114203104 113675792 112859520 111764424 
790.671 110413008 108831080 107043880 105070496 102925128 100623816 98187304 
794.046 95642376 93019912 90346072 87638912 84908936 82162776 79413456 
797.421 76687808 74024768 71473296 69081176 66881692 64892768 63116296 
800.796 61545080 60169552 58981528 57972828 57129952 56431320 55847780 
804.171 55345628 54896472 54482296 54096284 53739864 53416748 53127572 
807.546 52869272 52639404 52442404 52293820 52221768 52263064 52451788 
810.920 52815312 53366276 54099888 54991192 55992384 57034424 58017584 
814.295 58822912 59329856 59425360 59038880 58157724 56834144 55173848 
817.670 53314356 51403700 49560836 47869612 46375696 45091196 44010388 
821.045 43118080 42396636 41824416 41375060 41020256 40730916 40484832 
824.420 40271344 40090200 39947412 39848292 39791892 39769852 39770288 
827.794 39783212 39805800 39843024 39904220 39996240 40119488 40266836 
831.169 40427912 40594288 40764652 40944264 41142160 41364852 41612204 
834.544 41877320 42150628 42426084 42705036 42996940 43313820 43665996 
837.919 44055972 44479296 44927540 45395340 45884780 46406188 46974220 
841.294 47601740 48295780 49055628 49875896 50751824 51683188 52675316 
844.669 53735816 54869064 56071736 57329660 58620356 59912088 61167012 
848.043 62343480 63390576 64252264 64873880 65205328 65217496 64911700 
851.418 64325996 63531004 62617736 61687548 60825480 60094088 59528748 
854.793 59137280 58908740 58819344 58840856 58942436 59093812 59270716 
858.168 59455376 59639504 59825416 60023588 60248264 60512016 60824984 
861.543 61192916 61619920 62110760 62670244 63299528 63988572 64710984 
864.917 65419644 66045828 66514784 66752964 66701964 66333620 65652064 
868.292 64695404 63525752 62226036 60888904 59601532 58448792 57500704 
871.667 56806044 56396040 56282004 56461240 56924904 57665084 58680392 
875.042 59978736 61575396 63490696 65745772 68353720 71310632 74579088 
878.417 78078672 81666384 85128680 88215528 90644424 92155304 92575744 
881.792 91842560 90038248 87367448 84144480 80725584 77438672 74576104 
885.166 72341632 70850872 70154288 70243280 71070832 72556056 74594552 
888.541 77050000 79741104 82457968 84950432 86943392 88190688 88486720 
891.916 87714008 85870032 83068984 79529088 75517576 71334768 67251656 
895.291 63467532 60116272 57251060 54865304 52915156 51341120 50084336 
898.666 49088608 48306296 47695292 47214920 46832916 46523416 46269640 
902.040 46063428 45900544 45776708 45684896 45615552 45558844 45509020 
905.415 45465936 45434664 45421200 45429072 45456480 45497464 45544308 
908.790 45592480 45642716 45700688 45773764 45866404 45978148 46104024 
912.165 46237020 46372304 46510212 46654988 46813244 46989392 47183672 
915.540 47392672 47612088 47839720 48077648 48331372 48606696 48906708 
918.914 49228644 49565404 49908748 50253188 50598752 50950548 51316696 
922.289 51704832 52119580 52563480 53040032 53555076 54118652 54741444 
925.664 55428364 56171464 56944096 57704436 58396824 58964068 59362940 
929.039 59569336 59587124 59444928 59194048 58896596 58613836 58404820 
932.414 58315112 58375184 58602232 58999216 59557440 60258236 61075740 
935.789 61976216 62916860 63851608 64730676 65507672 66151576 66651360 
939.163 67023680 67308992 67569912 67877512 68294152 68869824 69631128 
942.538 70581656 71705184 72971616 74340904 75760560 77170376 78501736 
945.913 79675624 80617336 81260968 81558224 81490072 81066968 80328848 
949.288 79334376 78157488 76878280 75570136 74303592 73138432 72117304 
952.663 71268936 70603680 70116432 69791176 69607640 69547896 69597872 
956.037 69749464 69997176 70335016 70754776 71246600 71800368 72409664 
959.412 73073264 73794536 74579128 75433136 76360312 77363160 78445448 
962.787 79614888 80884384 82273920 83806264 85502104 87377736 89439992 
966.162 91686496 94106656 96686336 99413448 102283328 105303056 108492520 
969.537 111881448 115496952 119350152 123415568 127620696 131831568 
972.429 135852016 139461552 142424320 144537520 145681728 145838096 
975.322 145110128 143697168 141886928 139997392 138318016 137103552 
978.215 136519888 136630976 137394512 138663776 140206560 141710480 
981.108 142849872 143317456 142860272 141341264 138745216 135184960 
984.000 130862952 126047448 121026936 116051200 111335712 107036328 
986.893 103241304 99990616 97278824 95069800 93307464 91929192 90876664 
990.268 90094920 89539584 89175072 88969376 88896184 88932408 89057432 
993.643 89255768 89515680 89828752 90188656 90589568 91025080 91489088 
997.017 91976192 92483288 93009728 93556656 94125752 94717200 95329584 
1000.392 95959368 96603384 97258888 97925384 98604096 99297288 100006968 
1003.767 100734904 101482552 102252512 103049080 103878840 104748520 
1006.660 105664192 106628896 107641720 108698960 109794824 110924688 
1009.552 112085000 113274168 114491624 115736336 117006344 118299320 
1012.445 119613656 120950760 122315608 123717416 125167728 126678032 
1015.338 128259512 129919704 131664856 133499760 135428512 137455856 
1018.231 139586224 141822704 144166544 146614992 149161152 151790576 
1021.123 154477952 157186208 159857920 162415872 164770992 166820928 
1024.016 168470624 169651472 170331072 170528688 170310816 169789552 
1026.909 169094272 168352352 167677552 167143616 166782736 166579744 
1029.802 166476672 166373136 166130784 165598192 164609136 163005472 
1032.695 160668128 157520992 153553840 148824448 143459952 137642640 
1035.588 131580384 125506896 119639192 114153456 109185320 104805960 
1038.481 101029912 97827056 95139224 92896944 91029368 89477440 88191336 
1041.856 87128336 86254688 85540024 84958968 84492952 84128112 83855376 
1045.232 83667520 83557136 83515736 83534728 83606864 83728472 83899304 
1048.607 84120912 84393184 84711000 85061208 85423568 85772208 86077136 
1051.982 86311312 86451416 86481544 86396560 86202960 85920232 85577640 
1055.357 85214224 84872232 84587944 84390728 84297016 84311536 84430080 
1058.733 84644200 84943336 85313816 85736808 86184936 86617064 86982944 
1062.108 87228128 87299136 87157376 86783864 86183080 85380488 84418816 
1065.483 83352712 82236440 81124392 80064664 79092888 78233856 77499352 
1068.858 76889552 76397016 76012072 75726744 75537176 75443544 75446936 
1072.234 75546480 75736928 76009272 76351744 76753992 77208488 77710744 
1075.609 78257848 78846416 79471064 80125744 80805960 81511856 82250816 
1078.984 83037616 83892352 84836176 85890512 87074928 88406824 89905728 
1082.359 91593200 93492056 95627304 98022296 100695584 103659912 106917896 
1085.735 110459584 114255520 118255984 122386976 126547696 130628688 
1088.628 134515888 138105248 141324016 144127616 146500720 148443456 
1091.521 149955072 151019072 151601136 151656144 151153408 150102928 
1094.414 148580672 146734688 144766448 142925296 141451072 140543296 
1097.307 140345328 140910176 142198272 144069536 146306736 148618656 
1100.200 150658464 152090240 152596896 151931456 149965600 146690656 
1103.093 142225024 136776544 130626232 124078056 117410136 110882392 
1105.986 104698672 98998624 93873848 89359384 85447800 82101928 79267168 
1109.361 76882072 74881736 73206784 71801264 70610776 69589000 68694120 
1112.737 67890864 67154688 66467980 65820136 65205604 64622036 64068824 
1116.112 63547536 63062236 62618920 62223816 61882480 61597736 61368656 
1119.487 61192340 61064912 60983492 60947008 60955356 61008320 61103924 
1122.862 61238232 61406552 61604796 61831516 62088476 62379820 62710172 
1126.238 63083268 63501320 63965732 64478488 65043696 65666556 66353000 
1129.613 67106544 67926280 68805528 69733200 70695384 71675608 72657336 
1132.988 73623120 74552896 75426232 76223344 76928392 77535472 78051984 
1136.363 78501024 78916984 79344088 79829264 80412904 81130624 82008664 
1139.739 83064568 84309848 85749488 87382480 89200304 91186512 93317440 
1143.114 95559744 97873632 100212624 102519056 104729288 106770472 108558712 
1146.489 110010896 111044104 111584032 111578672 110998568 109843080 
1149.382 108136504 105926672 103278112 100262832 96963696 93466664 89852912 
1152.757 86204008 82590472 79068968 75687504 72481816 69478600 66699960 
1156.133 64160420 61867772 59822488 58017280 56438904 55070400 53894724 
1159.508 52893936 52048976 51340412 50744820 50236744 49792724 49390956 
1162.883 49015748 48658472 48315188 47985164 47668480 47364956 47074836 
1166.258 46799664 46544068 46314388 46118212 45961720 45847920 45776192 
1169.634 45744164 45749392 45791180 45871152 45992288 46156976 46366184 
1173.009 46619164 46914268 47251088 47631320 48058884 48538592 49074472 
1176.384 49668964 50322456 51035472 51809160 52646136 53549340 54519072 
1179.759 55550464 56631532 57743000 58862636 59967932 61040388 62068980 
1183.135 63050508 63989228 64895040 65784016 66676700 67595960 68566800 
1186.510 69610936 70742176 71962144 73256472 74595736 75934248 77218152 
1189.885 78392024 79400008 80197072 80749560 81035976 81048440 80789592 
1193.260 80270728 79506960 78516064 77316368 75925680 74365792 72666304 
1196.635 70866352 69020344 67193632 65450116 63849264 62429664 61203632 
1200.011 60158360 59261756 58474952 57759808 57090048 56453544 55850340 
1203.386 55288312 54778804 54333272 53960788 53667872 53458228 53331736 
1206.761 53284720 53309856 53398388 53542220 53736192 53979700 54275900 
1210.136 54629716 55044596 55521696 56059556 56656224 57310904 58026180 
1213.512 58807508 59662120 60596276 61614116 62717372 63907148 65185660 
1216.887 66558696 68035160 69626576 71345936 73204776 75214488 77386480 
1220.262 79732744 82267832 85007336 87965240 91152048 94569696 98210272 
1223.637 102050832 106053336 110163432 114301816 118369248 122242944 
1226.531 125768584 128781168 131106200 132573352 133053232 132466536 
1229.424 130805176 128134472 124591144 120368064 115677424 110753408 
1232.317 105821224 101069888 96663400 92719088 89304600 86451064 84155176 
1235.692 82391592 81119392 80291424 79857696 79763760 79957976 80390968 
1239.067 81016008 81795608 82697488 83691904 84750984 85841408 86922264 
1242.442 87949824 88876016 89656952 90261544 90672184 90889400 90928656 
1245.818 90819680 90601032 90315552 90012600 89740296 89541576 89452728 
1249.193 89494056 89669248 89964008 90351856 90798776 91268960 91734008 
1252.568 92173328 92576480 92943272 93282736 93613048 93958960 94353184 
1255.943 94831232 95424216 96156912 97038960 98063448 99204304 100419216 
1259.319 101653992 102840264 103905016 104772344 105362768 105605752 
1262.212 105441624 104827216 103744848 102201736 100230488 97880024 95213344 
1265.587 92301784 89215848 86032016 82828736 79678016 76650288 73803808 
1268.962 71179184 68804984 66695668 64857380 63291096 61993988 60958484 
1272.337 60170236 59609244 59251348 59070236 59044688 59158392 59400360 
1275.713 59763816 60242400 60827920 61512060 62285692 63143192 64083336 
1279.088 65109396 66227748 67445232 68768216 70202184 71753264 73430216 
1282.463 75244400 77207744 79329688 81610688 84038360 86582648 89198632 
1285.838 91827168 94396632 96836384 99075120 101047808 102703120 104000656 
1289.214 104913616 105428696 105542080 105255808 104573160 103493776 
1292.107 102013152 100126792 97837176 95164136 92151616 88875768 85436304 
1295.482 81948320 78540480 75332552 72433592 69941360 67928024 66443348 
1298.857 65510912 65124480 65250688 65831548 66797748 68067912 69558168 
1302.232 71191400 72888328 74572240 76171728 77612960 78828776 79764512 
1305.608 80376576 80638840 80541632 80089608 79302440 78217472 76899240 
1308.983 75437712 73952672 72587856 71476304 70726416 70389016 70438696 
1312.358 70767248 71197096 71529936 71568736 71173408 70290056 68950512 
1315.733 67260520 65361448 63411816 61545080 59852456 58384848 57152064 
1319.109 56138736 55317888 54664628 54160200 53792216 53552076 53431252 
1322.484 53419184 53505224 53679236 53933100 54261824 54660416 55122456 
1325.859 55638512 56195032 56776476 57368452 57958132 58536292 59097532 
1329.234 59637940 60155128 60647592 61115404 61560508 61987800 62404528 
1332.610 62818444 63236780 63664304 64103692 64555988 65022528 65505752 
1335.985 66009568 66538112 67094436 67679320 68291712 68929272 69591384 
1339.360 70280088 71000056 71758536 72561968 73414368 74316800 75267728 
1342.735 76265360 77308760 78400160 79544720 80749800 82022592 83369056 
1346.111 84792520 86293768 87871696 89524720 91251584 93051512 94923288 
1349.486 96864080 98867672 100924768 103025304 105160056 107325600 109525992 
1352.861 111774280 114089720 116495080 119014536 121670440 124483048 
1355.754 127470256 130642784 133998112 137510416 141127664 144763040 
1358.647 148302160 151629792 154638048 157255024 159458000 161272320 
1361.540 162760752 163997792 165062720 166018336 166906416 167755552 
1364.433 168579440 169382528 170160480 170904208 171604112 172259072 
1367.326 172885840 173524752 174239392 175098880 176168512 177495696 
1370.219 179103600 180998192 183177856 185643792 188400480 191451504 
1373.113 194790544 198391120 202208688 206194944 210318032 214576496 
1376.006 218995984 223610848 228430496 233411328 238430672 243304080 
1378.899 247797152 251644848 254599904 256423024 256890304 255827840 
1381.792 253132992 248832288 243096464 236228880 228582000 220438176 
1384.685 211974000 203222256 194121696 184598944 174656432 164418432 
1387.578 154114464 144010592 134334496 125246152 116830576 109132368 
1390.471 102188736 96021072 90639976 86033032 82154768 78937248 76302016 
1393.846 74183184 72523360 71271632 70377048 69770824 69374488 69118704 
1397.221 68953616 68869824 68900384 69117344 69606040 70438192 71660280 
1400.597 73283928 75298456 77680984 80401656 83412208 86623088 89900304 
1403.972 93048112 95822136 97984392 99325944 99714152 99115536 97585728 
1407.347 95254728 92290312 88893984 85273216 81619560 78119048 74920712 
1410.722 72125136 69788216 67918760 66497020 65492032 64877228 64634188 
1414.098 64746788 65194360 65944268 66951000 68171912 69572480 71137224 
1417.473 72872264 74793360 76908336 79197016 81611640 84091072 86585152 
1420.848 89073456 91561536 94064736 96583560 99087392 101508552 103738624 
1424.223 105661400 107177696 108218672 108752712 108763400 108232056 
1427.116 107134608 105451880 103194400 100418752 97238992 93809288 90284960 
1430.492 86811376 83504328 80447592 77708208 75330888 73333704 71709328 
1433.867 70422952 69425840 68667536 68118768 67781632 67686288 67868904 
1437.242 68342008 69078416 70019096 71093784 72237152 73402320 74553448 
1440.617 75663248 76711528 77678928 78548936 79310952 79960128 80498360 
1443.993 80931328 81265360 81503216 81642352 81678464 81611488 81453776 
1447.368 81237752 81009736 80820240 80708984 80690984 80758944 80893728 
1450.743 81079984 81316184 81617800 82007944 82505848 83112792 83810728 
1454.118 84561424 85317648 86036584 86682512 87238048 87704432 88098792 
1457.494 88437688 88727352 88965920 89150224 89285400 89387552 89479640 
1460.869 89585144 89722488 89899616 90117096 90371480 90662312 90996440 
1464.244 91389416 91860648 92431304 93121104 93946856 94929392 96090848 
1467.619 97450728 99020512 100798424 102769856 104903696 107162048 109499856 
1470.995 111852296 114134920 116237832 118034608 119411696 120289080 
1473.888 120625888 120412744 119656080 118376816 116617368 114449960 
1476.781 111974360 109292488 106494696 103636104 100734312 97787832 94793032 
1480.156 91759544 88721584 85729336 82835552 80085216 77503312 75097064 
1483.531 72862352 70788696 68864504 67079008 65422996 63890716 62482308 
1486.906 61204012 60066844 59081776 58255244 57586008 57067640 56694692 
1490.282 56464828 56380460 56442640 56644516 56967288 57382784 57856060 
1493.657 58355668 58859032 59353904 59840744 60326340 60815684 61301800 
1497.032 61763328 62168376 62486708 62698072 62798344 62800140 62730616 
1500.407 62625924 62522708 62457208 62457016 62537788 62701524 62934248 
1503.783 63208000 63478156 63693120 63806744 63798644 63694192 63565336 
1507.158 63502392 63562148 63751056 64035608 64369880 64712248 65034880 
1510.533 65326400 65586784 65825188 66054352 66287808 66535176 66800260 
1513.908 67080168 67366368 67648616 67918072 68175400 68434000 68720512 
1517.284 69063496 69481680 69974600 70520968 71083992 71620704 72101080 
1520.659 72520856 72911888 73326600 73816408 74402008 75065984 75766000 
1524.034 76453320 77092376 77664504 78173712 78640032 79091264 79550608 
1527.409 80031120 80540512 81086416 81680464 82338360 83072392 83885120 
1530.785 84764200 85688936 86637528 87600000 88588736 89640816 90805752 
1534.160 92116472 93581152 95178320 96875640 98638568 100443016 102283376 
1537.535 104161800 106094536 108108368 110239752 112522360 114973856 
1540.428 117600008 120382928 123295792 126322400 129454088 132691712 
1543.321 136033904 139466576 142949328 146414064 149782224 152974816 
1546.214 155926864 158591824 160915904 162829232 164252112 165102560 
1549.107 165343760 165011040 164216912 163101840 161771488 160263968 
1552.000 158546960 156562352 154288800 151788848 149217824 146783232 
1554.894 144645232 142863280 141368256 139993504 138507456 136669152 
1557.787 134312192 131426840 128235456 125120344 122430504 120303936 
1560.680 118676096 117378752 116238048 115111824 113881912 112460712 
1563.573 110794120 108877608 106762840 104546432 102338936 100211328 
1566.466 98172304 96162736 94082464 91825488 89326984 86601368 83751696 
1569.841 80937712 78309832 75961912 73911344 72120432 70528264 69074344 
1573.216 67708520 66390412 65089568 63792736 62520148 61339996 60363880 
1576.592 59718876 59494020 59720588 60380364 61433460 62846096 64603120 
1579.967 66711896 69192168 72063520 75332984 78981520 82955344 87167824 
1583.342 91483440 95723856 99686184 103138432 105865440 107698016 108520720 
1586.717 108297360 107071560 104977024 102222488 99080408 95870600 92887584 
1590.093 90387104 88561432 87519008 87307400 87921104 89320720 91439400 
1593.468 94192104 97487928 101218064 105263624 109505744 113819120 118091144 
1596.843 122230424 126155656 129792824 133062096 135860176 138075776 
1599.736 139602624 140359376 140315376 139493440 137965232 135829328 
1602.629 133206888 130234928 127049056 123789672 120583728 117521824 
1605.522 114660680 112016120 109574864 107309352 105193832 103213896 
1608.415 101364792 99647128 98059248 96592584 95235256 93978576 92821648 
1611.791 91772192 90840312 90028536 89323040 88689392 88074728 87421744 
1615.166 86683240 85847784 84955992 84100048 83391576 82911792 82689912 
1618.541 82700976 82890936 83198024 83571112 83978536 84405736 84856968 
1621.916 85351608 85920144 86595024 87402904 88360080 89467792 90715384 
1625.292 92083584 93549048 95082960 96654040 98233208 99795240 101324752 
1628.667 102818056 104282600 105731480 107178416 108635424 110112328 
1631.560 111619072 113166192 114767824 116443872 118220232 120132328 
1634.453 122225112 124554280 127164320 130079328 133299608 136795024 
1637.346 140534688 144499440 148687056 153108432 157780928 162724400 
1640.239 167945120 173432656 179163792 185095424 191174832 197352896 
1643.132 203570544 209778496 215947632 222067040 228159984 234273056 
1646.025 240464080 246747616 253077120 259355600 265462048 271299296 
1648.918 276804800 281945792 286650112 290740864 293903744 295591840 
1651.811 295102304 291862624 285902208 278134016 269896576 262182208 
1654.704 255227360 248754032 242307360 235528336 228234304 220421456 
1657.597 212209856 203774128 195291072 186857776 178495600 170169696 
1660.490 161819680 153404720 144934752 136486816 128204032 120274080 
1663.384 112882112 106169968 100203608 94966744 90383352 86340616 82716640 
1666.759 79404272 76331240 73471776 70850160 68527888 66576576 65048196 
1670.134 63956632 63277104 62959300 62950492 63204244 63685632 64375140 
1673.509 65265856 66365972 67696048 69281944 71141952 73272008 75655040 
1676.885 78270832 81110288 84181968 87504904 91096632 94948360 99022880 
1680.260 103263112 107605176 112021440 116535168 121222120 126192928 
1683.153 131544976 137291008 143281472 149232928 154830592 159837616 
1686.046 164126240 167632800 170320864 172139536 173041760 173003568 
1688.939 172023664 170134400 167396864 163911424 159819664 155294448 
1691.832 150527664 145661376 140744656 135712736 130393088 124582760 
1694.725 118183992 111349152 104517568 98260792 92988056 88800520 85499560 
1698.100 82745552 80177272 77543200 74792728 72098024 69760672 68002384 
1701.476 66830636 66059292 65440716 64740636 63792504 62491224 60781648 
1704.851 58661732 56178704 53426752 50521880 47584436 44722256 42010596 
1708.226 39494768 37186648 35068104 33106078 31270470 29548726 27951858 
1711.601 26505218 25228570 24122706 23159598 22292578 21471112 20665236 
1714.977 19875176 19126266 18448890 17856558 17333478 16845952 16365992 
1718.352 15894363 15462661 15112996 14872157 14735539 14671410 14633712 
1721.727 14583922 14502549 14397522 14295707 14227877 14208020 14226816 
1725.102 14256261 14267560 14246503 14199085 14146400 14110116 14099437 
1728.478 14104845 14104058 14075376 14013124 13930524 13853856 13804805 
1731.853 13787669 13781854 13750424 13657170 13494342 13295290 13119996 
1735.228 13016943 12996526 13033229 13085198 13115386 13101282 13043096 
1738.603 12959622 12878347 12818417 12781153 12750408 12706257 12637481 
1741.979 12548321 12453859 12371009 12306479 12252932 12192645 12108074 
1745.354 11992827 11855069 11713610 11586729 11482983 11395521 11306820 
1748.729 11197736 11060365 10902856 10746322 10613577 10516988 10453955 
1752.104 10411123 10375286 10341590 10314920 10305114 10317803 10348953 
1755.479 10383906 10402638 10391575 10351736 10300024 10259312 10248048 
1758.855 10268574 10308608 10346171 10361101 10346340 10310576 10274646 
1762.230 10259108 10273832 10313461 10362900 10407289 10440650 10466344 
1765.605 10494041 10531382 10579012 10628313 10666989 10686379 10688315 
1768.980 10683968 10688485 10710016 10743876 10772984 10775838 10739427 
1772.356 10669366 10589911 10530261 10510335 10530329 10574056 10618635 
1775.731 10647633 10656462 10654356 10656054 10673882 10708929 10750975 
1779.106 10783446 10793501 10780083 10755866 10739699 10746322 10777808 
1782.481 10822952 10864126 10885563 10883117 10865416 10849857 10851793 
1785.857 10877273 10919879 10967281 11008366 11039871 11067742 11101970 
1789.232 11149629 11208684 11266625 11305697 11312840 11287197 11243910 
1792.607 11204944 11189542 11202530 11234865 11269821 11294305 11304270 
1795.982 11306650 11312704 11331680 11364297 11402291 11432498 11444574 
1799.358 11438043 11422395 11413482 11423041 11453385 11495673 11536605 
1802.733 11565324 11580637 11590505 11607827 11642302 11694718 11757013 
1806.108 11816286 11863071 11895183 11919430 11946369 11984107 12032681 
1809.483 12083883 12126472 12153117 12166440 12178673 12204266 12253921 
1812.859 12327340 12414102 12499553 12572058 12629568 12679851 12736418 
1816.234 12809408 12901558 13005198 13107223 13195680 13265876 13321701 
1819.609 13371619 13422433 13474347 13520319 13550537 13557784 13541342 
1822.984 13507741 13466828 13426910 13390482 13354466 13313944 13268028 
1826.360 13221434 13183144 13159988 13152645 13152850 13147044 13122386 
1829.735 13075432 13015611 12961909 12932278 12934634 12963035 13002501 
1833.110 13035892 13052418 13052451 13045896 13046271 13062080 13092266 
1836.485 13126655 13152747 13163164 13160910 13157631 13168936 13204766 
1839.861 13264612 13337827 13409004 13465769 13502716 13523053 13534915 
1843.236 13546333 13559904 13572620 13580312 13582910 13586671 13601748 
1846.611 13635869 13689449 13754664 13818965 13870790 13905753 13929224 
1849.986 13953516 13990813 14046114 14114703 14184535 14243935 14287386 
1853.362 14319301 14350773 14393927 14453150 14523036 14590056 14640704 
1856.737 14667881 14675215 14673947 14676757 14690775 14713054 14733791 
1860.112 14742224 14734408 14716242 14701229 14702395 14726353 14769201 
1863.487 14819425 14863756 14895337 14916083 14935766 14964128 15005182 
1866.863 15052757 15094437 15118177 15119961 15108639 15101641 15117113 
1870.238 15162094 15231030 15308112 15377621 15429563 15464206 15489786 
1873.613 15516158 15547854 15581167 15605861 15611597 15595042 15562862 
1876.988 15528589 15506165 15502010 15513274 15528657 15536143 15530512 
1880.364 15516020 15504654 15508809 15534633 15578763 15631003 15679987 
1883.739 15721316 15758935 15803706 15865631 15947191 16040044 16128892 
1887.114 16198706 16241286 16260307 16268117 16281670 16312253 16361862 
1890.489 16424522 16491629 16558848 16627697 16704546 16794150 16895762 
1893.865 17000912 17097056 17173954 17229800 17272344 17315994 17372446 
1897.240 17446598 17532698 17620164 17698706 17765974 17829286 17901960 
1900.615 17995440 18112774 18246656 18381686 18504174 18605806 18687986 
1903.990 18758938 18826684 18893056 18951512 18990694 19001112 18981556 
1907.365 18941126 18894612 18857134 18836822 18831770 18833430 18833846 
1910.741 18830870 18830696 18843950 18878902 18936730 19010252 19087904 
1914.116 19159856 19223714 19285124 19353714 19435378 19528564 19622046 
1917.491 19702304 19760278 19798770 19830990 19874726 19942126 20033546 
1920.866 20136716 20234044 20312124 20367750 20410186 20455682 20518344 
1924.242 20600852 20694112 20781244 20848332 20891614 20919706 20948532 
1927.617 20992868 21058528 21139712 21223276 21297152 21357914 21412874 
1930.992 21475152 21554986 21653572 21760090 21858444 21935282 21987596 
1934.367 22024300 22062122 22114696 22185164 22264118 22335692 22386484 
1937.743 22413068 22424616 22437072 22464288 22508708 22560046 22599624 
1941.118 22611806 22591666 22549120 22503126 22472836 22466242 22478176 
1944.493 22493774 22499008 22489656 22471058 22456402 22455390 22469556 
1947.868 22489412 22501590 22496914 22478350 22460484 22464428 22504486 
1951.244 22581264 22680120 22778754 22858094 22910730 22943564 22971684 
1954.619 23009030 23057420 23106934 23142266 23152436 23139784 23121052 
1957.994 23119620 23154042 23226846 23323296 23416830 23486076 23523150 
1961.369 23537632 23549526 23577650 23629008 23697132 23766912 23825572 
1964.745 23872338 23918094 23980416 24071606 24189298 24315990 24428316 
1968.120 24507538 24548662 24563036 24568226 24578326 24594350 24604412 
1971.495 24592736 24551362 24487134 24422356 24383030 24387868 24436622 
1974.870 24512516 24590808 24654314 24701626 24747048 24808648 24895974 
1978.246 24999990 25096098 25156448 25164944 25125060 25060326 25000588 
1981.621 24968158 24969878 24995322 25025190 25043688 25046496 25042530 
1984.996 25048006 25074472 25122672 25182430 25238612 25281492 25311730 
1988.371 25340568 25382614 25446026 25527438 25611712 25681062 25725180 
1991.747 25745852 25757138 25775526 25811532 25862240 25913376 25947458 
1995.122 25953826 25935218 25906694 25886118 25886084 25906376 25935360 
1998.497 25957272 25962478 25952628 25941022 25944856 25972818 26021788 
2001.872 26076496 26118824 26136770 26132654 26119916 26117804 26138564 
2005.248 26180268 26227498 26261008 26266920 26246398 26212540 26183610 
2008.623 26171680 26175270 26181392 26173404 26143246 26096516 26050354 
2011.998 26024742 26031320 26066082 26114074 26155104 26176572 26180514 
2015.373 26180268 26192902 26227534 26279134 26330742 26364364 26369610 
2018.749 26352288 26330074 26325320 26350704 26404468 26471480 26532656 
2022.124 26575768 26601624 26622938 26656442 26711652 26784174 26859282 
2025.499 26918642 26951042 26959184 26956152 26957668 26973816 27001812 
2028.874 27028716 27040106 27029526 27003010 26977202 26970608 26992326 
2032.250 27039328 27097444 27150208 27187316 27210000 27227672 27250496 
2035.625 27281086 27312100 27328966 27321098 27286484 27235892 27185976 
2039.000 27153206 27142202 27144566 27143260 27121640 27074170 27008582 
2042.375 26941592 26890864 26865026 26859598 26860302 26852232 26827700 
2045.750 26792384 26761726 26751892 26772862 26822660 26888148 26952028 
2049.126 27000436 27028962 27039964 27040492 27036014 27028856 27019724 
2052.501 27009640 27004420 27012318 27042150 27096670 27170278 27249686 
2055.876 27318310 27365136 27388852 27398414 27409144 27434202 27479312 
2059.251 27540524 27606686 27665444 27711000 27743424 27768536 27791636 
2062.627 27813646 27829612 27832614 27817282 27785704 27747168 27715344 
2066.002 27701324 27708670 27732368 27762142 27789058 27809158 27825938 
2069.377 27846886 27877906 27918468 27961012 27993806 28007024 27997728 
2072.752 27971366 27938502 27910446 27893382 27886244 27883736 27879814 
2076.128 27872536 27864764 27862220 27868756 27883240 27899034 27906772 
2079.503 27898964 27874444 27838620 27801034 27770126 27749004 27734804 
2082.878 27721172 27701852 27674838 27643232 27613218 27589596 27573038 
2086.253 27559164 27541052 27514152 27478042 27438050 27401520 27374136 
2089.629 27356490 27343540 27327908 27303842 27271418 27236810 27208058 
2093.004 27192960 27193630 27206400 27223722 27238256 27247004 27250922 
2096.379 27254202 27258754 27263656 27264326 27255930 27236740 27210316 
2099.754 27184848 27168692 27166082 27174228 27183542 27183894 27167740 
2103.130 27135042 27093038 27051248 27018208 26995358 26978364 26959150 
2106.505 26932674 26898618 26863300 26835594 26822836 26826536 26842432 
2109.880 26862382 26879620 26891852 26901474 26912860 26928444 26946528 
2113.255 26960420 26963098 26950018 26922908 26889806 26860796 26843242 
2116.631 26839154 26843384 26847578 26844442 26830838 26809232 26785126 
2120.006 26763698 26745832 26728460 26706684 26677194 26641432 26605006 
2123.381 26575170 26557346 26551568 26552592 26553330 26547766 26534804 
2126.756 26517792 26501662 26490216 26482292 26474332 26461304 26442146 
2130.132 26420876 26406264 26407778 26429434 26468698 26515996 26561256 
2133.507 26597504 26625686 26653870 26692344 26746784 26815012 26886352 
2136.882 26947938 26990704 27013730 27023954 27031676 27045396 27065740 
2140.257 27086654 27099492 27099350 27088312 27076426 27074698 27089934 
2143.633 27120442 27155922 27183648 27195500 27192750 27185906 27188692 
2147.008 27209538 27246758 27289730 27321874 27329850 27310688 27270644 
2150.383 27221816 27174334 27131234 27086478 27031360 26958832 26869608 
2153.758 26773250 26682864 26609552 26557980 26525682 26509904 26512968 
2157.134 26546144 26624804 26761972 26955236 27183612 27414756 27613748 
2160.509 27759882 27851868 27904298 27937620 27968822 28003278 28034236 
2163.884 28052546 28050850 28030916 28002146 27976526 27958856 27946206 
2167.259 27927408 27890802 27830954 27752182 27666926 27591008 27533710 
2170.635 27494454 27464310 27431484 27389134 27339376 27293154 27263798 
2174.010 27260270 27282390 27318768 27353808 27373570 27371276 27348092 
2177.385 27309842 27262988 27210280 27152042 27088558 27023602 26965530 
2180.760 26925198 26909688 26918114 26940430 26961124 26967540 26954990 
2184.135 26928408 26901016 26886176 26888820 26904964 26921568 26925482 
2187.511 26908454 26872958 26828510 26788614 26762678 26750978 26747664 
2190.886 26742942 26730610 26709854 26685472 26663558 26646894 26633436 
2194.261 26616666 26590352 26553718 26511698 26474016 26449400 26440596 
2197.636 26441758 26443026 26432956 26406122 26366056 26322750 26287864 
2201.012 26269490 26267730 26276318 26286774 26292898 26293744 26293850 
2204.387 26298918 26312050 26331870 26352746 26369188 26380032 26389188 
2207.762 26403412 26429998 26470952 26521138 26571824 26612580 26637840 
2211.137 26649218 26653552 26659366 26673176 26696008 26724090 26751928 
2214.513 26775858 26795418 26813744 26833304 26853712 26871370 26880218 
2217.888 26875002 26854980 26824246 26789602 26757920 26732054 26709256 
2221.263 26683888 26650770 26608494 26561222 26515854 26478982 26453202 
2224.638 26435702 26419362 26397074 26365350 26326096 26284874 26248372 
2228.014 26221058 26203248 26191916 26183680 26176572 26171646 26171784 
2231.389 26178436 26190192 26201524 26205924 26197686 26175164 26141064 
2234.764 26101336 26062140 26026150 25992906 25959524 25923680 25885346 
2238.139 25848104 25816208 25793424 25780448 25774332 25770708 25766420 
2241.515 25760972 25756822 25757490 25764662 25776088 25787198 25791806 
2244.890 25785864 25770182 25749614 25730770 25719274 25716216 25718606 
2248.265 25721698 25721348 25716952 25711294 25709360 25714388 25726798 
2251.640 25742582 25756400 25764416 25765682 25763290 25762518 25767756 
2255.016 25779148 25794126 25807102 25813220 25811110 25802214 25789836 
2258.391 25777672 25766350 25754114 25738048 25715864 25687916 25657052 
2261.766 25626826 25599058 25573580 25547292 25517002 25481054 25441316 
2265.141 25402288 25369124 25345064 25329398 25317984 25305762 25288866 
2268.517 25266952 25243142 25221792 25205920 25195808 25188294 25179022 
2271.892 25165470 25147600 25128676 25112772 25103082 25099292 25098484 
2275.267 25095992 25088374 25075456 25059870 25045618 25036282 25032350 
2278.642 25031684 25030350 25024910 25013960 24998726 24981528 24964472 
2282.018 24948154 24931416 24912254 24889272 24862816 24833696 24803876 
2285.393 24774092 24743120 24709096 24670516 24627450 24582322 24538950 
2288.768 24500772 24468556 24441004 24413700 24381734 24342344 24295632 
2292.143 24244440 24192940 24144564 24101130 24062396 24026780 23993372 
2295.519 23962594 23935914 23914838 23899888 23889526 23880950 23871952 
2298.894 23861208 23849620 23840204 23835550 23836738 23842760 23850180 
2302.269 23855360 23856236 23853330 23848780 23846434 23848954 23857076 
2305.644 23869818 23884590 23899856 23915084 23931364 23949358 23969212 
2309.020 23989064 24006434 24018376 24023768 24023908 24021632 24020860 
2312.395 24023662 24030596 24039526 24047860 24053394 24055776 24056126 
2315.770 24056476 24057912 24060188 24061588 24060084 24054654 24045338 
2319.145 24034168 24023346 24013892 24005384 23995368 23980696 23958638 
2322.521 23927476 23886972 23836948 23777692 23708994 23631316 23546692 
2325.896 23458796 23373294 23296552 23233034 23184134 23147752 23119236 
2329.271 23092886 23065002 23035058 23005048 22978706 22959004 22946916 
2332.646 22941816 22941748 22944612 22950096 22958584 22970566 22985450 
2336.021 23000890 23013398 23020210 23019406 23011406 22998828 22983946 
2339.397 22968646 22953030 22936228 22917366 22897212 22877268 22859388 
2342.772 22844124 22829352 22810286 22782770 22744220 22697472 22650202 
2346.147 22614004 22599134 22612714 22655998 22724842 22811612 22906782 
2349.522 23001554 23088658 23162116 23218212 23254602 23270996 23268584 
2352.898 23251664 23225450 23195458 23166450 23140448 23116718 23092292 
2356.273 23064340 23030972 22992576 22951388 22909716 22868990 22828410 
2359.648 22785596 22737900 22683960 22623884 22559974 22494820 22430478 
2363.023 22368134 22308100 22251212 22199494 22156046 22123934 22104550 
2366.399 22096636 22096148 22097194 22095068 22087188 22073486 22056754 
2369.774 22039848 22024720 22011334 21998890 21985924 21972610 21960340 
2373.149 21951454 21947586 21949224 21954800 21961560 21966788 21969368 
2376.524 21969298 21968392 21968184 21969926 21973586 21978500 21983972 
2379.900 21990524 21999030 22011090 22027960 22049224 22073104 22097194 
2383.275 22118670 22136034 22149388 22159568 22168322 22176586 22184816 
2386.650 22192836 22200542 22208144 22216198 22225370 22235764 22246052 
2390.025 22255050 22261154 22264014 22265512 22268618 22276254 22290800 
2393.401 22311694 22336284 22360354 22379890 22392414 22398170 22398938 
2396.776 22397438 22395448 22393774 22391508 22387320 22380238 22370156 
2400.151 22358052 22345320 22332866 22321250 22310542 22300810 22292754 
2403.526 22287662 22286614 22290940 22300112 22313368 22328960 22345320 
2406.902 22361506 22376924 22391296 22403612 22412370 22416244 22414290 
2410.277 22407696 22398834 22391786 22390356 22396670 22410766 22430338 
2413.652 22452076 22473326 22492552 22509930 22526926 22544200 22562000 
2417.027 22579032 22593482 22604442 22611910 22616798 22621300 22626082 
2420.403 22631388 22636136 22638754 22638614 22635856 22632330 22629678 
2423.778 22628876 22629748 22630620 22629782 22626188 22620672 22615018 
2427.153 22611702 22611946 22615366 22620322 22624582 22626222 22625418 
2430.528 22623394 22621894 22621928 22623186 22623464 22620952 22614004 
2433.904 22603080 22590550 22578718 22569644 22563396 22558092 22550482 
2437.279 22538268 22520154 22496426 22469348 22440736 22412160 22384250 
2440.654 22357146 22331330 22308168 22289752 22277616 22272140 22271896 
2444.029 22273918 22274966 22272176 22264850 22254282 22242878 22232798 
2447.405 22225614 22221080 22218014 22215294 22212328 22208842 22205528 
2450.780 22202286 22198518 22193220 22185478 22174982 22162776 22150678 
2454.155 22140358 22132512 22126968 22122262 22117136 22110966 22104690 
2457.530 22100052 22098762 22101762 22108246 22116612 22124528 22131152 
2460.906 22136488 22142102 22149456 22159534 22172192 22185686 22198136 
2464.281 22208806 22217594 22226034 22235624 22247762 22262338 22278278 
2467.656 22294670 22310438 22325890 22341098 22356446 22371274 22383622 
2471.031 22391052 22392066 22386344 22375564 22363180 22352262 22344796 
2474.406 22341098 22339528 22338168 22335516 22331680 22327946 22325994 
2477.782 22326866 22330180 22334748 22338656 22340644 22340504 22339388 
2481.157 22338378 22338412 22339144 22339668 22339144 22337330 22335272 
2484.532 22334992 22338238 22346086 22358296 22373472 22389972 22406684 
2487.907 22423708 22441608 22461112 22482292 22504034 22525006 22543642 
2491.283 22559346 22572364 22583394 22592538 22599206 22601578 22597600 
2494.658 22586256 22568666 22547236 22526122 22509372 22498798 22494786 
2498.033 22495588 22499148 22503440 22508082 22513246 22519492 22526682 
2501.408 22533556 22538546 22540396 22539070 22535894 22533102 22532474 
2504.784 22534324 22537324 22538790 22536138 22527904 22514780 22499148 
2508.159 22483618 22470708 22461252 22454518 22449318 22443840 22437456 
2511.534 22430302 22422522 22414462 22405914 22396462 22385716 22374272 
2514.909 22363040 22352818 22344202 22336284 22327390 22315982 22301404 
2518.285 22284592 22268302 22255362 22248006 22246714 22249400 22252678 
2521.660 22253586 22249992 22241832 22230288 22217070 22202984 22187814 
2525.035 22170448 22149492 22125122 22098274 22071082 22045634 22022696 
2528.410 22001714 21980730 21957936 21932076 21903500 21873392 21843566 
2531.786 21814890 21787472 21760334 21732708 21704216 21675446 21648138 
2535.161 21623692 21602868 21585594 21570550 21556308 21542034 21527234 
2538.536 21511952 21496146 21479294 21460670 21439608 21416390 21392058 
2541.911 21369226 21350224 21336372 21327358 21321058 21314898 21305954 
2545.287 21293184 21276688 21258212 21239770 21222406 21206892 21193252 
2548.662 21181318 21171544 21165142 21162812 21164968 21170812 21178918 
2552.037 21187408 21195514 21203828 21214372 21229020 21249512 21275020 
2555.412 21303832 21332684 21358820 21381234 21400378 21417956 21435882 
2558.788 21455274 21475986 21496806 21516406 21534234 21550634 21567138 
2562.163 21584862 21604606 21625990 21648000 21669594 21690422 21710694 
2565.538 21731106 21752392 21774372 21796078 21816494 21834680 21850814 
2568.913 21865728 21880990 21897542 21915452 21933680 21950478 21964698 
2572.289 21976026 21985332 21994846 22005862 22019524 22035872 22054208 
2575.664 22073070 22091896 22110408 22128538 22146040 22162394 22175992 
2579.039 22185722 22190674 22190918 22187360 22181746 22175400 22169018 
2582.414 22162288 22154478 22144960 22134048 22122402 22111524 22102772 
2585.790 22097020 22094476 22095032 22098380 22104690 22114348 22127562 
2589.165 22144228 22163510 22184222 22204796 22224150 22242076 22258644 
2592.540 22274302 22289508 22304018 22317726 22330460 22342774 22355680 
2595.915 22370330 22387216 22406266 22425734 22443424 22457274 22465858 
2599.291 22469172 22468476 22465368 22461044 22455950 22449668 22441398 
2602.666 22431072 22419138 22407032 22396182 22387496 22381180 22376226 
2606.041 22371202 22365064 22357702 22349716 22342390 22336772 22333528 
2609.416 22332274 22332030 22331646 22330424 22327668 22323552 22317902 
2612.792 22310750 22302588 22293206 22283440 22274232 22266490 22260874 
2616.167 22257316 22255154 22253202 22250516 22246680 22241726 22236566 
2619.542 22231754 22227498 22223628 22219548 22214386 22208006 22200506 
2622.917 22192416 22184188 22175922 22167136 22157546 22147016 22135894 
2626.292 22125122 22115708 22108350 22103016 22098554 22093604 22087224 
2629.668 22079066 22069792 22060902 22053720 22049120 22047204 22047516 
2633.043 22049260 22051944 22055882 22061460 22069410 22079658 22092244 
2636.418 22106014 22120554 22135440 22150888 22167658 22186070 22206574 
2639.793 22228544 22251456 22274616 22298020 22322086 22347134 22373540 
2643.169 22400892 22428140 22453820 22476570 22495764 22511606 22525112 
2646.544 22537396 22549576 22561930 22574530 22587304 22600216 22613236 
2649.919 22626920 22640986 22655126 22668250 22679386 22687592 22692932 
2653.294 22696006 22697680 22698832 22699740 22700194 22699460 22697120 
2656.670 22693142 22688360 22684378 22682390 22683472 22687732 22694572 
2660.045 22703266 22713148 22724214 22737342 22753262 22773166 22797400 
2663.420 22825580 22856976 22890192 22923934 22956768 22987824 23016262 
2666.795 23041802 23064130 23083906 23101378 23116998 23131326 23144362 
2670.171 23155686 23164912 23171412 23175502 23177844 23179766 23182630 
2673.546 23187698 23195634 23206504 23220066 23235794 23253446 23272640 
2676.921 23293334 23315220 23337874 23360986 23384344 23408052 23432740 
2680.296 23459146 23487684 23518184 23549736 23581288 23611620 23640238 
2683.672 23667286 23693704 23720366 23747908 23776572 23805972 23835478 
2687.047 23865162 23895092 23926392 23960004 23996768 24036760 24079800 
2690.422 24124982 24172166 24221282 24273030 24328114 24387096 24449766 
2693.797 24515672 24584532 24656242 24731474 24811208 24896712 24988934 
2697.173 25087812 25192332 25300948 25412088 25524768 25637932 25751126 
2700.548 25863506 25973876 26080366 26180866 26273434 26356512 26429292 
2703.923 26491554 26543362 26584750 26615820 26636852 26648304 26651368 
2707.298 26647668 26638650 26626178 26611208 26594228 26575452 26555338 
2710.674 26534100 26512580 26491730 26472502 26455492 26441020 26429680 
2714.049 26421898 26418130 26418622 26423624 26432462 26444364 26458204 
2717.424 26473592 26490744 26510924 26535402 26565236 26600778 26640692 
2720.799 26682972 26725182 26765460 26803064 26838062 26871302 26903448 
2724.175 26934578 26963486 26989294 27010204 27025860 27036650 27043880 
2727.550 27049096 27053858 27059076 27065036 27071560 27078402 27084890 
2730.925 27090852 27095682 27099032 27100302 27099632 27097128 27093566 
2734.300 27090394 27088558 27088876 27091274 27095224 27099702 27104146 
2737.676 27108414 27113246 27119522 27128482 27140826 27157404 27178076 
2741.051 27202872 27231764 27264646 27301656 27342658 27387510 27435932 
2744.426 27487818 27543170 27601814 27663820 27728484 27794604 27860912 
2747.801 27925924 27988646 28049470 28109418 28170224 28233974 28302010 
2751.177 28375258 28453966 28538386 28628200 28724300 28826758 28935616 
2754.552 29049744 29167234 29285924 29403478 29518616 29630982 29741566 
2757.927 29851966 29963318 30076510 30191364 30307316 30423688 30539806 
2761.302 30655602 30771214 30886574 31001322 31115212 31227600 31338162 
2764.677 31447120 31554426 31660512 31765022 31867344 31965944 32059648 
2768.053 32147628 32229732 32306538 32378894 32447904 32513570 32576174 
2771.428 32635036 32689902 32741028 32788980 32834434 32878354 32921460 
2774.803 32964352 33007644 33052694 33100892 33154570 33215332 33284764 
2778.178 33363116 33449784 33543554 33642932 33746880 33854616 33965884 
2781.554 34080592 34198624 34320168 34445188 34574052 34707472 34846424 
2784.929 34991460 35142580 35299316 35460000 35622856 35786212 35948224 
2788.304 36107596 36263316 36414480 36560112 36699516 36832404 36959556 
2791.679 37082272 37203004 37323908 37447016 37573412 37702768 37834156 
2795.055 37965872 38096540 38224896 38350688 38473468 38593136 38710052 
2798.430 38823984 38935380 39044628 39152484 39259248 39365164 39469840 
2801.805 39572288 39671200 39765384 39853848 39936188 40012372 40082788 
2805.180 40148052 40208932 40265928 40319628 40370568 40418860 40464536 
2808.556 40507056 40545684 40579332 40607640 40630524 40649116 40665016 
2811.931 40680332 40697292 40717196 40741032 40769240 40801560 40837592 
2815.306 40876728 40918448 40961812 41005580 41048660 41089600 41127444 
2818.681 41161248 41190756 41215892 41236732 41253708 41266936 41276848 
2822.057 41283736 41288324 41290952 41291644 41290328 41286540 41280200 
2825.432 41271344 41261328 41251816 41245476 41244712 41251196 41266136 
2828.807 41289640 41321196 41359968 41405748 41458672 41518936 41587152 
2832.182 41663844 41749776 41845796 41953512 42074692 42212300 42368980 
2835.558 42547136 42748212 42972356 43218612 43485296 43770428 44072764 
2838.933 44392048 44729052 45085168 45462516 45863276 46289140 46741176 
2842.308 47219796 47724316 48253752 48805488 49376404 49961532 50553928 
2845.683 51144788 51722372 52272668 52780548 53228652 53600244 53880060 
2849.059 54054780 54115724 54058416 53884448 53600392 53217824 52752452 
2852.434 52221096 51641312 51029660 50399028 49759616 49118252 48478164 
2855.809 47841608 47209532 46582576 45962196 45349876 44747416 44156904 
2859.184 43580160 43019404 42477416 41957124 41461956 40995456 40560196 
2862.560 40157904 39789388 39454200 39152084 38882252 38644236 38437992 
2865.935 38263288 38119508 38005324 37919080 37858380 37820816 37803900 
2869.310 37804912 37821284 37850244 37888924 37934048 37982396 38031036 
2872.685 38077476 38119800 38156948 38188676 38215672 38239588 38262492 
2876.061 38286916 38314892 38347900 38386552 38430572 38479152 38531324 
2879.436 38586620 38644780 38705772 38769640 38835980 38903524 38970680 
2882.811 39035708 39096828 39153172 39204448 39251560 39295264 39337196 
2886.186 39378588 39420748 39464688 39511136 39560272 39611960 39665324 
2889.562 39719196 39772428 39823996 39873388 39920712 39966228 40010008 
2892.937 40051648 40090452 40125264 40155176 40179600 40198976 40214600 
2896.312 40228124 40241612 40256516 40273856 40294360 40318464 40346312 
2899.687 40378240 40414604 40455880 40501888 40552888 40608692 40669564 
2903.063 40736084 40809348 40890888 40982568 41086572 41205800 41343388 
2906.438 41503296 41689920 41908700 42164832 42463932 42811436 43211876 
2909.813 43669000 44184600 44757992 45384928 46057460 46764384 47490580 
2913.188 48218504 48931040 49609976 50239048 50805192 51297340 51708156 
2916.563 52034184 52274948 52433992 52516996 52532704 52490412 52399152 
2919.939 52267696 52102356 51907992 51687332 51441636 51170616 50872912 
2923.314 50546412 50188056 49794768 49364264 48895364 48389000 47848228 
2926.689 47278388 46686124 46078528 45463176 44847224 44237460 43641084 
2930.064 43065392 42517608 42005116 41533956 41109048 40733716 40409184 
2933.440 40135624 39911668 39734812 39601688 39506996 39445380 39409792 
2936.815 39392920 39388384 39389944 39393028 39394840 39393284 39387840 
2940.190 39378264 39365164 39349168 39331428 39312860 39294940 39278796 
2943.565 39266064 39258596 39258520 39268276 39290148 39326352 39378768 
2946.941 39448864 39537772 39646664 39776748 39928452 40101068 40292068 
2950.316 40495560 40702532 40901664 41079072 41221504 41317548 41358476 
2953.691 41339996 41261508 41125876 40938148 40705116 40434460 40133228 
2957.066 39808920 39468316 39117748 38762504 38407912 38058200 37717512 
2960.442 37389556 37077328 36783136 36507924 36251792 36013128 35790204 
2963.817 35580456 35381988 35193380 35013404 34841260 34676284 34517724 
2967.192 34364564 34216372 34072888 33934856 33803072 33678664 33562564 
2970.567 33455472 33357102 33267162 33185114 33110228 33042290 32981332 
2973.943 32927822 32882750 32847692 32824498 32815174 32821496 32844548 
2977.318 32884288 32939796 33009362 33091060 33183000 33284012 33393208 
2980.693 33510052 33633804 33763392 33897244 34033468 34170304 34306220 
2984.068 34439740 34569348 34693188 34808876 34913856 35005648 35082152 
2987.444 35142796 35187272 35216520 35231216 35231720 35217776 35188568 
2990.819 35142864 35080320 35001192 34907464 34801944 34688844 34573044 
2994.194 34459360 34352336 34255592 34171736 34101556 34044968 34000568 
2997.569 33966964 33942560 33927084 33920992 33925472 33941848 33971044 
3000.945 34012752 34065968 34128508 34197980 34272012 34348568 34426216 
3004.320 34503696 34580544 34656400 34731772 34807512 34884808 34965136 
3007.695 35049324 35137692 35229564 35323580 35418472 35512816 35606280 
3011.070 35698576 35790280 35881752 35973168 36064428 36155308 36245704 
3014.446 36335936 36426660 36518516 36611912 36707052 36803620 36901004 
3017.821 36998916 37097320 37196612 37297480 37400392 37506036 37614528 
3021.196 37726080 37840804 37958712 38079720 38202896 38327016 38449940 
3024.571 38569672 38684768 38794712 38900044 39002720 39104696 39207640 
3027.947 39312168 39417660 39523148 39627352 39729656 39830496 39930852 
3031.322 40032424 40135916 40241976 40350060 40459556 40569692 40680264 
3034.697 40791732 40905120 41021932 41143508 41271164 41406040 41548796 
3038.072 41699988 41859660 42027676 42203320 42385348 42572316 42762656 
3041.448 42955056 43147904 43339704 43528660 43712164 43886912 44049480 
3044.823 44196080 44323644 44430184 44515672 44581428 44630960 44669040 
3048.198 44700772 44731256 44764972 44804864 44852184 44907184 44968624 
3051.573 45035256 45105756 45179320 45255360 45333984 45414836 45497464 
3054.948 45581108 45664912 45748212 45830464 45911848 45992436 46072380 
3058.324 46151596 46229836 46306904 46382260 46456444 46529572 46602604 
3061.699 46675904 46749920 46824024 46897804 46970896 47042672 47113276 
3065.074 47182528 47250236 47315556 47377448 47434508 47485960 47531904 
3068.449 47573568 47612980 47652692 47694548 47739408 47786972 47836280 
3071.825 47885668 47934508 47982720 48031568 48082792 48138724 48200952 
3075.200 48270564 48347480 48430744 48518584 48608884 48699392 48788208 
3078.575 48874044 48956404 49035560 49112536 49188304 49263824 49339060 
3081.950 49413384 49485004 49551816 49611016 49660568 49698648 49724804 
3085.326 49739556 49744272 49741560 49734684 49727068 49721644 49721052 
3088.701 49726624 49738772 49757200 49781316 49811044 49846608 49888940 
3092.076 49938820 49996888 50062884 50135840 50214168 50296560 50382176 
3095.451 50471336 50564724 50663644 50768244 50877864 50990160 51101884 
3098.827 51209012 51308008 51396580 51473716 51540004 51597128 51647920 
3102.202 51695428 51742532 51792180 51846572 51907696 51976632 52054060 
3105.577 52140092 52234136 52335976 52444948 52560900 52684776 52817816 
3108.952 52962876 53123600 53305064 53513844 53756816 54042320 54378712 
3112.328 54774144 55236644 55773364 56389780 57090348 57876924 58748780 
3115.703 59701124 60724216 61802712 62911652 64018832 65083416 66054508 
3119.078 66879608 67505344 67882536 67975832 67764792 67248176 66442960 
3122.453 65383784 64118020 62696472 61174032 59601948 58022316 56473092 
3125.829 54984084 53577492 52270424 51073260 49989972 49018680 48152384 
3129.204 47380776 46691548 46073116 45515460 45010372 44552128 44136328 
3132.579 43759360 43418720 43111384 42834580 42585472 42360872 42157160 
3135.954 41970736 41797784 41634592 41478176 41325860 41175524 41025648 
3139.330 40875232 40723672 40571256 40418824 40267968 40120252 39977420 
3142.705 39840264 39708488 39581072 39456232 39332408 39208148 39082980 
3146.080 38956364 38828116 38697912 38565144 38429776 38291876 38152792 
3149.455 38014508 37878768 37746936 37619224 37494368 37369948 37243540 
3152.831 37112984 36977524 36837488 36694072 36548940 36403456 36258564 
3156.206 36114580 35971908 35830580 35690804 35552588 35415852 35280088 
3159.581 35144372 35008124 34870912 34732812 34594396 34456564 34319880 
3162.956 34184824 34051672 33920168 33790572 33662624 33536430 33411742 
3166.332 33287984 33164368 33040322 32915420 32790088 32665468 32542672 
3169.707 32423160 32307108 32194440 32084048 31975042 31866416 31758070 
3173.082 31650570 31544592 31440742 31339660 31240916 31144186 31048618 
3176.457 30953604 30858860 30763604 30667336 30569596 30469712 30367682 
3179.833 30263794 30159114 30054884 29952170 29851648 29753276 29656734 
3183.208 29561282 29466520 29372490 29279436 29187928 29098246 29010352 
3186.583 28923398 28836638 28749258 28660622 28570870 28480004 28388382 
3189.958 28296106 28203566 28110940 28018652 27927054 27836854 27747980 
3193.333 27660182 27572860 27484466 27393722 27299538 27201496 27100126 
3196.709 26996558 26892098 26788402 26686848 26588274 26493174 26401828 
3200.084 26314126 26229610 26148172 26069352 25992624 25917772 25843990 
3203.459 25770570 25696636 25621516 25544236 25464646 25383248 25300880 
3206.834 25219228 25139980 25064610 24993848 24928046 24866360 24807770 
3210.210 24750870 24694504 24637586 24579308 24519248 24457304 24394036 
3213.585 24330182 24267004 24205552 24146454 24089466 24033538 23976774 
3216.960 23917640 23855080 23788960 23720366 23651330 23583808 23519372 
3220.335 23458656 23401514 23347350 23295118 23244218 23194096 23144572 
3223.711 23095088 23045470 22995370 22944612 22893336 22842240 22791708 
3227.086 22742090 22693282 22645210 22597564 22550482 22505080 22462682 
3230.461 22425000 22392694 22365692 22342074 22318984 22293520 22263106 
3233.836 22226802 22184920 22139242 22092208 22046016 22002654 21963200 
3237.212 21928174 21897542 21870954 21847572 21826460 21806040 21784858 
3240.587 21761554 21735358 21705958 21673948 21640026 21605094 21569680 
3243.962 21534408 21499242 21464464 21430278 21396688 21363518 21330176 
3247.337 21296070 21260648 21223764 21186014 21148270 21111848 21077622 
3250.713 21045868 21016306 20987790 20959274 20930034 20899992 20869364 
3254.088 20838910 20808910 20779052 20748850 20717538 20684418 20649322 
3257.463 20612492 20574274 20535470 20496738 20458322 20420952 20385146 
3260.838 20351324 20319902 20290944 20263900 20237864 20212314 20186766 
3264.214 20161324 20137306 20115718 20097882 20084730 20075984 20071196 
3267.589 20069148 20068350 20067274 20064428 20057696 20045586 20026746 
3270.964 20000686 19967728 19929776 19889052 19848192 19808828 19771860 
3274.339 19736734 19702650 19668534 19634108 19600034 19567104 19536152 
3277.715 19506904 19478380 19448858 19416946 19381812 19344016 19305354 
3281.090 19267944 19233862 19204320 19179630 19159198 19142402 19128482 
3284.465 19116606 19106356 19096766 19086900 19075784 19063080 19049368 
3287.840 19036110 19025482 19018974 19017036 19018558 19021018 19020982 
3291.216 19015824 19003848 18985190 18961444 18934552 18906274 18877446 
3294.591 18848102 18817410 18784540 18749424 18712236 18674046 18636000 
3297.966 18599372 18564928 18533670 18506526 18484708 18469702 18462720 
3301.341 18464724 18475650 18494528 18519284 18546636 18572882 18593942 
3304.717 18605598 18604596 18588652 18557148 18510812 18452278 18385282 
3308.092 18313458 18240644 18169640 18102170 18039060 17980798 17927650 
3311.467 17880036 17838502 17803566 17775400 17753964 17738672 17728904 
3314.842 17723452 17721414 17721588 17722624 17723796 17724142 17723590 
3318.218 17722624 17722382 17724488 17729976 17739776 17753998 17771844 
3321.593 17792004 17813716 17835672 17857594 17878482 17897646 17913976 
3324.968 17926374 17934040 17937044 17936490 17934524 17933934 17937112 
3328.343 17945746 17959904 17978518 17999514 18020892 18040718 18057884 
3331.719 18072082 18083482 18092428 18099300 18104380 18107662 18109320 
3335.094 18109354 18107522 18103412 18095952 18083964 18065968 18040718 
3338.469 18007804 17967294 17920572 17869300 17815304 17760074 17704296 
3341.844 17647734 17589902 17529870 17467052 17401416 17333546 17265068 
3345.219 17197428 17132454 17071726 17015936 16965180 16918670 16874750 
3348.595 16831176 16785230 16734263 16676450 16610932 16538300 16460482 
3351.970 16380684 16302448 16228629 16161596 16101727 16048433 16000303 
3355.345 15955647 15913267 15872436 15833363 15795872 15760103 15725335 
3358.720 15690431 15654087 15615341 15573852 15530100 15485014 15439691 
3362.096 15395300 15352940 15313433 15277634 15246576 15221010 15201622 
3365.471 15188034 15178975 15172112 15164495 15152761 15134919 15108914 
3368.846 15074540 15031936 14981790 14925341 14863379 14797415 14729335 
3372.221 14661472 14596703 14537529 14486276 14443696 14409579 14382179 
3375.597 14359609 14339334 14319849 14299953 14279510 14258897 14238833 
3378.972 14219797 14202234 14185904 14170362 14154478 14137499 14118604 
3382.347 14097246 14073664 14048372 14022637 13997588 13974833 13955158 
3385.722 13939556 13928368 13921730 13919643 13921833 13927615 13936066 
3389.098 13945236 13953037 13956971 13954884 13944997 13926896 13900792 
3392.473 13868189 13831109 13791841 13752373 13714686 13679499 13647733 
3395.848 13619903 13596449 13577543 13563322 13553853 13548179 13545341 
3399.223 13543290 13539940 13533206 13521481 13504014 13480909 13453260 
3402.599 13422365 13389662 13356073 13322213 13288184 13254706 13222288 
3405.974 13192332 13166307 13145643 13130412 13120303 13113542 13108248 
3409.349 13102375 13095067 13085642 13074749 13062934 13050506 13037463 
3412.724 13023054 13006768 12988264 12968122 12947162 12926850 12908042 
3416.100 12891283 12876572 12862954 12849746 12835822 12820567 12803265 
3419.475 12783950 12762351 12739114 12715299 12692747 12672755 12657097 
3422.850 12646112 12639017 12634309 12629397 12622541 12612819 12600471 
3426.225 12587032 12574344 12563464 12554664 12546684 12537987 12526664 
3429.601 12511898 12493858 12473704 12452836 12432310 12412603 12393510 
3432.976 12374418 12354987 12335556 12316705 12299286 12284357 12271781 
3436.351 12261078 12251092 12240595 12228462 12214080 12197041 12177412 
3439.726 12155196 12130731 12104291 12076218 12047738 12019805 11993372 
3443.102 11969257 11947629 11928149 11910269 11893106 11875738 11857554 
3446.477 11838146 11817479 11795552 11773116 11750579 11728724 11707756 
3449.852 11687638 11667693 11646591 11623346 11597210 11568353 11537932 
3453.227 11507650 11479581 11455018 11434301 11416884 11401441 11386712 
3456.603 11372359 11358515 11346169 11335966 11327702 11320049 11311071 
3459.978 11298148 11279887 11256185 11228745 11200694 11175297 11154898 
3463.353 11140348 11130388 11122536 11113595 11101256 11084124 11062508 
3466.728 11037730 11011832 10986277 10962388 10939995 10918656 10897455 
3470.104 10875745 10853832 10832123 10811673 10793501 10777841 10764527 
3473.479 10752436 10739801 10724891 10706415 10683866 10657888 10629671 
3476.854 10601421 10575108 10552498 10534064 10519365 10507314 10495841 
3480.229 10482942 10467532 10449000 10427923 10405931 10384449 10364834 
3483.604 10347766 10332258 10317024 10299821 10278887 10252933 10222164 
3486.980 10187224 10150524 10114166 10080660 10051835 10029082 10012908 
3490.355 10003177 9999142 9999041 10000329 10000227 9996091 9986021 9969205 
3494.212 9946490 9919777 9892081 9865846 9843238 9825139 9811243 9801381 
3498.070 9794739 9790706 9788672 9787893 9786842 9783385 9775049 9760139 
3501.927 9737875 9709921 9679020 9649681 9625797 9610248 9603676 9605200 
3505.785 9612382 9621426 9629693 9634639 9634706 9629455 9619361 9605539 
3509.642 9590025 9575222 9563197 9555779 9553240 9554289 9556694 9556897 
3513.500 9552392 9541350 9524077 9502402 9479712 9459799 9445610 9438838 
3517.357 9440057 9448659 9463118 9481777 9503181 9525432 9546939 9566043 
3521.214 9580947 9590634 9594666 9593818 9589788 9584706 9580709 9579388 
3525.072 9581116 9585248 9590702 9595986 9599984 9602117 9602491 9601914 
3528.929 9601339 9602287 9606149 9613737 9626102 9643447 9665163 9690269 
3532.787 9716697 9742619 9765459 9783250 9794874 9800093 9799686 9795315 
3536.644 9788842 9782775 9778777 9778540 9783149 9793011 9807854 9827206 
3540.501 9849779 9873878 9897674 9919200 9936353 9947473 9951270 9946422 
3544.359 9932421 9908861 9876387 9836798 9793180 9750074 9712157 9683425 
3548.216 9666282 9660014 9661301 9664824 9664791 9656185 9636874 9607809 
3552.074 9572851 9537151 9505518 9480964 9464100 9452485 9443172 9432913 
3555.931 9419504 9401625 9379753 9354191 9325754 9294711 9261674 9227252 
3559.789 9193001 9160784 9133206 9112530 9100451 9097068 9101060 9108809 
3563.646 9115474 9114967 9100383 9066448 9010051 8932084 8838676 8739946 
3567.503 8648743 8575369 8526538 8502209 8497647 8504641 8514407 8520692 
3571.361 8519239 8509136 8491633 8469231 8443588 8415954 8386766 8356062 
3575.218 8324683 8293746 8264905 8239713 8218979 8202805 8189874 8178697 
3579.076 8168501 8158608 8149154 8140545 8133658 8128561 8125590 8124442 
3582.933 8124813 8126164 8127379 8126569 8120931 8107191 8082616 8046025 
3586.791 7999278 7947070 7896758 7856472 7831641 7824995 7835521 7859475 
3590.648 7891394 7925507 7956756 7980210 7992191 7990470 7973663 7943122 
3594.505 7901280 7852862 7802865 7755571 7714084 7679514 7650882 7626400 
3598.363 7604145 7583037 7563313 7546691 7534959 7530542 7533779 7544567 
3602.220 7561054 7581385 7602897 7624107 7643194 7658672 7667913 7668689 
3606.078 7657560 7631695 7590388 7535363 7471884 7407741 7351930 7310853 
3609.935 7287367 7279617 7281335 7284738 7282582 7270317 7247575 7218096 
3613.792 7188349 7165240 7153047 7152407 7159581 7167666 7168104 7152407 
3617.650 7114412 7051971 6968698 6872614 6776148 6692153 6630816 6597678 
3621.507 6592397 6610664 6645350 6688755 6734620 6779514 6821955 6862482 
3625.365 6900757 6933649 6954658 6952739 6915705 6835149 6711939 6561179 
3629.222 6408723 6283852 6205094 6176123 6187113 6221093 6260085 6288793 
3633.080 6298845 6288693 6263211 6230236 6198507 6173569 6157134 6147523 
3636.937 6142079 6137878 6133879 6130081 6126990 6125175 6124066 6122823 
3640.794 6120907 6118790 6118790 6124805 6140499 6168494 6208522 6258169 
3644.652 6311284 6360707 6398904 6419416 6417230 6390363 6339222 6266304 
3648.509 6176492 6075779 5972771 5877008 5799567 5749302 5731641 5746246 
3652.367 5787076 5844096 5904113 5954262 5983555 5985201 5958864 5912207 
3656.224 5858805 5813906 5788822 5788520 5809977 5845003 5883255 5916036 
3660.082 5937299 5944957 5940825 5929338 5916607 5908076 5908345 5920067 
3663.939 5944117 5980464 6027598 6084246 6148061 6216018 6284221 6346922 
3667.796 6398769 6435053 6456139 6468683 6488291 6536994 6634450 6794154 
3671.654 7016411 7290703 7596862 7908670 8197504 8429467 8572462 8602912 
3675.511 8515015 8325595 8065636 7769367 7460659 7153080 6855076 6574399 
3679.369 6321437 6108944 5946032 5836372 5774652 5749973 5748898 5760415 
3683.226 5779017 5803664 5835902 5876706 5922586 5966288 5997462 6005290 
3687.083 5982312 5927826 5849066 5759307 5672823 5601359 5549808 5517557 
3690.941 5501551 5498598 5506215 5522792 5546317 5573569 5600151 5622169 
3694.798 5636368 5642208 5641470 5638416 5637442 5641940 5652581 5667284 
3698.656 5681887 5691119 5690112 5676415 5650063 5614348 5575516 5541519 
3702.513 5519504 5515276 5531115 5566353 5617202 5678395 5743694 5807693 
3706.371 5865892 5915297 5954094 5981405 5996387 5997799 5983756 5952817 
3710.228 5904751 5841778 5769380 5696154 5632474 5587095 5565615 5568635 
3714.085 5592431 5629722 5673058 5715089 5750477 5777036 5795235 5807693 
3717.943 5818003 5829051 5841611 5854205 5863507 5866127 5860015 5845708 
3721.800 5827137 5808735 5796109 5791878 5795672 5804235 5812596 5816626 
3725.658 5815383 5810481 5808365 5816357 5840569 5883490 5942706 6011942 
3729.515 6081592 6141641 6184693 6205968 6207010 6192558 6170241 6145775 
3733.373 6119832 6088178 6043994 5981640 5901862 5812697 5728384 5664330 
3737.230 5630729 5629554 5656341 5703373 5763941 5833920 5912543 5999445 
3741.087 6091639 6181197 6253228 6287987 6266774 6180727 6041810 5884464 
3744.945 5756621 5695349 5711061 5789493 5902265 6018661 6110927 6160596 
3748.802 6159689 6112204 6030588 5931655 5830932 5738188 5659832 5600688 
3752.660 5565581 5558298 5579408 5624385 5684237 5747522 5803328 5843559 
3756.517 5864448 5866731 5854607 5832577 5804470 5772906 5740035 5709818 
3760.375 5688500 5682559 5696423 5729828 5776767 5827271 5869116 5893835 
3764.232 5897798 5884565 5863406 5845607 5839797 5847655 5864515 5881039 
3768.089 5887722 5877882 5850007 5808466 5761758 5719320 5688064 5671547 
3771.947 5669097 5678328 5695349 5717305 5741411 5766358 5791273 5815652 
3775.804 5838588 5858940 5874053 5881274 5877579 5861694 5834693 5801313 
3779.662 5768507 5744232 5733824 5738759 5755714 5778614 5800104 5814779 
3783.519 5819816 5816492 5808197 5799668 5794161 5793019 5794900 5798056 
3787.376 5800272 5801246 5800877 5800608 5801447 5804134 5809440 5817969 
3791.234 5831099 5850174 5876068 5907908 5942908 5976096 6001930 6016108 
3795.091 6017418 6008885 5997529 5992423 6000856 6025683 6063649 6105853 
3798.949 6139558 6150245 6126217 6061902 5962458 5844297 5732648 5651876 
3802.806 5616195 5626298 5671145 5732279 5788687 5822032 5820924 5784222 
3806.664 5722341 5654226 5601460 5577630 5585786 5619350 5667385 5719353 
3810.521 5769313 5816223 5863238 5914156 5970251 6027934 6078568 6110893 
3814.378 6114489 6084818 6027262 5958460 5900922 5873112 5884195 5929271 
3818.236 5993364 6054947 6092882 6089723 6037543 5942370 5825021 5715727 
3822.093 5640430 5613476 5632978 5685412 5750913 5810279 5850745 5866160 
3825.951 5860015 5841846 5825122 5821092 5834659 5864044 5902366 5940859 
3829.808 5971192 5988795 5993364 5988694 5981102 5977172 5982916 6001091 
3833.666 6032201 6072956 6117950 6158546 6184827 6188255 6162848 6108608 
3837.523 6032436 5947208 5867840 5806149 5768004 5751853 5751786 5759307 
3841.380 5767198 5770992 5768977 5762127 5753095 5745642 5742620 5747287 
3845.238 5761792 5787546 5824752 5872474 5928867 5991953 6059785 6131123 
3849.095 6205061 6279818 6351259 6410774 6445512 6439694 6377989 6254001 
3852.953 6077425 5878419 5697497 5569239 5509437 5512557 5560849 5633246 
3856.810 5713679 5790467 5857832 5913484 5957419 5990038 6012009 6024574 
3860.667 6029748 6030387 6029513 6029043 6028035 6024272 6014562 5998437 
3864.525 5979725 5966288 5967732 5990878 6035628 6094125 6151220 6190978 
3868.382 6198775 6168494 6105819 6028438 5959704 5917279 5907404 5923829 
3872.240 5951877 5975559 5983319 5971730 5946469 5918992 5902332 5906329 
3876.097 5933368 5979255 6034351 6087136 6126519 6143692 6134282 6100577 
3879.955 6050882 5998672 5958427 5941867 5953321 5988795 6036837 6082734 
3883.812 6109952 6107029 6070604 6008146 5937265 5878688 5849603 5856522 
3887.669 5894204 5948753 6003375 6042482 6054544 6036098 5991617 5933301 
3891.527 5875833 5833282 5814410 5821394 5851484 5898974 5958158 6023163 
3895.384 6089455 6153001 6209598 6254841 6284692 6296189 6287919 6261967 
3899.242 6222740 6176862 6130753 6089186 6053872 6023264 5994070 5962962 
3903.099 5928565 5892391 5858402 5832174 5818976 5821159 5838655 5868242 
3906.957 5905792 5946166 5985335 6020039 6048261 6068992 6082331 6089153 
3910.814 6091437 6091538 6092546 6097049 6106895 6121916 6140566 6159151 
3914.671 6173770 6180862 6178576 6167418 6149909 6130148 6111969 6097990 
3918.529 6089018 6084448 6082969 6083574 6085994 6090194 6096780 6105181 
3922.386 6114489 6122251 6126721 6126284 6121378 6113615 6106390 6103097 
3926.244 6105987 6115564 6130552 6148027 6164729 6177434 6184256 6184323 
3930.101 6177534 6165032 6148665 6130317 6112674 6098527 6090530 6090597 
3933.958 6099367 6115698 6137004 6159084 6178341 6191213 6196591 6194574 
3937.816 6187886 6179416 6172123 6167553 6165906 6165906 6165402 6162948 
3941.673 6158243 6152396 6148094 6147959 6154211 6167116 6185062 6204590 
3945.531 6221295 6231480 6232219 6222169 6202574 6175955 6146178 6116976 
3949.388 6091807 6072587 6060121 6054846 6055787 6062406 6073561 6088312 
3953.246 6105315 6123360 6140969 6156832 6170107 6180761 6188995 6195650 
3957.103 6201498 6207346 6213598 6220253 6226740 6232858 6237631 6240656 
3960.960 6241429 6239513 6234538 6226942 6217363 6207178 6197969 6191549 
3964.818 6188894 6190743 6196288 6204288 6213094 6220925 6226337 6229060 
3968.675 6229093 6227278 6224421 6222001 6220757 6221732 6224891 6230505 
3972.533 6238001 6246269 6254673 6262673 6270035 6277363 6285633 6295752 
3976.390 6307922 6321538 6335255 6347090 6355159 6358588 6357613 6353948 
3980.248 6349510 6346283 6345577 6347358 6350620 6353848 6356000 6356538 
3984.105 6355932 6354857 6354554 6355562 6357815 6360942 6364204 6367297 
3987.962 6370020 6372777 6376174 6380847 6387202 6395037 6404217 6414103 
3991.820 6424326 6434280 6443326 6450960 6456644 6459636 6459636 6456778 
3995.677 6451464 6444537 6437307 6430682 6425469 6422006 6419786 6417869 
3999.535 6415314 6410572 6403141 
##END=
