
##TITLE=1132a_3_d
##JCAMP-DX=5.01  $$ Nicolet v. 1
##DATATYPE=INFRARED SPECTRUM
##ORIGIN=UniL
##OWNER=Nicolet
##LONGDATE=2011/09/21
##TIME=14:30:21
##SPECTROMETER/DATA SYSTEM=Nicolet iS5
##DATA PROCESSING=
Ratio against background
%Transmittance->Absorbance
Truncated
ElementMultiply or ElementDivide
##COMMENTS=
Number of sample scans: 32
Collection length: 51.19 sec
Sample gain: 2.0
Background collected on: Mer Sep 21 14:22:11 2011 (GMT+02:00);
Number of background scans: 32
Background gain: 2.0
Sample spacing:  1.000
Number of scan points: 12415
Resolution points: 8192
Number of FFT points: 65536
Apodization: N-B fort;
Phase correction: Mertz;
Laser frequency: 15798.0 cm-1
Number of rejected sample scans: 0
Number of rejected background scans: 0
Bench serial number: ASB1000141;
##RESOLUTION=4.000
##XUNITS=1/CM
##YUNITS=ABSORBANCE
##FIRSTX=649.893372
##LASTX=4000.122314
##FIRSTY=0.058971
##MAXX=4000.122314
##MINX=649.893372
##MAXY=0.308869
##MINY=0.003798
##XFACTOR=1.000000
##YFACTOR=1.000000E-009
##NPOINTS=6950
##DELTAX=0.482117
##ZPD=6100
##XYDATA=(X++(Y..Y))
649.893 58970560 59354620 59786820 60301556 60918836 61640272 62449904 
653.268 63323944 64242280 65196632 66192524 67245544 68374384 69595696 
656.643 70925136 72382816 73994232 75793416 77817432 80096176 82650352 
660.018 85487944 88604984 91983360 95578000 99304824 103015432 106513032 
663.393 109590848 112055488 113780112 114696104 114756640 113905256 
666.285 112062144 109177488 105334848 100865120 96319464 92229624 88902032 
669.660 86357632 84442400 82955304 81727928 80654360 79685528 78817528 
673.035 78068680 77462992 77013720 76718248 76562264 76526696 76596336 
676.410 76763040 77027600 77395552 77872648 78459776 79150536 79933920 
679.785 80801680 81754168 82807608 83990920 85344104 86907536 88713128 
683.159 90785904 93146112 95817504 98838384 102263496 106157320 110593304 
686.534 115640624 121362480 127820728 135070032 143141344 151996768 
689.427 161470896 171194208 180507024 188539840 194255408 196638416 
692.320 195013120 189167504 179475552 166783728 152291152 137306864 
695.212 122960504 110192392 99598360 91417960 85636064 82028360 80274560 
698.587 80023024 80988456 82991120 85948616 89844560 94644312 100187584 
701.962 106132184 111906528 116737960 119860200 120633856 118746736 
704.855 114313240 107846528 100138264 92009328 84222432 77311768 71530600 
708.229 66917524 63346492 60625492 58550168 56957732 55735052 54798836 
711.604 54089156 53555748 53154720 52856624 52648156 52529636 52506416 
714.979 52578252 52733336 52948616 53197300 53458340 53723476 53996508 
718.354 54287764 54604276 54945880 55303628 55666380 56027664 56391252 
721.729 56770168 57183132 57646352 58167612 58746352 59375364 60044476 
725.104 60742012 61455564 62167684 62853404 63483604 64029544 64473568 
728.478 64819448 65097080 65359868 65667712 66078156 66627332 67324200 
731.853 68154736 69092208 70113240 71205344 72371936 73627280 74987528 
735.228 76461496 78047344 79737400 81526608 83422088 85448568 87641952 
738.603 90043744 92687912 95592904 98764544 102203032 105914872 109923016 
741.978 114270480 119014320 124230024 130010040 136468896 143764192 
744.870 152081120 161593296 172387392 184340080 197001024 209439792 
747.763 220348528 228180736 231474096 229421792 222145264 210797408 
750.656 197154816 183285264 171074912 161799424 156171904 154252912 
753.548 155591024 159341056 164471008 170003824 175047808 178970000 
756.441 181408112 182195552 181313216 178804304 174726848 169141088 
759.334 162133328 153860800 144574128 134636720 124520216 114712712 
762.227 105705784 97927096 91655928 87031280 84018904 82437936 81984216 
765.601 82291184 83009936 83814536 84457248 84779784 84691264 84171632 
768.976 83255696 82028800 80609320 79134120 77746648 76560528 75648736 
772.351 75036360 74705512 74614776 74719960 74993080 75424704 76017952 
775.726 76776448 77693544 78750000 79921728 81186424 82533936 83965952 
779.101 85489320 87105864 88805720 90565072 92353832 94145512 95921720 
782.475 97675176 99403328 101099704 102748200 104321408 105784864 107107224 
785.850 108264032 109238832 110020112 110593688 110938560 111028440 
788.743 110836328 110343720 109548168 108463936 107118456 105541568 
791.636 103760760 101795208 99657376 97360328 94921968 92366296 89722656 
795.010 87016384 84266152 81483192 78676640 75862304 73070552 70343632 
798.385 67733032 65288192 63042080 61011064 59194764 57584040 56167580 
801.760 54936968 53883960 52995932 52252488 51625416 51082356 50595884 
805.135 50149228 49736508 49359144 49020312 48719256 48451012 48211472 
808.510 48004220 47844788 47762340 47794740 47976984 48336816 48886688 
811.885 49621568 50516704 51525196 52579300 53579888 54407700 54940240 
815.259 55060844 54695216 53826868 52506268 50839424 48965752 47036468 
818.634 45173620 43463068 41951212 40650064 39552616 38642792 37902196 
822.009 37308744 36835468 36454048 36134852 35855444 35605560 35385400 
825.384 35202616 35064408 34972100 34919352 34895828 34892204 34905704 
828.759 34940212 35003132 35099180 35226116 35374512 35532160 35690084 
832.133 35846700 36007868 36183648 36381768 36602864 36840880 37086964 
835.508 37335932 37590032 37860004 38158760 38497328 38878848 39298312 
838.883 39746796 40217840 40712248 41238920 41811244 42441132 43135060 
842.258 43892372 44709108 45582064 46512976 47508616 48577164 49722352 
845.633 50939040 52211232 53515004 54818048 56082820 57269128 58326748 
849.008 59199700 59832148 60171340 60185348 59873220 59271856 58452468 
852.382 57508044 56543096 55645440 54880152 54284424 53867004 53617488 
855.757 53512124 53522652 53617676 53766452 53943568 54129876 54315812 
859.132 54502204 54698408 54918204 55174376 55477420 55834476 56250548 
862.507 56731692 57283340 57906716 58591728 59311128 60017348 60641420 
865.882 61108844 61346560 61296344 60929888 60249744 59291872 58115600 
869.256 56801512 55440748 54120456 52926608 51931332 51185716 50723036 
872.631 50556128 50683528 51097336 51791056 52765136 54029488 55601940 
876.006 57505132 59762828 62390644 65387524 68718264 72303592 75999208 
879.381 79586784 82808208 85368912 86995088 87502024 86817080 85018776 
882.756 82313616 79023008 75513280 72123144 69155456 66822560 65246300 
886.131 64481564 64522544 65323392 66803352 68856968 71345704 74084256 
889.505 76857792 79409720 81457008 82745744 83063160 82286456 80411344 
892.880 77553616 73936328 69833240 65552100 61370412 57491628 54052228 
896.255 51106544 48647980 46632668 45001628 43696664 42662448 41851488 
899.630 41221100 40729532 40342132 40030900 39776856 39569600 39403512 
903.005 39272740 39169456 39083596 39005800 38931248 38861740 38804132 
906.379 38766380 38753592 38764532 38793156 38830944 38872288 38916824 
909.754 38969336 39036324 39121596 39224720 39340752 39463092 39587492 
913.129 39714296 39847856 39994240 40156632 40334532 40523604 40719600 
916.504 40921032 41131340 41357344 41606044 41880968 42179508 42493968 
919.879 42815932 43139708 43465300 43798024 44145460 44514424 44908652 
923.254 45330052 45781860 46271224 46810108 47411520 48082236 48814904 
926.628 49581748 50338492 51026304 51584780 51968488 52152344 52140500 
930.003 51963040 51672772 51333812 51008456 50756516 50624140 50641604 
933.378 50826124 51181132 51698600 52361508 53145880 54020372 54943960 
936.753 55871216 56751252 57534864 58187236 58692908 59064996 59342316 
940.128 59587432 59873524 60265736 60817512 61558712 62494896 63611904 
943.502 64880268 66260368 67699608 69136456 70500352 71709408 72685264 
946.877 73358224 73676504 73618608 73193408 72440712 71419824 70206160 
950.252 68881624 67521288 66197304 64970456 63884384 62968760 62234560 
953.627 61677656 61283104 61031844 60907168 60895844 60990016 61183644 
957.002 61469648 61838736 62279648 62781916 63338972 63949488 64617304 
960.377 65347924 66147296 67019036 67965688 68991176 70104360 71319424 
963.751 72657496 74142536 75796296 77635776 79668656 81893424 84300320 
967.126 86875720 89607752 92491448 95534152 98757184 102193440 105875336 
970.501 109820472 114009840 118374160 122778568 127019272 130862864 
973.394 134055808 136375328 137684992 137953408 137278512 135861808 
976.286 133999424 132022648 130234880 128905712 128212808 128228512 
979.179 128914896 130125288 131623848 133092168 134197728 134627088 
982.072 134123128 132547232 129884768 126251016 121851440 116956984 
984.964 111858600 106807720 102020408 97652856 93792752 90479488 87705976 
988.339 85435136 83609800 82167216 81049392 80202536 79583160 79156224 
991.714 78889968 78757512 78735424 78802672 78944208 79148912 79409560 
995.089 79720648 80076848 80471920 80899632 81354344 81832896 82334552 
998.464 82860736 83412896 83990920 84592784 85214344 85851664 86501240 
1001.839 87161872 87833936 88518616 89217112 89930632 90661008 91412112 
1005.213 92189968 93002872 93859000 94764544 95721920 96729184 97781072 
1008.588 98871584 99995952 101151480 102337256 103553160 104797656 106068440 
1011.963 107362464 108678360 110018488 111389272 112801344 114267496 
1014.856 115799312 117406880 119096824 120874160 122742560 124706280 
1017.748 126770272 128939416 131217704 133607088 136106304 138710096 
1020.641 141406096 144170848 146968544 149741152 152409168 154879440 
1023.534 157044224 158802832 160081424 160843552 161105728 160933824 
1026.427 160440208 159756608 159014704 158334064 157796368 157441808 
1029.320 157264016 157211184 157186208 157049808 156645456 155797552 
1032.213 154336304 152131248 149096608 145216256 140547504 135221136 
1035.106 129426720 123379560 117320400 111470216 106005968 101060944 
1037.999 96702768 92941960 89745184 87052824 84795616 82903728 81319304 
1041.374 79993112 78882576 77953760 77176272 76525392 75983616 75538592 
1044.750 75181712 74906032 74703072 74562960 74476304 74436416 74441608 
1048.125 74495224 74602896 74768448 74989344 75254056 75542376 75827784 
1051.500 76079104 76267768 76369088 76364744 76246920 76019416 75699216 
1054.875 75314536 74904960 74515440 74186480 73952280 73834480 73841152 
1058.250 73970584 74214232 74560440 74992496 75488608 76017880 76536224 
1061.626 76990968 77326224 77487232 77434640 77148888 76633488 75912976 
1065.001 75029240 74035768 72986392 71934736 70928536 70002664 69181840 
1068.376 68478224 67892536 67419232 67050704 66781520 66609988 66537140 
1071.751 66564024 66688636 66904344 67200640 67565144 67987808 68461544 
1075.127 68982472 69547936 70154048 70795256 71465488 72161640 72886728 
1078.502 73650792 74471544 75370576 76368376 77483744 78732568 80128808 
1081.877 81689784 83436584 85394040 87590832 90054960 92809176 95870680 
1085.252 99245272 102924968 106880768 111061904 115390928 119761272 
1088.146 124056984 128155736 131946224 135349136 138316000 140828640 
1091.039 142886336 144487136 145613616 146229664 146288784 145759488 
1093.932 144653216 143050128 141105520 139029472 137081920 135513248 
1096.825 134532496 134291968 134850752 136173760 138121968 140475936 
1099.718 142937952 145149648 146761360 147438912 146917936 145055760 
1102.611 141833424 137365792 131863352 125615280 118937408 112119568 
1105.504 105433464 99091640 93239160 87970280 83320320 79282000 75817760 
1108.879 72873912 70390416 68304584 66558384 65096348 63863620 62811972 
1112.254 61897496 61083216 60342748 59657824 59017244 58415172 57848604 
1115.630 57316120 56818620 56359184 55943232 55576184 55262872 55004844 
1119.005 54800192 54644744 54534172 54465956 54440416 54459344 54524520 
1122.380 54635768 54790232 54982992 55209780 55468608 55761004 56091116 
1125.755 56463884 56882976 57350112 57865640 58429916 59045560 59717088 
1129.131 60450852 61251892 62121004 63053728 64039796 65064788 66110484 
1132.506 67157320 68184856 69170608 70093264 70933216 71676504 72319256 
1135.881 72870816 73355520 73808008 74272368 74795136 75416928 76173864 
1139.256 77094040 78196440 79494544 80994208 82694832 84587384 86654680 
1142.632 88872152 91205760 93614736 96051784 98457400 100765120 102898512 
1146.007 104769232 106289592 107372608 107941040 107941168 107343456 
1148.900 106148312 104381952 102094960 99355432 96239240 92833344 89227856 
1152.275 85507512 81756008 78044448 74428680 70954408 67654576 64553640 
1155.650 61672696 59026660 56625532 54472604 52563520 50887812 49430276 
1159.026 48174152 47101384 46192208 45426532 44780476 44228912 43748844 
1162.401 43319020 42924404 42556344 42210656 41885892 41581428 41296340 
1165.776 41030124 40783724 40560744 40366752 40207660 40088564 40011280 
1169.151 39974952 39977564 40017640 40095832 40215036 40378528 40588540 
1172.527 40844908 41145512 41487436 41869292 42292388 42760976 43280180 
1175.902 43854360 44486012 45175272 45922384 46728372 47595896 48528624 
1179.277 49527936 50590596 51705952 52856024 54019132 55172572 56296488 
1182.652 57378396 58412440 59400932 60352040 61281504 62210432 63163312 
1186.028 64167836 65248728 66422224 67692016 69044544 70450352 71862720 
1189.403 73226344 74483976 75577752 76460392 77096296 77461560 77546008 
1192.778 77350096 76882664 76156888 75188648 73995296 72593736 71005904 
1196.153 69262280 67403288 65485752 63577764 61746292 60054176 58543196 
1199.529 57228152 56097900 55121368 54259756 53474308 52737900 52037512 
1202.904 51372260 50749664 50180916 49677840 49249868 48904376 48645756 
1206.279 48474756 48388036 48378816 48438560 48559044 48734456 48963676 
1209.654 49248460 49592668 49998784 50467724 50998096 51588400 52238620 
1213.030 52952100 53734312 54592108 55530996 56554152 57662664 58857512 
1216.405 60141236 61520268 63004656 64607084 66341772 68221920 70260760 
1219.780 72472264 74871184 77475072 80302704 83371176 86693600 90274880 
1223.155 94109504 98177208 102441536 106848608 111317128 115743216 119996072 
1226.531 123909760 127305288 129992112 131782960 132533256 132151144 
1229.424 130620536 128004808 124444304 120140672 115317848 110223648 
1232.317 105096872 100137968 95521312 91371296 87760192 84722640 82257024 
1235.692 80339096 78928904 77979776 77442040 77261064 77384784 77762896 
1239.067 78347656 79100168 79986736 80976480 82040360 83143808 84244392 
1242.442 85297048 86251936 87063384 87698320 88137232 88379000 88438344 
1245.818 88344568 88136984 87859768 87564080 87299784 87111536 87036704 
1249.193 87096184 87293632 87614592 88031912 88510976 89014968 89514248 
1252.568 89986968 90421216 90815640 91178704 91528768 91891240 92300312 
1255.943 92793336 93403760 94158144 95068064 96128176 97313488 98582024 
1259.319 99879176 101134832 102273392 103215712 103877952 104185888 
1262.212 104075976 103502024 102444048 100907880 98925416 96545488 93831904 
1265.587 90856888 87692720 84417848 81112968 77852632 74709888 71745056 
1268.962 69001080 66508180 64282924 62332692 60660164 59263276 58134996 
1272.337 57261152 56621492 56191488 55944892 55860288 55921488 56117356 
1275.713 56440940 56885088 57440984 58099428 58851216 59690860 60618256 
1279.088 61638284 62759176 63989460 65337024 66808844 68412048 70156000 
1282.463 72052768 74114200 76349536 78758736 81328608 84027744 86809880 
1285.838 89613896 92365224 94989424 97410544 99557688 101374040 102813440 
1289.214 103844032 104449112 104622024 104363408 103676232 102560224 
1292.107 101012104 99029008 96616296 93797352 90620992 87168920 83546568 
1295.482 79874584 76286688 72906320 69845848 67205440 65058820 63457260 
1298.857 62425188 61957072 62019708 62555276 63494192 64754516 66251100 
1302.232 67905360 69634984 71359448 73003016 74486688 75738504 76699744 
1305.608 77323216 77580872 77461768 76970400 76126752 74969144 73563928 
1308.983 72004152 70413952 68943208 67731488 66893556 66485776 66485204 
1312.358 66783184 67197744 67523528 67554888 67143200 66228948 64841336 
1315.733 63087524 61112808 59081320 57131808 55359708 53818620 52519168 
1319.109 51445888 50571276 49869688 49322136 48915684 48640976 48488684 
1322.484 48447268 48505136 48652024 48880348 49185740 49564516 50010384 
1325.859 50513916 51060404 51632880 52215304 52793760 53358336 53903388 
1329.234 54425128 54921172 55390268 55832592 56250888 56650784 57041076 
1332.610 57430472 57827252 58236604 58661124 59101404 59558508 60034960 
1335.985 60535288 61064452 61626220 62221904 62849844 63506768 64190304 
1339.360 64900428 65640116 66415356 67231896 68094232 69004464 69962920 
1342.735 70969848 72026992 73138504 74310864 75552160 76869264 78267096 
1346.111 79747760 81310752 82954176 84675888 86474392 88349040 90298784 
1349.486 92320520 94407992 96551904 98741664 100967992 103227600 105524840 
1352.861 107873960 110295784 112815008 115458312 118249808 121211376 
1355.754 124361744 127711696 131258400 134974352 138805600 142662384 
1358.647 146426128 149977248 153203760 156030080 158431744 160433168 
1361.540 162096656 163495824 164707360 165790608 166783952 167714272 
1364.433 168596448 169438960 170244224 171010256 171733952 172419024 
1367.326 173084448 173770880 174540832 175462320 176601216 178007136 
1370.219 179707488 181714016 184031760 186667216 189628976 192921584 
1373.113 196535888 200438288 204574368 208886656 213336160 217920112 
1376.006 222667840 227620784 232793920 238144896 243544608 248794976 
1378.899 253642464 257800368 261002720 262995904 263545520 262472720 
1381.792 259674256 255182624 249181952 241995696 233999984 225497712 
1384.685 216681728 207592896 198170992 188338208 178091120 167549616 
1387.578 156942064 146536752 136566304 127196384 118516920 110576464 
1390.471 103415152 97055784 91509624 86763304 82769368 79456424 76741296 
1393.846 74552896 72828096 71511496 70549544 69873128 69405200 69078184 
1397.221 68844200 68694856 68663072 68820048 69250384 70025872 71194920 
1400.597 72772864 74754120 77121696 79851080 82897872 86173096 89540192 
1403.972 92795840 95684128 97954208 99384000 99830512 99254600 97710360 
1407.347 95330488 92287688 88789912 85051536 81269472 77635144 74301224 
1410.722 71371000 68902552 66906428 65364560 64248076 63532272 63199988 
1414.098 63235596 63617848 64312816 65273792 66457592 67830784 69380168 
1417.473 71114824 73052440 75199680 77532144 79995424 82521912 85058912 
1420.848 87587880 90119336 92674336 95257696 97839672 100348776 102668992 
1424.223 104674600 106258200 107346560 107907864 107929016 107395176 
1427.116 106284600 104578472 102286392 99463400 96223232 92721424 89115928 
1430.492 85555080 82157168 79007632 76174888 73705632 71620624 69916560 
1433.867 68563344 67516144 66727428 66167400 65833552 65747352 65935248 
1437.242 66402844 67121352 68036128 69083584 70205736 71360584 72514472 
1440.617 73639056 74710832 75705648 76602664 77388536 78057656 78612704 
1443.993 79061528 79412384 79669456 79831096 79892584 79852800 79722520 
1447.368 79531584 79324000 79148552 79044832 79028776 79095520 79227952 
1450.743 79412464 79647520 79947544 80334160 80826264 81427040 82123304 
1454.118 82884720 83674184 84457816 85205000 85893984 86509488 87042216 
1457.494 87483752 87827848 88074032 88230264 88314848 88355816 88384320 
1460.869 88429976 88515848 88653792 88848368 89099088 89407176 89777696 
1464.244 90221168 90749560 91375928 92114752 92982064 94001368 95199656 
1467.619 96601192 98222320 100065168 102119608 104360496 106756952 109271224 
1470.995 111842472 114383088 116769216 118849792 120484720 121573376 
1473.888 122066080 121955936 121257024 119998608 118228064 116020600 
1476.781 113478032 110705776 107799504 104821192 101795120 98725240 95611152 
1480.156 92463200 89314488 86213224 83210544 80350896 77660192 75147280 
1483.531 72810392 70640792 68628112 66761932 65032572 63433716 61964756 
1486.906 60631400 59444508 58414564 57547156 56839540 56282832 55868616 
1490.282 55592148 55454792 55458484 55598892 55860928 56220112 56645612 
1493.657 57109056 57590396 58078636 58573868 59080560 59598984 60116732 
1497.032 60606868 61033220 61363276 61575740 61666472 61648748 61550312 
1500.407 61408768 61262576 61150344 61102664 61137984 61262120 61464992 
1503.783 61722880 61995824 62236588 62400664 62462872 62436436 62375112 
1507.158 62352088 62416848 62579460 62816420 63093460 63378044 63648232 
1510.533 63894636 64116256 64319424 64514048 64711980 64923740 65155940 
1513.908 65410128 65681628 65961704 66240332 66513436 66787280 67081756 
1517.284 67421896 67827840 68304424 68838216 69399912 69951472 70463208 
1520.659 70925136 71358160 71803448 72305048 72884024 73529424 74208216 
1524.034 74880000 75514144 76092920 76617088 77101080 77566288 78031160 
1527.409 78507848 79005640 79535688 80113432 80757944 81483992 82296504 
1530.785 83185784 84134344 85122792 86141704 87199776 88324832 89553752 
1534.160 90909128 92394208 93991456 95678144 97433224 99246560 101125464 
1537.535 103083056 105142584 107331880 109678496 112199488 114891704 
1540.428 117743072 120726648 123817160 127007824 130302280 133712712 
1543.321 137246960 140893440 144607648 148309856 151907904 155310368 
1546.214 158446496 161272080 163741008 165790992 167346048 168320528 
1549.107 168666880 168408368 167647824 166524848 165152336 163580512 
1552.000 161788416 159725264 157371632 154787808 152125184 149588992 
1554.894 147341088 145447312 143848400 142388896 140848624 138995712 
1557.787 136665248 133835208 130698936 127606648 124885504 122674616 
1560.680 120925808 119491832 118215488 116964272 115625232 114109888 
1563.573 112360784 110367000 108173952 105873768 103575792 101352864 
1566.466 99217288 97113248 94942664 92598552 90012888 87195240 84243064 
1569.841 81312664 78554016 76063864 73864368 71923240 70185048 68594464 
1573.216 67104840 65679200 64288192 62917516 61583260 60346784 59312764 
1576.592 58603404 58308484 58463576 59058164 60059044 61438652 63186996 
1579.967 65314768 67844032 70795832 74177672 77970136 82118296 86532296 
1583.342 91070024 95542280 99731328 103386608 106274024 108209056 109066384 
1586.717 108807408 107480256 105229888 102280936 98924216 95499096 92317032 
1590.093 89647384 87692152 86564888 86315064 86937080 88389888 90604216 
1593.468 93492184 96959056 100891456 105163816 109650264 114217112 118744816 
1596.843 123136584 127307864 131182208 134676560 137682768 140081376 
1599.736 141757088 142619872 142634416 141822912 140261104 138054784 
1602.629 135333472 132242832 128926352 125531672 122192096 119002992 
1605.522 116023712 113270344 110727760 108364936 106152880 104075136 
1608.415 102127160 100311128 98627344 97068296 95621320 94275368 93026768 
1611.791 91881864 90851616 89942408 89145096 88430584 87749488 87045656 
1615.166 86269360 85403072 84479504 83582760 82819240 82269880 81966848 
1618.541 81890296 81991896 82214664 82512736 82858128 83239232 83661616 
1621.916 84142152 84705960 85378032 86178832 87122064 88210904 89440800 
1625.292 90799960 92270768 93827128 95435936 97063080 98675544 100249352 
1628.667 101774640 103254792 104702304 106132144 107559792 108999560 
1631.560 110467624 111981904 113565784 115248808 117066608 119061696 
1634.453 121281296 123774864 126573232 129682928 133089648 136758672 
1637.346 140664032 144798496 149172880 153810704 158738256 163979856 
1640.239 169541216 175406000 181543984 187903936 194428880 201071456 
1643.132 207779968 214518496 221275232 228057248 234900816 241852176 
1646.025 248946256 256150272 263352992 270393952 277112160 283402656 
1648.918 289224128 294580928 299443840 303676288 306994464 308868896 
1651.811 308586336 305529344 299649760 291789664 283270016 275115168 
1654.704 267614128 260532800 253444224 246005520 238043712 229564128 
1657.597 220694016 211613712 202504672 193466416 184521504 175636352 
1660.490 166751120 157825312 148868896 139958384 131237480 122895032 
1663.384 115120032 108058016 101777992 96264336 91439512 87187056 83380616 
1666.759 79909344 76697968 73719192 70995960 68587048 66559656 64959296 
1670.134 63793504 63034000 62631280 62537252 62712624 63130244 63776880 
1673.509 64649688 65757452 67117104 68747840 70659896 72843816 75282104 
1676.885 77959352 80874560 84045240 87497968 91253912 95302840 99601784 
1680.260 104087344 108692408 113394872 118234592 123314320 128774968 
1683.153 134735104 141200208 147974096 154697856 160987440 166572544 
1686.046 171328640 175213952 178212864 180286160 181386432 181481920 
1688.939 180559440 178641008 175783680 172091424 167718560 162856192 
1691.832 157719136 152469168 147169328 141761168 136069536 129883560 
1694.725 123097344 115862392 108629128 101988808 96369768 91884440 88335552 
1698.100 85377824 82641536 79865096 76989472 74178896 71730200 69864840 
1701.476 68592528 67730480 67034080 66270636 65272904 63932948 62189632 
1704.851 60033060 57503240 54689504 51708340 48685080 45734116 42936328 
1708.226 40340280 37957808 35768656 33737176 31830978 30037664 28369634 
1711.601 26854734 25515104 24352786 23340218 22430374 21572256 20735782 
1714.977 19921450 19154418 18463030 17857630 17316962 16803140 16286280 
1718.352 15769655 15289990 14895233 14616236 14449587 14362520 14306836 
1721.727 14241572 14145681 14026812 13912253 13833538 13804941 13816571 
1725.102 13839249 13842944 13812843 13755144 13692083 13645990 13626877 
1728.478 13624928 13617304 13581748 13512423 13423869 13344148 13296897 
1731.853 13287535 13294778 13278790 13198070 13038998 12831385 12635605 
1735.228 12504702 12454507 12464361 12495086 12510125 12486424 12422592 
1738.603 12335317 12250035 12185012 12141327 12103985 12054483 11982881 
1741.979 11893583 11800897 11719704 11654555 11597074 11529221 11434981 
1745.354 11310391 11166186 11023082 10899493 10802910 10724178 10643388 
1748.729 10539665 10404166 10244180 10081067 9936624 9822698 9736113 9664689 
1752.586 9597579 9533425 9480728 9452248 9455092 9484893 9524518 9550021 
1756.444 9544568 9506229 9451300 9403827 9384222 9397156 9431558 9465218 
1760.301 9477239 9458512 9416354 9370002 9339701 9336147 9355545 9385001 
1764.159 9412359 9433183 9452214 9479339 9520894 9575426 9631149 9673464 
1768.016 9692505 9691183 9683120 9686271 9710700 9752073 9790977 9802126 
1771.874 9768644 9693386 9600865 9522892 9483268 9485300 9514458 9547752 
1775.731 9567398 9567398 9556017 9547955 9556186 9583080 9619293 9648326 
1779.588 9657168 9643752 9619767 9603337 9608758 9638332 9681053 9719239 
1783.446 9736961 9729540 9704940 9680036 9670381 9682307 9710361 9743331 
1787.303 9771254 9791892 9812294 9842967 9891607 9956084 10023555 10075063 
1791.161 10096090 10083813 10051055 10018367 10004296 10014129 10039797 
1794.536 10066077 10080931 10081134 10073538 10069299 10077505 10098803 
1797.911 10125155 10144318 10146623 10132039 10110198 10096225 10100973 
1801.286 10125934 10162022 10196485 10219552 10231153 10239771 10257955 
1804.662 10293850 10346816 10406847 10460472 10498454 10520145 10534165 
1808.037 10552838 10585565 10632421 10684580 10729442 10758413 10773188 
1811.412 10784838 10807529 10851657 10916991 10993787 11068183 11129675 
1814.787 11177370 11219666 11269786 11337156 11423075 11518640 11610073 
1818.163 11685562 11741353 11782206 11817342 11853537 11890756 11921814 
1821.538 11937105 11930634 11903697 11864229 11822755 11786939 11756741 
1824.913 11725932 11687264 11638763 11586184 11540825 11512107 11502546 
1828.288 11504009 11501662 11479955 11433212 11369127 11306582 11264686 
1831.664 11253023 11267271 11293319 11314404 11319913 11310153 11295564 
1835.039 11290123 11302807 11332734 11369536 11400318 11416680 11420524 
1838.414 11422531 11436716 11472165 11527929 11593603 11655270 11702207 
1841.789 11731175 11747311 11758988 11773048 11789287 11801646 11803519 
1845.165 11794632 11782785 11780980 11799501 11840359 11895795 11952227 
1848.540 11996880 12023927 12038507 12053563 12082521 12131140 12194997 
1851.915 12261556 12317932 12357373 12383350 12406806 12439981 12488129 
1855.290 12546035 12600948 12639255 12654299 12650035 12638164 12631716 
1858.666 12637720 12653207 12667569 12669276 12654163 12628032 12604564 
1862.041 12597401 12613774 12649898 12694385 12734201 12762624 12781903 
1865.416 12801900 12832443 12876948 12928285 12972560 12996219 12994443 
1868.791 12975599 12957880 12960338 12991371 13046408 13110468 13168253 
1872.167 13210231 13236806 13256277 13278038 13305984 13335435 13355287 
1875.542 13354808 13330651 13289893 13246506 13214739 13201417 13203433 
1878.917 13209718 13208557 13195782 13176450 13163505 13169107 13198514 
1882.292 13246336 13300142 13347189 13382007 13408935 13439863 13486617 
1885.667 13552793 13631390 13707676 13766738 13800700 13812775 13815374 
1889.043 13824267 13849751 13892719 13946467 14002823 14058982 14118365 
1892.418 14189567 14278654 14384439 14497136 14601809 14685566 14744897 
1895.793 14787199 14827104 14877711 14944923 15023910 15104352 15176264 
1899.168 15237276 15294589 15361452 15449236 15560011 15685964 15811129 
1902.544 15922135 16011544 16082987 16145950 16209815 16275788 16336095 
1905.919 16376657 16386293 16362276 16313698 16256593 16207786 16176522 
1909.294 16161080 16152551 16141582 16125385 16109705 16105579 16122600 
1912.669 16163144 16221130 16285317 16345795 16399678 16451983 16511418 
1916.045 16583152 16665019 16745111 16809926 16851120 16872544 16889182 
1919.420 16920394 16979032 17065282 17166026 17262070 17338306 17390518 
1922.795 17427974 17467190 17523420 17600116 17688456 17771050 17833290 
1926.170 17870506 17890394 17908004 17938218 17986668 18048008 18109802 
1929.546 18160830 18198524 18231002 18272332 18333160 18414422 18505488 
1932.921 18590002 18654434 18696288 18724550 18755270 18801390 18864642 
1936.296 18934378 18993496 19028458 19035972 19026002 19014786 19016414 
1939.671 19033376 19055532 19065364 19049474 19005856 18947842 18895858 
1943.047 18868242 18869212 18889110 18908006 18908662 18886134 18848206 
1946.422 18811944 18791010 18790526 18802532 18812878 18810040 18793468 
1949.797 18774264 18770598 18794296 18845992 18911848 18972660 19013506 
1953.172 19031402 19036006 19044246 19068446 19107534 19147562 19169794 
1956.548 19161586 19126060 19081706 19053698 19062040 19108158 19175612 
1959.923 19236806 19269988 19269296 19247958 19229186 19232998 19265658 
1963.298 19317652 19369824 19406342 19425848 19440472 19471380 19532342 
1966.673 19622912 19724148 19810944 19862552 19873860 19857454 19834042 
1970.049 19820342 19818920 19817602 19798356 19749946 19676854 19598612 
1973.424 19540762 19521562 19541700 19584990 19629012 19658966 19677688 
1976.799 19703344 19758130 19852666 19977130 20104266 20201344 20247826 
1980.174 20244494 20212940 20183642 20180100 20211168 20267302 20329658 
1983.550 20380494 20413206 20433350 20453598 20483642 20524352 20568090 
1986.925 20604534 20629064 20647238 20672082 20717294 20787604 20874996 
1990.300 20961224 21027052 21064022 21078004 21087640 21111744 21160828 
1993.675 21228636 21297116 21343994 21356418 21337450 21303204 21275052 
1997.051 21267816 21282744 21309192 21331430 21339922 21335814 21332126 
2000.426 21343680 21376708 21424152 21466936 21484726 21465612 21415102 
2003.801 21351720 21300630 21279750 21290260 21317926 21341974 21346012 
2007.176 21328228 21298996 21274462 21265520 21270114 21275506 21266006 
2010.552 21235004 21188832 21145626 21124058 21134530 21171020 21216632 
2013.927 21250208 21259534 21246834 21226828 21217294 21227626 21253410 
2017.302 21279020 21289112 21277350 21252818 21235874 21248364 21300318 
2020.677 21384646 21480026 21562368 21615578 21639154 21645912 21654340 
2024.052 21677256 21714560 21756676 21791444 21812976 21826596 21845134 
2027.428 21879212 21930336 21985992 22027472 22037896 22014610 21970970 
2030.803 21932356 21922458 21952222 22014052 22087816 22150328 22187814 
2034.178 22201796 22205946 22215922 22239600 22272244 22299518 22308588 
2037.553 22294148 22264014 22232138 22213410 22211212 22218432 22219198 
2040.929 22199774 22157896 22104270 22057242 22034514 22042184 22073070 
2044.304 22110128 22136348 22144088 22139486 22138544 22157652 22205076 
2047.679 22276988 22359132 22435118 22494158 22536522 22569294 22602172 
2051.054 22640114 22682424 22724040 22761084 22794466 22831238 22880342 
2054.430 22947546 23031006 23120842 23203358 23268864 23315884 23352666 
2057.805 23392142 23445506 23515596 23596366 23674842 23738670 23782872 
2061.180 23810452 23830298 23851020 23875770 23900834 23918724 23922926 
2064.555 23913158 23896564 23884206 23884836 23900588 23926110 23951670 
2067.931 23970508 23982096 23993338 24014942 24054410 24111112 24175634 
2071.306 24232984 24270578 24282490 24273030 24252394 24232248 24219600 
2074.681 24214310 24211646 24206358 24196934 24187126 24182922 24188456 
2078.056 24202398 24218022 24225556 24217884 24194516 24161622 24129222 
2081.432 24105822 24093810 24088802 24082672 24068558 24044044 24013298 
2084.807 23984338 23963574 23953106 23948834 23943826 23932728 23914278 
2088.182 23893062 23875980 23868068 23869782 23874964 23875034 23863622 
2091.557 23839644 23809122 23780352 23762012 23757464 23764252 23776432 
2094.933 23787806 23796346 23803732 23813566 23826972 23841570 23850706 
2098.308 23848218 23831838 23805236 23777656 23759002 23754944 23763624 
2101.683 23775662 23780562 23770062 23743500 23707140 23670608 23642022 
2105.058 23623026 23609274 23593252 23569954 23539800 23509578 23487718 
2108.434 23481214 23490098 23509160 23529238 23543578 23550748 23554876 
2111.809 23562434 23577684 23599934 23622604 23637754 23639294 23627538 
2115.184 23608610 23591294 23581604 23580310 23582126 23578910 23564252 
2118.559 23537142 23501988 23466176 23435364 23410362 23386862 23358644 
2121.935 23321338 23276730 23231426 23193852 23169908 23159320 23154916 
2125.310 23146984 23127762 23095614 23055708 23016682 22986742 22968088 
2128.685 22958376 22951038 22940874 22926936 22913000 22904966 22905630 
2132.060 22912964 22919672 22918100 22904442 22883032 22864696 22862880 
2135.436 22886280 22934378 22997012 23059832 23110604 23144328 23163548 
2138.811 23175396 23185776 23194410 23195144 23180046 23144922 23093306 
2142.186 23036352 22986916 22954044 22938500 22932176 22924352 22907480 
2145.561 22883032 22860888 22853448 22868468 22903290 22946358 22980418 
2148.937 22991458 22974480 22934552 22882124 22826138 22769152 22705606 
2152.312 22627338 22528180 22409578 22279918 22150156 22027124 21910890 
2155.687 21795172 21674748 21553976 21450016 21389206 21396550 21482706 
2159.062 21635464 21825588 22014402 22173970 22293242 22378076 22443108 
2162.438 22502532 22562558 22619554 22666784 22699776 22721072 22738844 
2165.813 22762306 22794466 22830190 22858410 22868014 22854916 22824394 
2169.188 22788494 22760632 22747468 22744850 22740974 22722294 22681064 
2172.563 22620218 22552228 22493006 22454518 22439968 22441852 22448028 
2175.938 22447156 22433932 22408672 22375946 22339040 22298090 22252540 
2179.314 22201832 22151062 22109920 22089280 22095834 22127108 22170484 
2182.689 22208770 22229032 22227638 22211456 22195938 22196008 22216826 
2186.064 22253340 22290940 22314552 22314692 22292682 22257666 22222930 
2189.439 22197648 22183106 22174424 22164138 22148552 22129548 22113928 
2192.815 22108734 22115984 22131256 22145692 22149596 22139102 22117520 
2196.190 22092836 22073382 22062960 22057974 22051386 22035700 22009974 
2199.565 21979790 21956090 21948736 21962084 21991954 22027786 22059090 
2202.940 22079588 22090708 22099494 22114416 22139904 22173864 22209190 
2206.316 22238764 22259376 22274476 22291532 22318460 22358330 22407172 
2209.691 22455878 22494470 22517642 22527204 22530484 22536802 22552612 
2213.066 22579414 22613168 22648388 22681690 22712658 22744360 22779312 
2216.441 22816326 22850900 22876046 22886104 22879922 22862564 22841330 
2219.817 22823172 22810914 22800962 22786506 22761434 22724284 22679422 
2223.192 22635438 22600532 22578682 22568106 22561440 22550936 22532266 
2226.567 22505604 22475592 22448412 22428316 22415756 22408812 22404938 
2229.942 22403474 22406474 22416906 22436130 22461392 22485888 22502008 
2233.318 22503998 22490982 22467184 22440702 22418686 22404416 22396322 
2236.693 22389206 22378528 22361818 22341726 22322436 22308624 22302170 
2240.068 22301020 22300880 22298298 22292194 22285392 22282080 22285708 
2243.443 22296032 22310054 22322262 22328262 22327146 22321320 22315112 
2246.819 22312530 22314308 22317972 22319994 22317448 22310682 22302798 
2250.194 22298892 22301960 22312914 22328540 22344900 22359588 22373016 
2253.569 22388750 22411672 22444434 22485434 22529264 22568422 22596658 
2256.944 22611248 22613132 22605836 22592782 22575716 22553834 22525774 
2260.320 22491470 22453052 22415126 22382332 22356586 22336528 22317518 
2263.695 22294532 22264258 22228022 22190534 22158104 22135162 22122366 
2267.070 22116508 22112116 22105108 22093848 22080320 22068188 22059926 
2270.445 22056544 22055430 22053476 22048876 22042252 22037060 22036954 
2273.821 22044030 22057068 22071918 22083284 22087572 22084504 22077670 
2277.196 22071534 22070210 22074846 22083458 22092208 22097612 22097822 
2280.571 22093776 22087084 22079344 22070594 22059020 22042880 22021442 
2283.946 21996170 21969962 21946470 21927930 21914024 21903152 21892768 
2287.322 21882000 21871720 21864438 21862138 21865204 21871442 21876180 
2290.697 21874892 21864856 21846702 21823880 21801024 21782004 21768450 
2294.072 21759636 21752984 21746504 21739816 21734242 21731734 21733616 
2297.447 21739780 21748212 21757234 21765350 21773084 21782630 21796494 
2300.823 21815902 21840220 21867468 21894996 21921866 21949050 21979372 
2304.198 22016284 22061984 22116336 22176970 22240366 22303530 22364854 
2307.573 22425104 22485154 22545876 22606606 22665668 22720794 22770582 
2310.948 22815628 22857710 22899762 22943248 22988278 23033730 23077338 
2314.323 23118118 23156978 23196612 23240550 23291726 23351302 23418090 
2317.699 23489642 23562538 23634080 23702416 23766212 23824136 23874790 
2321.074 23916344 23947224 23966550 23974604 23972118 23960108 23939066 
2324.449 23909482 23872198 23830052 23787036 23749274 23722816 23711828 
2327.824 23716834 23734436 23758128 23780562 23795856 23801458 23797922 
2331.200 23788856 23777832 23767786 23760332 23755958 23755012 23758128 
2334.575 23766316 23779898 23798026 23818116 23836704 23850846 23859070 
2337.950 23861976 23861908 23861312 23861590 23862642 23862956 23860822 
2341.325 23855710 23848290 23838698 23825608 23803836 23764672 23698706 
2344.701 23598396 23462922 23300186 23126818 22963476 22830748 22745828 
2348.076 22717860 22749702 22837630 22973782 23146808 23342630 23547530 
2351.451 23747594 23931888 24094054 24232702 24350718 24452256 24541650 
2354.826 24620578 24687806 24740452 24776056 24794228 24796580 24786370 
2358.202 24766726 24739716 24704958 24661326 24607568 24544174 24473044 
2361.577 24396876 24318022 24237116 24153600 24066140 23974604 23880810 
2364.952 23788296 23701052 23621380 23548824 23479606 23408018 23329204 
2368.327 23240268 23141148 23034780 22924666 22813986 22704208 22595786 
2371.703 22487806 22380274 22273256 22167518 22063030 21958982 21854054 
2375.078 21746260 21634732 21519680 21402500 21285320 21169524 21055710 
2378.453 20943558 20832550 20722784 20616034 20514730 20421716 20339380 
2381.828 20268100 20206794 20153584 20106314 20063908 20026364 19994166 
2385.204 19967798 19946808 19930332 19917044 19906430 19898834 19895504 
2388.579 19897446 19904904 19916212 19929082 19940496 19948822 19954476 
2391.954 19959784 19967348 19979490 19996316 20015816 20034864 20050062 
2395.329 20059502 20063422 20063110 20060472 20056448 20051138 20043712 
2398.705 20033268 20020014 20004816 19989654 19976160 19965022 19956038 
2402.080 19948544 19942056 19937026 19934632 19935882 19941398 19949896 
2405.455 19959160 19966376 19969636 19968596 19964572 19959714 19956176 
2408.830 19954718 19955204 19956696 19958812 19962144 19968110 19978448 
2412.206 19993990 20014150 20036426 20058460 20078136 20094862 20109542 
2415.581 20124084 20139736 20156534 20173090 20187218 20197492 20203392 
2418.956 20206030 20207626 20209744 20213458 20218214 20222796 20226408 
2422.331 20228318 20229358 20230052 20230642 20230504 20228454 20223074 
2425.707 20213910 20202144 20189682 20179060 20171806 20167884 20165870 
2429.082 20164204 20161186 20156812 20151744 20147092 20143414 20140118 
2432.457 20135744 20128872 20118496 20105168 20090628 20076054 20062172 
2435.832 20048328 20032504 20012518 19987642 19958536 19927036 19895504 
2439.208 19865882 19838030 19811396 19784900 19758544 19733926 19713816 
2442.583 19700502 19695024 19695994 19699946 19702824 19701194 19693704 
2445.958 19681190 19666350 19651756 19639206 19629152 19620936 19613622 
2449.333 19606584 19599930 19594140 19589080 19584296 19578752 19571784 
2452.708 19562876 19552998 19543778 19536152 19530748 19527004 19523122 
2456.084 19517784 19510298 19501566 19493248 19487494 19485728 19487946 
2459.459 19493212 19500456 19508704 19518200 19529464 19543086 19558544 
2462.834 19574834 19589774 19601974 19610780 19617296 19623396 19630956 
2466.209 19641286 19654356 19668950 19684066 19698732 19712810 19726678 
2469.585 19740028 19751852 19760730 19764440 19762846 19756292 19747482 
2472.960 19739888 19735902 19736492 19740688 19745646 19748802 19748524 
2476.335 19744882 19739336 19733544 19728518 19723834 19718428 19711630 
2479.710 19703344 19695092 19689094 19687186 19689856 19695784 19702304 
2483.086 19707296 19709480 19709618 19709724 19712428 19719362 19731150 
2486.461 19746790 19764856 19784484 19805430 19827660 19851418 19875524 
2489.836 19898416 19917808 19932066 19940878 19945802 19948822 19951804 
2493.211 19955342 19958640 19959646 19956870 19949932 19939558 19928042 
2496.587 19917600 19909414 19903412 19898520 19893734 19888636 19884230 
2499.962 19881664 19882046 19885374 19890474 19895434 19899216 19901610 
2503.337 19904176 19908962 19916906 19927520 19938586 19946496 19948196 
2506.712 19942576 19930746 19915588 19900290 19887108 19876738 19867858 
2510.088 19858596 19847256 19833832 19819094 19804250 19790448 19777860 
2513.463 19765896 19753724 19741416 19729278 19718078 19708266 19699080 
2516.838 19689336 19677064 19661324 19642394 19622288 19603604 19588872 
2520.213 19579480 19574870 19573378 19573066 19572234 19570188 19566584 
2523.589 19561072 19552408 19539134 19519690 19493700 19462372 19428344 
2526.964 19395290 19365666 19340204 19317720 19295240 19270230 19240894 
2530.339 19207646 19172460 19137556 19105250 19076514 19050996 19027698 
2533.714 19005784 18984670 18964144 18944070 18923752 18902468 18879316 
2537.090 18853778 18826648 18799036 18772188 18746968 18722958 18699504 
2540.465 18675534 18650906 18626522 18604284 18585990 18572296 18562232 
2543.840 18553724 18544422 18532182 18517244 18500924 18485330 18472364 
2547.215 18462408 18454768 18448476 18442598 18437620 18435372 18437828 
2550.591 18446126 18460506 18478970 18499022 18518594 18536400 18553240 
2553.966 18570116 18588686 18609264 18631260 18653362 18674356 18694144 
2557.341 18713100 18732438 18752986 18774852 18797446 18819728 18841354 
2560.716 18862706 18884820 18908768 18934724 18961652 18987128 19009212 
2564.092 19026452 19039676 19050824 19062940 19078416 19097874 19120312 
2567.467 19143648 19165776 19185620 19203316 19220182 19237568 19256098 
2570.842 19275670 19294996 19313460 19330226 19345954 19361476 19377342 
2574.217 19393558 19409668 19424602 19437908 19449862 19461610 19474256 
2577.593 19488500 19504130 19519690 19533312 19543710 19550120 19553172 
2580.968 19553934 19553310 19551750 19548700 19543190 19534734 19523572 
2584.343 19510888 19498446 19488222 19481638 19479456 19482054 19489158 
2587.718 19500872 19516572 19535530 19556220 19576880 19595632 19611056 
2591.094 19623294 19633694 19644232 19656990 19673284 19693012 19715446 
2594.469 19739126 19763018 19786738 19810286 19833696 19856830 19878506 
2597.844 19897480 19912950 19924676 19933590 19940910 19947502 19953366 
2601.219 19957286 19957320 19952220 19941884 19927902 19913056 19900254 
2604.594 19891792 19888012 19887734 19888808 19889190 19887908 19884890 
2607.970 19881040 19877432 19874484 19872230 19870148 19867616 19864668 
2611.345 19861546 19858596 19855928 19853084 19849338 19844100 19837372 
2614.720 19829846 19822632 19817082 19813614 19812020 19811118 19809800 
2618.095 19807060 19803002 19798320 19793916 19790344 19787952 19785940 
2621.471 19783478 19779698 19774114 19766902 19758440 19749356 19740166 
2624.846 19731428 19723938 19718392 19715618 19715896 19718878 19723350 
2628.221 19727338 19729106 19727788 19723314 19717040 19710866 19706498 
2631.596 19704626 19705286 19707746 19710972 19714612 19719016 19724840 
2634.972 19732920 19743530 19756396 19770508 19785386 19800990 19817706 
2638.347 19836746 19858736 19884230 19912708 19943200 19974492 20005718 
2641.722 20036598 20066788 20096354 20124534 20150876 20174374 20194784 
2645.097 20212626 20228976 20245568 20263518 20283446 20304764 20326220 
2648.473 20346812 20365388 20381814 20396258 20409040 20420708 20430814 
2651.848 20439462 20446756 20453112 20459432 20466484 20474542 20483226 
2655.223 20491180 20496910 20499480 20498856 20496252 20493540 20492742 
2658.598 20495244 20501670 20511500 20523866 20538180 20554192 20572536 
2661.974 20593834 20618710 20647202 20678440 20711802 20746034 20780236 
2665.349 20813710 20845932 20876492 20904826 20930868 20954476 20975724 
2668.724 20994988 21012864 21029138 21043502 21055466 21064196 21069830 
2672.099 21072788 21074352 21075952 21079048 21084474 21092334 21102492 
2675.475 21114770 21129136 21145764 21165246 21187546 21212528 21239386 
2678.850 21267432 21295862 21324574 21353702 21383704 21414858 21446812 
2682.225 21478736 21509862 21539734 21568392 21596388 21624806 21654374 
2685.600 21685546 21717940 21751242 21784894 21818898 21853602 21890014 
2688.976 21928452 21969542 22012902 22058218 22105214 22153886 22204832 
2692.351 22258608 22315844 22376646 22440840 22508500 22579520 22654846 
2695.726 22735456 22822788 22917470 23019546 23128218 23241668 23358330 
2699.101 23476596 23595420 23713858 23830892 23945402 24055704 24159764 
2702.477 24256248 24343430 24420358 24486504 24541546 24585022 24617072 
2705.852 24637760 24648176 24649686 24644458 24634324 24621138 24605920 
2709.227 24589230 24571032 24551502 24530956 24509992 24489624 24470728 
2712.602 24453798 24439390 24427894 24420008 24416012 24416642 24421794 
2715.978 24431048 24443246 24457304 24472480 24488748 24507328 24529590 
2719.353 24557008 24590036 24628012 24669078 24710814 24751676 24790440 
2722.728 24827100 24862360 24896712 24929802 24960788 24988232 25010168 
2726.103 25026104 25036352 25042494 25046110 25049164 25053202 25058678 
2729.479 25065556 25073210 25080896 25087812 25093254 25096484 25097222 
2732.854 25095570 25092130 25087742 25083988 25081706 25081492 25083178 
2736.229 25085742 25088444 25090480 25091778 25092904 25095150 25099396 
2739.604 25106734 25117724 25132504 25151216 25174142 25201356 25233134 
2742.979 25269798 25311028 25356724 25406572 25460220 25517388 25577832 
2746.355 25640988 25705776 25771306 25836464 25900820 25964904 26029632 
2749.730 26096902 26167950 26243794 26324616 26410208 26499972 26593488 
2753.105 26690724 26791892 26897070 27005830 27117584 27231164 27345798 
2756.480 27460850 27576464 27693094 27811100 27930658 28051274 28172382 
2759.856 28293312 28413850 28534492 28655806 28778360 28902184 29026364 
2763.231 29149586 29270328 29387452 29500636 29609768 29715380 29817540 
2766.606 29916282 30010822 30100728 30185752 30266388 30343484 30418036 
2769.981 30490966 30562168 30631352 30697562 30760154 30818734 30873516 
2773.357 30924784 30973246 31019472 31064278 31108448 31153798 31202214 
2776.732 31256154 31317760 31388632 31468992 31558204 31655166 31758428 
2780.107 31866704 31979144 32095324 32214708 32337092 32462400 32590852 
2783.482 32723128 32860234 33003320 33153102 33309736 33472508 33639604 
2786.858 33808800 33978140 34145752 34310164 34470264 34625396 34774628 
2790.233 34918092 35055788 35189032 35319336 35448816 35579020 35710912 
2793.608 35844612 35979396 36114296 36248080 36380000 36509836 36637364 
2796.983 36762400 36884448 37003212 37118544 37230836 37340952 37450232 
2800.359 37559540 37669596 37779752 37889000 37995812 38098852 38196968 
2803.734 38289704 38376564 38457068 38530928 38597736 38657348 38710520 
2807.109 38758444 38803080 38845616 38886888 38926680 38963796 38996488 
2810.484 39024108 39046836 39066160 39084432 39104296 39127940 39156184 
2813.860 39189144 39226136 39266140 39308140 39351452 39395496 39439832 
2817.235 39483992 39527140 39568584 39607640 39643724 39676248 39704748 
2820.610 39728636 39747120 39759716 39766508 39768000 39765056 39758776 
2823.985 39750168 39740040 39728820 39716984 39705328 39695200 39688304 
2827.361 39686340 39690624 39702136 39720904 39747048 39780124 39820836 
2830.736 39869720 39927944 39996600 40076428 40168116 40271748 40387876 
2834.111 40517456 40662140 40824088 41004852 41206016 41427944 41670004 
2837.486 41930960 42209852 42505992 42819844 43153068 43507452 43885628 
2840.862 44289520 44720896 45180016 45666896 46180820 46720588 47284040 
2844.237 47868576 48469496 49080184 49691624 50291092 50863484 51392360 
2847.612 51859156 52246620 52539508 52725216 52796380 52749872 52588536 
2850.987 52319196 51953400 51505500 50990792 50425080 49823420 49197692 
2854.363 48557784 47910936 47261284 46611604 45963964 45319788 44681048 
2857.738 44050032 43428936 42820212 42225996 41648304 41089492 40551940 
2861.113 40038712 39552940 39097448 38674696 38286156 37932168 37612684 
2864.488 37326688 37073252 36851340 36660036 36498480 36365660 36260580 
2867.864 36181992 36128556 36098380 36089236 36098344 36122324 36157828 
2871.239 36200504 36246676 36292856 36336084 36374164 36406052 36431564 
2874.614 36451560 36468244 36484068 36501940 36524356 36553080 36588732 
2877.989 36631196 36679832 36733520 36791648 36853612 36918720 36986292 
2881.365 37054772 37122256 37186756 37246644 37300800 37349728 37394216 
2884.740 37436256 37477248 37518320 37559864 37602028 37644624 37687808 
2888.115 37731504 37776248 37821868 37868068 37914164 37959360 38002756 
2891.490 38043984 38083300 38121352 38158292 38194360 38229024 38261408 
2894.865 38289996 38313660 38331900 38344784 38353580 38360204 38367120 
2898.241 38377068 38392380 38414896 38445484 38484040 38529660 38580464 
2901.616 38634892 38691720 38750296 38811448 38877032 38949480 39031976 
2904.991 39127756 39240568 39374092 39532184 39718544 39937572 40193084 
2908.366 40489560 40831336 41222524 41667052 42167716 42725216 43337176 
2911.742 43997556 44697136 45422192 46156572 46884072 47586916 48249124 
2915.117 48857208 49399016 49865524 50251252 50553036 50771636 50910760 
2918.492 50977452 50980172 50928496 50831972 50698200 50533012 50339716 
2921.867 50119592 49871696 49593856 49283012 48935748 48548856 48120140 
2925.243 47648916 47136396 46585932 46002900 45394308 44767508 44130680 
2928.618 43491888 42858572 42238848 41640576 41071240 40538628 40048888 
2931.993 39607240 39217504 38881240 38598640 38368420 38187884 38053060 
2935.368 37958312 37897784 37864160 37849956 37848580 37853752 37860584 
2938.744 37865644 37866872 37863152 37854544 37841780 37825988 37808564 
2942.119 37791064 37775232 37762764 37755500 37755428 37764648 37785248 
2945.494 37819008 37867340 37931192 38011076 38107860 38222872 38357452 
2948.869 38513332 38690816 38888124 39099912 39317100 39527868 39717600 
2952.245 39872260 39979744 40030536 40020072 39947304 39814732 39626988 
2955.620 39390452 39112600 38800976 38463584 38108476 37743212 37374680 
2958.995 37008876 36650592 36303660 35971300 35655624 35358336 35080212 
2962.370 34821224 34580296 34355780 34145608 33947396 33759236 33579496 
2965.746 33407054 33240982 33080652 32925286 32774794 32628856 32487824 
2969.121 32352370 32223310 32101530 31987954 31883176 31787410 31700824 
2972.496 31623058 31553748 31492538 31439282 31394508 31359210 31335030 
2975.871 31323954 31327802 31347852 31384286 31436574 31503264 31582862 
2979.247 31673770 31775110 31886208 32006644 32135460 32271664 32413666 
2982.622 32559458 32707482 32855876 33002928 33146560 33284228 33412818 
2985.997 33528988 33629360 33711424 33773880 33816572 33840392 33846804 
2989.372 33837312 33813064 33774420 33721704 33654816 33574016 33480308 
2992.748 33375282 33261512 33142626 33022910 32906950 32799308 32703374 
2996.123 32621392 32554350 32501534 32462150 32434906 32419484 32415916 
2999.498 32424912 32446798 32481362 32527246 32582208 32643430 32708444 
3002.873 32775294 32842938 32911346 32980442 33050690 33122454 33196270 
3006.249 33272638 33352346 33436042 33524010 33616292 33711788 33808948 
3009.624 33906556 34002900 34097756 34191060 34283484 34375644 34468072 
3012.999 34560452 34652776 34744620 34836160 34928004 35021020 35116100 
3016.374 35213932 35314412 35416964 35520616 35624548 35727892 35830472 
3019.750 35932532 36035196 36139644 36247616 36360472 36478948 36603148 
3023.125 36731680 36862480 36992748 37119732 37241664 37357852 37469016 
3026.500 37576916 37683580 37790308 37897460 38004676 38110900 38215380 
3029.875 38317644 38418660 38519632 38622472 38728340 38838008 38951288 
3033.250 39067356 39185376 39304224 39423684 39544016 39666156 39791420 
3036.626 39921732 40058696 40203880 40358128 40521824 40694344 40874580 
3040.001 41061228 41252908 41448724 41647980 41849660 42052572 42254220 
3043.376 42450888 42637920 42810084 42962700 43092320 43197568 43279300 
3046.751 43340656 43386240 43422012 43453800 43486576 43524448 43569720 
3050.127 43623464 43685380 43754488 43829476 43909124 43992276 44078124 
3053.502 44166000 44255144 44344896 44434624 44523640 44611756 44698492 
3056.877 44784112 44868128 44950508 45030844 45109136 45185752 45261500 
3060.252 45337772 45415572 45495920 45578828 45663508 45748396 45831900 
3063.628 45912804 45990524 46065304 46137632 46207792 46275832 46341004 
3067.003 46402352 46459248 46511688 46560812 46608100 46655244 46703728 
3070.378 46753904 46805460 46857608 46909428 46960816 47012320 47065268 
3073.753 47121184 47181828 47248320 47321248 47400620 47485848 47576008 
3077.129 47669848 47765816 47862400 47957928 48051076 48141128 48227836 
3080.504 48311484 48392780 48472012 48549224 48623596 48693572 48756584 
3083.879 48810304 48852720 48882608 48900780 48908976 48910568 48909680 
3087.254 48910196 48915056 48925960 48942980 48965084 48990972 49019460 
3090.630 49050692 49085976 49127192 49176728 49236288 49306100 49385464 
3094.005 49472456 49564664 49660348 49758428 49858464 49960940 50066340 
3097.380 50174332 50284172 50393932 50501224 50603144 50697492 50782844 
3100.755 50858644 50926112 50987324 51045160 51102592 51162492 51226872 
3104.131 51297044 51373680 51456852 51546684 51643288 51747120 51858704 
3107.506 51978684 52107996 52247888 52400496 52569128 52758924 52976728 
3110.881 53230408 53529212 53882644 54299516 54788088 55355752 56007988 
3114.256 56749324 57582000 58505204 59514612 60600272 61745988 62925556 
3117.632 64105040 65241060 66279812 67165944 67843184 68259376 68376872 
3121.007 68173464 67646720 66813400 65708876 64382524 62888296 61285508 
3124.382 59629732 57967940 56342244 54785116 53320008 51963820 50725604 
3127.757 49607416 48605880 47712668 46917256 46207536 45572128 45001036 
3131.133 44485280 44017800 43592764 43205144 42851692 42529560 42236912 
3134.508 41972160 41733104 41516968 41319992 41137568 40964980 40798172 
3137.883 40633724 40469556 40304536 40138604 39972224 39806312 39641944 
3141.258 39480688 39323340 39170796 39023056 38879388 38738920 38600272 
3144.634 38462648 38325168 38188028 38051072 37914164 37776752 37638412 
3148.009 37498632 37357452 37215596 37074512 36935276 36798248 36663176 
3151.384 36528572 36392540 36253484 36110620 35964276 35815320 35665336 
3154.759 35515440 35366208 35217636 35069112 34920212 34770644 34620592 
3158.135 34470120 34319632 34169340 34019276 33869804 33721240 33573980 
3161.510 33428668 33285588 33144378 33004892 32866560 32729346 32593350 
3164.885 32458830 32326170 32195046 32064784 31934276 31802598 31669314 
3168.260 31535152 31401630 31270434 31143154 31020148 30900660 30783342 
3171.635 30666482 30549190 30431470 30314172 30198398 30085066 29974502 
3175.011 29866234 29759414 29653118 29546988 29441594 29337216 29234318 
3178.386 29132826 29031960 28930624 28827572 28722034 28614114 28504666 
3181.761 28395102 28286838 28181538 28079832 27981966 27887198 27794180 
3185.136 27701112 27606546 27508998 27407980 27303948 27197758 27091062 
3188.512 26985274 26881240 26779310 26678884 26579256 26479440 26379258 
3191.887 26278572 26177980 26077834 25978270 25879260 25780168 25680288 
3195.262 25579132 25476594 25372604 25267830 25162696 25057764 24953488 
3198.637 24850254 24748134 24647264 24547714 24449450 24352926 24258560 
3202.013 24167226 24079240 23995124 23914452 23836004 23758268 23679182 
3205.388 23597416 23512518 23425012 23336512 23249008 23164178 23082998 
3208.763 23005678 22931616 22859946 22789856 22721072 22653066 22585768 
3212.138 22518688 22451272 22383240 22314378 22245216 22176830 22109990 
3215.514 22045460 21982892 21921308 21859524 21796182 21730934 21663918 
3218.889 21596250 21528908 21462548 21397314 21332752 21268546 21204594 
3222.264 21141174 21079152 21019332 20961814 20906356 20851668 20796434 
3225.639 20739606 20680700 20620064 20558536 20497050 20436684 20378306 
3229.015 20322538 20270218 20221790 20177812 20137792 20101074 20065712 
3232.390 20029624 19990904 19948022 19900672 19849580 19796170 19742352 
3235.765 19689892 19640142 19593794 19551438 19512828 19477376 19444318 
3239.140 19412684 19381152 19348690 19314880 19279514 19243178 19206502 
3242.516 19170174 19134438 19099328 19064394 19029292 18993360 18956356 
3245.891 18917904 18877414 18834572 18789038 18741328 18692380 18643746 
3249.266 18597160 18553586 18513232 18475062 18437480 18398868 18357976 
3252.641 18314738 18270432 18226234 18183700 18143002 18103552 18064414 
3256.017 18024210 17982420 17939114 17895020 17850896 17807226 17764112 
3259.392 17721208 17677964 17634588 17591594 17549916 17510274 17473056 
3262.767 17437906 17404416 17372032 17340480 17310478 17282688 17258346 
3266.142 17238348 17222870 17211598 17203566 17197428 17191398 17183364 
3269.518 17170816 17151652 17124458 17088682 17045536 16997466 16947574 
3272.893 16898828 16852702 16809752 16768700 16728133 16686916 16645188 
3276.268 16603841 16564563 16528662 16495965 16465265 16434673 16402327 
3279.643 16367333 16330315 16292954 16257349 16225224 16197054 16172361 
3283.019 16150111 16128996 16108226 16087698 16067205 16046816 16026326 
3286.394 16005561 15984660 15965203 15948739 15937602 15933029 15934886 
3289.769 15941039 15948016 15951350 15947398 15934508 15912717 15883813 
3293.144 15850475 15815219 15779620 15744161 15708569 15672121 15634576 
3296.520 15596073 15557058 15518424 15481031 15445391 15412569 15383149 
3299.895 15358604 15340205 15329496 15327916 15335777 15352940 15377656 
3303.270 15406767 15435983 15460189 15473888 15472309 15452601 15414080 
3306.645 15358398 15289612 15213014 15133650 15055707 14982202 14913957 
3310.021 14850933 14792718 14738693 14688822 14643651 14603968 14570216 
3313.396 14543250 14523105 14509709 14502240 14499534 14499946 14501589 
3316.771 14502789 14502481 14500322 14497273 14494943 14495046 14498540 
3320.146 14505838 14516219 14528484 14541469 14554694 14567954 14581798 
3323.521 14596052 14610101 14622713 14632239 14637585 14638853 14637311 
3326.897 14635460 14636248 14641355 14651533 14665928 14682687 14699824 
3330.272 14715727 14729816 14742189 14753570 14764231 14774104 14782947 
3333.647 14789942 14794775 14797312 14798169 14797449 14795118 14790250 
3337.022 14781234 14766802 14745000 14715487 14678403 14634877 14586560 
3340.398 14535405 14482439 14428384 14373000 14315980 14256501 14194086 
3343.773 14128805 14061104 13992524 13924673 13859740 13799708 13746080 
3347.148 13698887 13657444 13619697 13582569 13542777 13497042 13443519 
3350.523 13381530 13312032 13237181 13160569 13085505 13014689 12949995 
3353.899 12891898 12839781 12792686 12749248 12708645 12670605 12635162 
3357.274 12602381 12571956 12542693 12513193 12481581 12446358 12406841 
3360.649 12363339 12316807 12269088 12222362 12178299 12139010 12105620 
3364.024 12079285 12060581 12049339 12044059 12042730 12041776 12037893 
3367.400 12027469 12008223 11978930 11940001 11892629 11838963 11781253 
3370.775 11721167 11660681 11601293 11544227 11490945 11442771 11400488 
3374.150 11364535 11334707 11309982 11289068 11270501 11253091 11235783 
3377.525 11218204 11200456 11183490 11168022 11154729 11143986 11135352 
3380.901 11127567 11118898 11107851 11092827 11073519 11050373 11024883 
3384.276 10998715 10973670 10951106 10931874 10916890 10906730 10901939 
3387.651 10903434 10911419 10925146 10942916 10961300 10976456 10984612 
3391.026 10982879 10970135 10947131 10916243 10880365 10842620 10805390 
3394.402 10770199 10737899 10708895 10683934 10664068 10650044 10642370 
3397.777 10640502 10642845 10646581 10647939 10643864 10631911 10611437 
3401.152 10583052 10549035 10512134 10474592 10438343 10403996 10371587 
3404.527 10340538 10311425 10284146 10260533 10241433 10227557 10218399 
3407.903 10212903 10208595 10203744 10196756 10187258 10175420 10162361 
3411.278 10148455 10134142 10118846 10102092 10083474 10063195 10042103 
3414.653 10021690 10003245 9987614 9974968 9965204 9957711 9952151 9948151 
3418.510 9945235 9942930 9940014 9935167 9927471 9916556 9902996 9887979 
3422.368 9873167 9859710 9847542 9836256 9824292 9810735 9795416 9779218 
3426.225 9763696 9750684 9741128 9734724 9730285 9725914 9720018 9711852 
3430.083 9701653 9690743 9680104 9670381 9661606 9652865 9643277 9632234 
3433.940 9619970 9606861 9594056 9582166 9571360 9561470 9551682 9541283 
3437.798 9529768 9516627 9501860 9485265 9466538 9445813 9422855 9398070 
3441.655 9372710 9347793 9324467 9303682 9285639 9270068 9255886 9241670 
3445.512 9225729 9206979 9184575 9159193 9131785 9104816 9080184 9060155 
3449.370 9045404 9035458 9028354 9021486 9012183 8998922 8981299 8960664 
3453.227 8939221 8919062 8901373 8886391 8873473 8861468 8849564 8838033 
3457.085 8827415 8818996 8813112 8809460 8806755 8802563 8795090 8783121 
3460.942 8766520 8746438 8724902 8703639 8683897 8666252 8650027 8634581 
3464.800 8618696 8602000 8584121 8565906 8547962 8531370 8516806 8504506 
3468.657 8493930 8483760 8472645 8459231 8443217 8424906 8406056 8388422 
3472.514 8373761 8362986 8355420 8348867 8340524 8327993 8309822 8286350 
3476.372 8259265 8231507 8206249 8185788 8171134 8161681 8156244 8152092 
3480.229 8146994 8139094 8126906 8110095 8089502 8066041 8041468 8017301 
3484.087 7994520 7973393 7953617 7934416 7915047 7895544 7875670 7856506 
3487.944 7838861 7823106 7809510 7798041 7787920 7778846 7770312 7761845 
3491.802 7752839 7742281 7728891 7711925 7691183 7667239 7642182 7618442 
3495.659 7598210 7582936 7572382 7565370 7560649 7557008 7553973 7552557 
3499.516 7553502 7557210 7562908 7568235 7570494 7566685 7555356 7536745 
3503.374 7513247 7487964 7464266 7444716 7430492 7421998 7418223 7418256 
3507.231 7420515 7423043 7423919 7421391 7414616 7403595 7390114 7376970 
3511.089 7366826 7361434 7360827 7363085 7364972 7363389 7356615 7344921 
3514.946 7330363 7316075 7305293 7300002 7300643 7306775 7317221 7331408 
3518.803 7349302 7371275 7396855 7424492 7451794 7474682 7489953 7495515 
3522.661 7491504 7480379 7466120 7452873 7444109 7441412 7444581 7452334 
3526.518 7462952 7474412 7485638 7495886 7504718 7511865 7517664 7522518 
3530.376 7526901 7531991 7539004 7548849 7562537 7579868 7600200 7622320 
3534.233 7644340 7664675 7681774 7694320 7702212 7705719 7705956 7704775 
3538.091 7704370 7706664 7713106 7724371 7740156 7759383 7780836 7803235 
3541.948 7825164 7845508 7863085 7876615 7884207 7883937 7873916 7853199 
3545.805 7822465 7784446 7743125 7703831 7671656 7650006 7639754 7639383 
3549.663 7645183 7652299 7655907 7652198 7639417 7617970 7589578 7557143 
3553.520 7523664 7491166 7460895 7434031 7411246 7393147 7379868 7371275 
3557.378 7366085 7361771 7356177 7346404 7331206 7310718 7286928 7263141 
3561.235 7243128 7230022 7225642 7229382 7238950 7250136 7257514 7254718 
3565.093 7236693 7199062 7140786 7064601 6976812 6887325 6805059 6737783 
3568.950 6688654 6656992 6638521 6627553 6619108 6609083 6595290 6577965 
3572.807 6557849 6536153 6513987 6492058 6470667 6450859 6433338 6418844 
3576.665 6408017 6400048 6393423 6385824 6374795 6359059 6338718 6315117 
3580.522 6290979 6269430 6252690 6242539 6239210 6242303 6250841 6263245 
3584.380 6277397 6290743 6300156 6301971 6293231 6272658 6240858 6201767 
3588.237 6161335 6125377 6098998 6085322 6084481 6094898 6113279 6135626 
3592.094 6157201 6173132 6179450 6173098 6153236 6121075 6080853 6037308 
3595.952 5996051 5961282 5934712 5916036 5902903 5892290 5881274 5868343 
3599.809 5853835 5839058 5826532 5818036 5814947 5817197 5824047 5833987 
3603.667 5846010 5858705 5870862 5880333 5885203 5881878 5867907 5841342 
3607.524 5802455 5754472 5702533 5653387 5612536 5582933 5563970 5552492 
3611.382 5543029 5530813 5512960 5488900 5461319 5434309 5412602 5399350 
3615.239 5395291 5398545 5405087 5409482 5406127 5389721 5357416 5308912 
3619.096 5247167 5178958 5112135 5054742 5012506 4987804 4980162 4986664 
3622.954 5003255 5026450 5054205 5085382 5120148 5157801 5195054 5226006 
3626.811 5240661 5227045 5175303 5082231 4956266 4816634 4687899 4589204 
3630.669 4528632 4503388 4503723 4517316 4532349 4540819 4538744 4526355 
3634.526 4506367 4483200 4460469 4440217 4423078 4409020 4397472 4388702 
3638.384 4382443 4378595 4376118 4373674 4369558 4363031 4354430 4345896 
3642.241 4340943 4343553 4356672 4381707 4417957 4461541 4507271 4548453 
3646.098 4578489 4591313 4582942 4551701 4498366 4426493 4340876 4248751 
3649.956 4157716 4076635 4013291 3973431 3959153 3968783 3996738 4034427 
3653.813 4072220 4100282 4110651 4099580 4069811 4029712 3991287 3965205 
3657.671 3958684 3972260 4001152 4037571 4073256 4101018 4116638 4119047 
3661.528 4110718 4096001 4080247 4068741 4065631 4073892 4095131 4129416 
3665.385 4176852 4235769 4303897 4377457 4451029 4518521 4574102 4614688 
3669.243 4642952 4669343 4711412 4788023 4914944 5099060 5337659 5619249 
3673.100 5925139 6232118 6508269 6717458 6826802 6815796 6687106 6463639 
3676.958 6179416 5864280 5539069 5219399 4916519 4642618 4410258 4228006 
3680.815 4099178 4019177 3978346 3964469 3967780 3982459 4007105 4041985 
3684.673 4087438 4140188 4193546 4238278 4264143 4263842 4234732 4180900 
3688.530 4111822 4038909 3972428 3917425 3875032 3843642 3821379 3806604 
3692.387 3798917 3797780 3801891 3809245 3817802 3825357 3831106 3835184 
3696.245 3838861 3843775 3851665 3862964 3877606 3894590 3912109 3927923 
3700.102 3939592 3944742 3941799 3930966 3914182 3895091 3878442 3868613 
3703.960 3868613 3879412 3900507 3929762 3964837 4003527 4044159 4085164 
3707.817 4124834 4161229 4190468 4208334 4210375 4193412 4156914 4104128 
3711.675 4041450 3977811 3921738 3879713 3854907 3846717 3852099 3866708 
3715.532 3886700 3908464 3930063 3951395 3972628 3995166 4019445 4045196 
3719.389 4071083 4094863 4114498 4129383 4140455 4150457 4162333 4179227 
3723.247 4201709 4228308 4255075 4277226 4290980 4294594 4289273 4279803 
3727.104 4272943 4274114 4287265 4312731 4347134 4385356 4421103 4449724 
3730.962 4468973 4480421 4487987 4497295 4511456 4529435 4544134 4545507 
3734.819 4523744 4473191 4396568 4304633 4213720 4138616 4088575 4066467 
3738.677 4069678 4093726 4134601 4190066 4258789 4337964 4422141 4499973 
3742.534 4555184 4569850 4529804 4435530 4306540 4178491 4086200 4047069 
3746.391 4060079 4109279 4173942 4232390 4268928 4274348 4248450 4197895 
3750.249 4133564 4065598 4000985 3943772 3897833 3867477 3856980 3868580 
3754.106 3900842 3947651 4000182 4049443 4087304 4109079 4114531 4106035 
3757.964 4087873 4063123 4034026 4001319 3966777 3933942 3908063 3894389 
3761.821 3895927 3911741 3937218 3964369 3986104 3997073 3995868 3986171 
3765.678 3974267 3966375 3966041 3972628 3982025 3989013 3988612 3978112 
3769.536 3958517 3933072 3906692 3883524 3866641 3856579 3853303 3855810 
3773.393 3862997 3874163 3888839 3906492 3927054 3949556 3972728 3994197 
3777.251 4010950 4019746 4018207 4005566 3984198 3958551 3934644 3917792 
3781.108 3910872 3913881 3924011 3937419 3950493 3960524 3966877 3970287 
3784.966 3971725 3972361 3972461 3971458 3969418 3966475 3964102 3963767 
3788.823 3967111 3974802 3986338 4001119 4017973 4037236 4059008 4084361 
3792.680 4113293 4144971 4176517 4204386 4224895 4235501 4236539 4231018 
3796.538 4224293 4222152 4228341 4243866 4265649 4287131 4299446 4293857 
3800.395 4263608 4208099 4134702 4058574 3997340 3964001 3963600 3992157 
3804.253 4038541 4087639 4124064 4135772 4116705 4070681 4009981 3951997 
3808.110 3910705 3893420 3899304 3922407 3955308 3992491 4031518 4072922 
3811.968 4118211 4167719 4219107 4266351 4301487 4316446 4306874 4275520 
3815.825 4233728 4197862 4182573 4196490 4237676 4295999 4355266 4398342 
3819.682 4409388 4378762 4307443 4208668 4105767 4020983 3969786 3955475 
3823.540 3970622 4002657 4037872 4066366 4082588 4087672 4087037 4088809 
3827.397 4099646 4122158 4154672 4192141 4228308 4257451 4276256 4284153 
3831.255 4283183 4277260 4270467 4267422 4271304 4284086 4305737 4334249 
3835.112 4364839 4390711 4404769 4401054 4377222 4335755 4284320 4232892 
3838.969 4190167 4161095 4145640 4140221 4139418 4138348 4133698 4124232 
3842.827 4110450 4093726 4076635 4061584 4051517 4049276 4057370 4077237 
3846.684 4108644 4150390 4200103 4254875 4313300 4374176 4437171 4500542 
3850.542 4560273 4607957 4631934 4617668 4555619 4446376 4306172 4163370 
3854.399 4046534 3973197 3945176 3953469 3984332 4026468 4071149 4114197 
3858.257 4154170 4191371 4225999 4257518 4285190 4308146 4326552 4341110 
3862.114 4352857 4361760 4367048 4367081 4360889 4350012 4338968 4334249 
3865.971 4342348 4365408 4400785 4439715 4470914 4482028 4464620 4418425 
3869.829 4352957 4285257 4231252 4201508 4196457 4208635 4226702 4239851 
3873.686 4241558 4231486 4214958 4200839 4198263 4212281 4243464 4287165 
3877.544 4335722 4379632 4409522 4418526 4404668 4371499 4327757 4285726 
3881.401 4257049 4248785 4261801 4290377 4324410 4351016 4358680 4340809 
3885.259 4298275 4241156 4184379 4144168 4130754 4145908 4184045 4234598 
3889.116 4285023 4323004 4340507 4334450 4308314 4270668 4232590 4204319 
3892.973 4191538 4196390 4216731 4249454 4289674 4333412 4376921 4417053 
3896.831 4451096 4476772 4492373 4497060 4492072 4479517 4462813 4445204 
3900.688 4428568 4412601 4395799 4375114 4348239 4314605 4276055 4236539 
3904.546 4200739 4173138 4155609 4148316 4149153 4156044 4166682 4180164 
3908.403 4195921 4214155 4234163 4255175 4275219 4293088 4307711 4319658 
3912.260 4330568 4343218 4359450 4380235 4404300 4428668 4449523 4463482 
3916.118 4468068 4463315 4450829 4433756 4414810 4396200 4378929 4363199 
3919.975 4349309 4337730 4328995 4324109 4323239 4325649 4329765 4333714 
3923.833 4335789 4335688 4334350 4334116 4337630 4346833 4362094 4382510 
3927.690 4405739 4428869 4449188 4464855 4474697 4478045 4475132 4466495 
3931.548 4453272 4436702 4419128 4403061 4391213 4385289 4385657 4391514 
3935.405 4400116 4409020 4415647 4418827 4418425 4416082 4413572 4412769 
3939.262 4414342 4417622 4421371 4423413 4422074 4416785 4408116 4398108 
3943.120 4389004 4383079 4381941 4385690 4393455 4403329 4413371 4421639 
3946.977 4426727 4428233 4426291 4421505 4414676 4406610 4397572 4387899 
3950.835 4378126 4368621 4360622 4355032 4352891 4354764 4360655 4369524 
3954.692 4380603 4392317 4404166 4415614 4426660 4437371 4448050 4458360 
3958.550 4468135 4476639 4483736 4488858 4492172 4493545 4493110 4490934 
3962.407 4487385 4482832 4478078 4473927 4471249 4470680 4472220 4475534 
3966.264 4480087 4484640 4488590 4491335 4492507 4491938 4489829 4486046 
3970.122 4481292 4476203 4472320 4470512 4472186 4477341 4485443 4495152 
3973.979 4505062 4514168 4522137 4529637 4537773 4547315 4557929 4568711 
3977.837 4577551 4582574 4582875 4578689 4571859 4564894 4560206 4559168 
3981.694 4562014 4567773 4574872 4582172 4588769 4594629 4599953 4604809 
3985.552 4609028 4612477 4614922 4616931 4619410 4623595 4630260 4639503 
3989.409 4650119 4660301 4668138 4672358 4672961 4671320 4669645 4669645 
3993.266 4672559 4678252 4685320 4691985 4696573 4698348 4697411 4694597 
3997.124 4690879 4686860 4682540 4677884 4672023 4664822 4656014 4646569 
##END=
