
##TITLE=1132a_1_b
##JCAMP-DX=5.01  $$ Nicolet v. 1
##DATATYPE=INFRARED SPECTRUM
##ORIGIN=UniL
##OWNER=Nicolet
##LONGDATE=2011/09/21
##TIME=13:52:13
##SPECTROMETER/DATA SYSTEM=Nicolet iS5
##DATA PROCESSING=
Ratio against background
%Transmittance->Absorbance
Truncated
ElementMultiply or ElementDivide
##COMMENTS=
Number of sample scans: 32
Collection length: 51.19 sec
Sample gain: 2.0
Background collected on: Mer Sep 21 13:48:37 2011 (GMT+02:00);
Number of background scans: 32
Background gain: 2.0
Sample spacing:  1.000
Number of scan points: 12415
Resolution points: 8192
Number of FFT points: 65536
Apodization: N-B fort;
Phase correction: Mertz;
Laser frequency: 15798.0 cm-1
Number of rejected sample scans: 0
Number of rejected background scans: 0
Bench serial number: ASB1000141;
##RESOLUTION=4.000
##XUNITS=1/CM
##YUNITS=ABSORBANCE
##FIRSTX=649.893372
##LASTX=4000.122314
##FIRSTY=0.067553
##MAXX=4000.122314
##MINX=649.893372
##MAXY=0.333131
##MINY=0.001403
##XFACTOR=1.000000
##YFACTOR=1.000000E-009
##NPOINTS=6950
##DELTAX=0.482117
##ZPD=6100
##XYDATA=(X++(Y..Y))
649.893 67553112 68077528 68625352 69229048 69909520 70673080 71514744 
653.268 72425832 73403584 74454952 75593440 76833544 78184976 79649712 
656.643 81229440 82934088 84785592 86819632 89078784 91597288 94399104 
660.018 97493728 100876864 104530256 108408768 112425640 116424896 120195112 
663.393 123506792 126135904 127922776 128767968 128597440 127341672 
666.285 124930920 121367696 116830608 111766272 106814280 102524560 99161752 
669.660 96678920 94863144 93470896 92312728 91279504 90328440 89465104 
673.035 88713936 88098184 87623504 87278880 87044688 86905672 86858800 
676.410 86915344 87095296 87418704 87899280 88537384 89323936 90243144 
679.785 91282088 92437208 93718328 95144864 96743840 98541112 100557816 
683.159 102814952 105339920 108171144 111369408 115010344 119173368 
686.052 123938048 129371640 135529264 142465120 150229440 158853648 
688.945 168301088 178402208 188767136 198689200 207227344 213251168 
691.838 215646656 213669776 207088016 196317520 182299824 166362624 
694.730 149947904 134291648 120412136 108943432 100128248 93931520 90094544 
698.105 88259784 88041448 89130896 91337736 94577808 98836840 104077752 
701.480 110123176 116595488 122866976 128091488 131432728 132196920 
704.373 130053576 125140144 118029784 109594304 100729176 92259872 84759288 
707.747 78494272 73502112 69644544 66715100 64496712 62817492 61558064 
711.122 60629420 59964356 59503900 59193628 58994852 58887416 58868024 
714.497 58940880 59105616 59348392 59644024 59961464 60277232 60583512 
717.872 60888868 61210880 61564440 61954740 62374040 62808184 63244788 
721.247 63682572 64132616 64615540 65151744 65753752 66422576 67147920 
724.621 67912880 68696376 69478456 70237784 70950888 71595144 72151232 
727.996 72611320 72986744 73312408 73643576 74039144 74553560 75218704 
731.371 76038640 76994016 78054528 79194192 80401216 81682456 83056464 
734.746 84544840 86159888 87900864 89758344 91724304 93802744 96017344 
738.121 98405896 101013144 103878416 107024624 110460904 114189528 118217704 
741.496 122568488 127284808 132424280 138063488 144299152 151254112 
744.388 159102304 168052576 178305824 189972304 202933584 216709536 
747.281 230283088 242204864 250747120 254269152 251869536 243700560 
750.174 231075344 215989120 200732592 187364240 177252608 171144640 
753.066 169081552 170555904 174639360 180204208 186183520 191603328 
755.959 195773312 198301200 199013392 197899392 195016560 190435552 
758.852 184226272 176482640 167375472 157178080 146289664 135229520 
761.744 124536184 114749784 106338608 99603864 94690576 91551632 89979712 
765.119 89632472 90102456 91003752 91977832 92754080 93159576 93095528 
768.494 92539496 91529336 90158520 88558992 86885672 85303536 83946616 
771.869 82904928 82214624 81860976 81799288 81977128 82356464 82916880 
775.244 83651608 84555704 85616536 86810848 88114096 89506840 90984872 
778.619 92555904 94232232 96017016 97897824 99844024 101817992 103785832 
781.993 105725392 107629288 109497048 111324752 113097272 114785392 
784.886 116349912 117754984 118971744 119981792 120774688 121338200 
787.779 121653168 121694688 121435304 120855512 119951560 118737800 
790.671 117241272 115492288 113517616 111335280 108956808 106395840 
793.564 103672744 100817808 97868312 94857160 91808376 88735320 85645632 
796.939 82552080 79483000 76480856 73601600 70901424 68420704 66182792 
800.314 64191996 62440872 60918260 59613732 58516460 57609312 56865072 
803.689 56247832 55714408 55228064 54763580 54310480 53870832 53452160 
807.063 53062044 52704900 52385280 52114236 51912100 51811108 51850940 
810.438 52067244 52487496 53123116 53966376 54987656 56132288 57322664 
813.813 58446972 59372096 59963212 60093364 59682912 58716840 57252684 
817.188 55408224 53337056 51204508 49143740 47248688 45570032 44121728 
820.563 42897264 41880528 41052556 40390712 39866740 39450100 39109048 
823.938 38819024 38567788 38355100 38187848 38072376 38008760 37988144 
827.312 37997476 38024888 38066048 38124284 38207600 38321660 38465252 
830.687 38629644 38803480 38978616 39155496 39342928 39553888 39798536 
834.062 40078352 40386128 40709152 41037736 41368644 41707648 42065092 
837.437 42451476 42871700 43324804 43807228 44317996 44862544 45452580 
840.812 46101192 46817748 47604068 48455080 49363448 50325356 51345444 
844.186 52435528 53610064 54877444 56235008 57665840 59141988 60624580 
847.561 62068252 63424172 64632960 65630020 66351652 66738868 66756756 
850.936 66405392 65727884 64805292 63742808 62657996 61649476 60789996 
854.311 60121028 59652960 59374224 59259252 59276756 59391928 59569756 
857.686 59781420 60004452 60227632 60452260 60689504 60955700 61265628 
861.060 61630612 62056172 62545636 63102192 63730180 64430944 65194972 
864.435 65995024 66780828 67477280 68000520 68266816 68208040 67789968 
867.810 67015328 65926412 64593584 63111968 61588492 60123428 58814524 
871.185 57742056 56961320 56507320 56391552 56609676 57149984 58002060 
874.560 59163856 60644200 62461532 64639880 67204008 70168648 73527304 
877.935 77233272 81190576 85230800 89106320 92530768 95183728 96775672 
881.309 97119640 96157656 93997712 90883640 87180096 83291776 79585864 
884.684 76384256 73906400 72273272 71532952 71670440 72630080 74320968 
888.059 76627800 79401008 82440656 85513968 88341560 90613648 92050488 
891.434 92416712 91576136 89522640 86383496 82404736 77888432 73174664 
894.809 68569864 64298792 60513312 57274308 54575500 52368872 50588884 
898.183 49169748 48048412 47170748 46487308 45951772 45526352 45182076 
901.558 44900716 44674072 44498348 44369040 44278148 44213616 44163136 
904.933 44119196 44081388 44055088 44048084 44065284 44104784 44160276 
908.308 44222348 44285488 44349844 44421300 44507780 44614400 44740548 
911.683 44880472 45026728 45174428 45324276 45482232 45656260 45851492 
915.058 46067884 46300564 46543256 46792284 47049648 47321580 47615976 
918.432 47937208 48283672 48647648 49019348 49391776 49763444 50139224 
921.807 50527316 50936392 51372892 51841084 52346708 52898424 53509236 
925.182 54192180 54953136 55782180 56647768 57500744 58276120 58907752 
928.557 59346076 59564056 59566944 59388812 59089100 58739184 58409144 
931.932 58166248 58061932 58130376 58390608 58844728 59482012 60279740 
935.306 61207868 62227408 63289948 64343864 65333368 66206796 66929236 
938.681 67488504 67903696 68220832 68511664 68857704 69331032 69989272 
942.056 70863072 71955856 73248392 74704296 76276376 77903416 79515512 
945.431 81034224 82369520 83436624 84161496 84490408 84403488 83914056 
948.806 83069304 81937040 80600904 79150616 77667560 76229104 74900712 
952.181 73729472 72747984 71968912 71388504 70991000 70755784 70663960 
955.555 70700680 70856840 71125904 71499504 71967312 72516352 73133648 
958.930 73810760 74545256 75340272 76202608 77138832 78154240 79252168 
962.305 80437424 81719648 83114520 84645640 86340000 88221944 90310376 
965.680 92613312 95127872 97841992 100739376 103806784 107039088 110444720 
969.055 114046072 117876368 121965248 126323688 130921128 135673920 
971.947 140429136 144963536 149026368 152349488 154702960 155951200 
974.840 156074208 155191552 153532128 151425152 149233584 147287216 
977.733 145875648 145186672 145291488 146140224 147562512 149290480 
980.625 150963984 152208624 152672464 152068416 150245264 147193552 
983.518 143051424 138057984 132524536 126781984 121113232 115759384 
986.411 110892104 106606240 102942224 99889312 97403952 95420632 93867808 
989.786 92679384 91793768 91161456 90742416 90500992 90407424 90436024 
993.160 90564376 90775864 91058824 91404912 91807760 92260856 92756584 
996.535 93287168 93845800 94428096 95032896 95661160 96314296 96992488 
999.910 97693472 98413296 99148592 99897656 100661240 101442504 102244880 
1003.285 103070672 103920672 104794408 105692296 106617080 107574440 
1006.178 108571776 109616144 110711896 111858944 113053640 114289872 
1009.070 115562056 116866384 118201304 119566488 120961744 122385568 
1011.963 123836024 125311448 126813128 128345880 129919264 131545200 
1014.856 133236064 135003744 136857504 138804000 140848992 142997264 
1017.748 145253744 147622976 150108592 152712080 155431872 158262032 
1020.641 161188512 164184992 167210720 170200784 173066784 175706416 
1023.534 178001696 179843776 181154096 181895712 182090128 181812400 
1026.427 181188048 180362496 179479360 178668048 178014640 177558880 
1029.320 177287984 177139040 176998816 176707648 176088288 174944512 
1032.213 173089392 170383504 166739552 162150928 156691888 150518752 
1035.106 143850336 136931440 130032304 123398968 117226552 111660976 
1037.999 106774320 102575160 99023968 96051944 93579752 91528240 89831520 
1041.374 88433712 87286704 86351728 85594096 84984920 84503776 84135640 
1044.750 83869880 83697976 83609800 83593568 83638672 83736624 83884512 
1048.125 84084360 84340432 84654664 85021872 85426512 85844352 86244824 
1051.500 86593488 86859976 87019424 87055568 86963432 86750112 86436864 
1054.875 86055488 85648704 85264224 84944272 84724248 84626280 84658568 
1058.250 84819224 85099904 85488912 85969256 86517136 87098168 87662512 
1061.626 88150416 88498336 88644776 88546040 88181840 87558288 86705168 
1065.001 85671136 84517504 83304824 82093560 80937320 79876096 78938720 
1068.376 78139712 77480456 76953864 76549104 76257344 76073576 75996600 
1071.751 76027032 76163160 76399264 76725760 77130328 77602496 78134400 
1075.127 78721248 79359672 80045416 80772192 81533520 82324824 83148504 
1078.502 84013832 84938504 85945464 87057312 88295840 89680456 91228448 
1081.877 92959896 94898272 97069792 99504064 102229368 105268816 108639424 
1085.252 112346448 116380624 120709888 125278968 130003464 134767568 
1088.146 139444960 143903232 148021936 151716464 154935760 157662304 
1091.039 159896080 161635648 162860480 163529808 163590704 163007456 
1093.932 161792688 160035488 157907760 155641904 153523312 151825824 
1096.825 150775888 150535760 151165088 152618640 154736176 157269440 
1099.718 159884832 162183760 163780864 164312720 163498368 161194896 
1102.611 157398336 152251440 145997552 138962112 131494032 123910544 
1105.504 116505608 109508856 103075288 97304824 92232576 87845896 84098640 
1108.879 80926616 78259840 76025816 74159432 72599568 71286504 70167992 
1112.254 69195864 68328784 67537120 66799640 66103428 65442184 64813064 
1115.630 64216160 63654020 63132272 62658960 62242436 61889896 61604260 
1119.005 61384000 61223200 61115364 61054992 61039628 61069368 61145612 
1122.380 61268488 61436172 61644968 61891688 62175180 62497344 62863060 
1125.755 63277216 63743880 64264944 64840792 65472000 66161260 66913268 
1129.131 67734200 68628768 69597288 70633856 71726488 72858944 74010696 
1132.506 75160400 76285624 77361896 78365944 79276424 80077488 80764488 
1135.881 81347224 81852448 82318456 82794456 83332848 83979536 84775720 
1139.256 85753240 86934168 88333560 89958312 91807392 93870032 96126352 
1142.632 98548392 101097568 103728776 106389832 109016208 111536136 
1145.525 113866152 115909328 117569040 118748176 119360136 119344696 
1148.418 118668952 117333768 115369584 112833568 109801864 106357952 
1151.311 102596688 98615120 94504656 90355728 86246640 82239888 78388768 
1154.686 74733024 71303136 68124968 65216340 62587768 60241296 58170152 
1158.061 56360500 54793992 53451412 52312356 51354584 50554824 49885524 
1161.437 49316640 48820500 48372520 47955264 47560036 47183784 46826828 
1164.812 46490224 46174076 45877928 45602968 45352560 45132736 44950472 
1168.187 44811512 44718732 44671720 44668380 44707528 44790024 44919052 
1171.562 45098332 45329832 45612940 45944152 46319404 46736896 47198336 
1174.938 47709416 48277708 48909268 49607784 50373352 51204692 52100900 
1178.313 53063356 54094556 55195856 56363672 57587256 58847040 60119584 
1181.688 61379992 62606668 63786744 64915588 65997108 67042120 68067568 
1185.063 69095856 70151480 71261952 72451912 73737872 75123336 76594632 
1188.438 78120392 79650344 81123512 82475712 83641288 84565848 85208296 
1191.814 85541320 85554232 85249304 84639680 83743856 82584344 81184704 
1195.189 79567560 77760000 75797520 73725040 71604600 69509944 67513320 
1198.564 65681740 64059304 62659988 61469416 60451156 59560860 58754360 
1201.939 58001412 57287312 56611224 55981604 55410636 54911212 54493376 
1205.315 54164744 53930136 53790116 53741476 53776540 53885948 54059996 
1208.690 54292156 54580724 54928096 55338892 55816764 56363332 56977524 
1212.065 57657516 58403304 59218236 60108816 61083516 62149676 63311720 
1215.440 64571744 65930656 67390320 68956728 70639272 72450856 74406064 
1218.816 76518480 78801960 81270840 83940024 86827400 89951536 93329072 
1222.191 96971480 100880544 105045768 109439496 114016528 118713504 
1225.084 123438680 128077552 132489192 136496352 139909536 142528176 
1227.977 144157408 144649712 143916608 141952672 138837568 134732448 
1230.870 129862248 124472192 118830144 113192592 107773136 102756296 
1233.763 98273208 94398648 91166600 88572080 86585352 85159600 84240736 
1237.138 83771664 83690016 83936808 84455440 85192416 86104208 87153120 
1240.514 88304128 89524184 90773736 92004704 93165816 94201448 95061224 
1243.889 95709864 96128416 96318520 96299248 96105808 95783472 95382568 
1247.264 94960648 94574144 94273768 94102464 94084688 94224536 94505472 
1250.639 94896080 95355992 95843328 96325136 96778408 97192864 97570128 
1254.015 97922864 98274336 98654456 99101840 99657336 100356632 101227272 
1257.390 102279808 103505640 104874592 106337672 107832424 109279488 
1260.283 110593608 111685792 112462080 112838680 112744640 112127976 
1263.176 110966784 109268536 107070120 104427960 101415008 98114152 94607600 
1266.551 90984952 87337504 83749728 80303576 77066624 74085552 71392488 
1269.927 69003448 66924328 65155356 63692620 62527076 61642448 61016096 
1273.302 60620768 60426936 60410104 60551172 60836988 61259216 61810084 
1276.677 62480624 63261464 64143560 65121332 66194408 67367144 68646576 
1280.052 70040080 71554128 73194584 74968512 76886384 78962480 81211824 
1283.427 83646352 86267088 89060160 91990288 95005920 98038952 101007712 
1286.803 103831704 106430512 108730152 110671960 112208928 113308408 
1289.696 113953320 114137040 113859648 113122896 111925088 110259568 
1292.589 108120144 105508872 102448704 98990336 95222008 91258984 87234080 
1295.964 83295632 79581648 76218168 73318960 70968256 69225472 68119224 
1299.339 67643896 67761760 68406112 69497000 70940360 72639048 74504392 
1302.715 76444864 78371464 80201176 81847616 83232136 84290896 84973640 
1306.090 85250672 85111920 84564040 83630360 82353576 80808032 79096832 
1309.465 77358096 75757912 74450856 73562824 73153528 73193792 73558976 
1312.840 74043240 74417272 74453216 73989368 72964832 71417712 69471760 
1316.216 67290808 65057628 62925212 60997220 59330844 57936436 56795280 
1319.591 55875624 55148228 54591088 54189180 53932572 53811420 53814080 
1322.966 53928560 54143196 54448452 54837708 55304192 55839300 56431960 
1326.341 57066620 57726196 58395540 59061316 59714200 60348576 60959968 
1329.717 61544964 62100784 62626192 63122696 63595676 64053924 64507284 
1333.092 64965144 65434864 65920360 66424192 66948100 67494808 68068416 
1336.467 68673048 69311440 69983896 70688248 71421936 72183664 72976008 
1339.842 73804392 74677496 75602472 76583680 77621712 78714056 79857808 
1343.218 81051624 82297992 83603168 84976464 86426920 87961872 89585312 
1346.593 91297864 93097536 94982168 96950440 99002072 101136632 103351552 
1349.968 105640488 107992320 110394504 112834768 115306920 117814336 
1352.861 120371168 123000136 125728760 128587816 131605800 134808864 
1355.754 138220064 141852944 145705216 149746320 153914640 158108368 
1358.647 162192720 166031936 169498624 172507840 175032096 177100992 
1361.540 178788464 180182896 181378368 182449792 183447152 184403744 
1364.433 185336224 186249008 187137360 187990352 188797280 189557040 
1367.326 190288832 191038912 191879664 192889792 194143248 195693664 
1370.219 197566432 199767760 202294528 205147440 208331120 211851008 
1373.113 215701808 219856336 224267376 228883312 233669040 238622784 
1376.006 243771808 249151600 254767600 260563456 266390272 272027008 
1378.899 277194176 281576672 284881824 286829792 287163392 285690784 
1381.792 282310016 277075872 270210048 262083824 253115024 243629936 
1384.685 233825136 223728896 213264240 202344320 190974768 179302128 
1387.578 167591680 156145600 145217888 134982624 125527816 116896352 
1390.471 109123080 102226472 96214008 91067376 86733248 83134136 80182256 
1393.846 77805456 75942064 74537944 73537392 72863720 72427760 72149784 
1397.221 71972160 71883984 71923632 72174384 72735760 73691272 75095128 
1400.597 76960904 79275992 82013224 85137792 88594136 92279496 96040824 
1403.972 99654216 102839344 105323192 106865512 107314272 106631400 
1406.865 104882304 102217376 98829848 94950832 90816864 86645704 82648784 
1410.240 78995192 75799616 73126272 70986352 69357896 68205984 67500424 
1413.615 67220016 67346136 67855072 68709024 69855232 71243440 72831864 
1416.991 74600848 76556496 78717712 81097480 83678848 86413656 89235016 
1420.366 92085056 94935664 97787384 100652720 103529360 106382288 109137008 
1423.741 111674216 113866408 115602840 116805632 117435496 117469544 
1426.634 116881568 115640888 113723840 111143288 107965848 104323928 
1429.527 100395456 96358352 92378056 88586584 85079224 81933192 79200272 
1432.903 76901976 75029984 73544216 72387664 71501768 70852232 70441736 
1436.278 70306968 70491704 71012928 71840856 72907808 74131136 75433808 
1439.653 76760072 78067568 79324312 80507496 81595288 82569872 83419960 
1443.028 84140856 84735248 85210032 85572192 85823968 85961464 85978296 
1446.404 85874240 85664400 85388632 85104496 84873560 84743984 84733024 
1449.779 84830704 85011320 85254104 85554592 85928872 86402864 86998200 
1453.154 87715920 88533888 89406320 90276800 91094344 91818856 92434456 
1456.529 92950128 93394552 93793208 94154072 94471208 94735616 94947824 
1459.905 95122144 95281920 95451960 95650592 95884896 96152936 96449032 
1463.280 96772192 97131864 97549848 98053688 98673712 99436904 100365352 
1466.655 101483688 102817592 104389024 106210720 108279552 110577536 
1469.548 113065936 115697880 118418384 121150152 123795840 126230584 
1472.441 128312304 129913104 130942088 131350800 131125912 130272808 
1475.334 128815040 126802432 124320592 121486064 118416896 115216016 
1478.227 111944512 108620200 105239888 101799224 98310192 94814176 91370568 
1481.603 88041080 84877264 81906744 79135712 76557208 74157272 71921248 
1484.978 69835696 67889752 66077464 64400428 62867804 61494996 60297636 
1488.353 59286328 58463504 57825476 57369208 57095188 57007752 57108036 
1491.728 57386676 57819492 58370824 58997280 59659416 60328128 60985744 
1495.104 61629424 62263700 62890932 63501208 64068860 64556680 64930400 
1498.479 65166636 65261664 65231556 65110280 64943448 64777708 64659140 
1501.854 64623496 64691060 64865724 65131724 65456784 65788872 66068932 
1505.229 66244348 66292248 66242068 66174692 66190316 66349104 66654636 
1508.604 67065320 67527016 67990832 68424152 68813760 69160152 69474720 
1511.980 69773432 70072744 70383992 70711136 71049880 71389712 71718752 
1515.355 72028592 72322976 72621456 72958288 73368384 73872536 74466704 
1518.730 75121952 75790576 76418944 76970120 77440336 77870984 78329792 
1522.105 78882696 79557696 80334360 81160216 81973688 82729152 83401168 
1525.481 83992888 84528456 85042920 85566616 86117416 86705736 87339936 
1528.856 88032488 88799744 89654752 90598992 91616888 92682992 93769928 
1532.231 94864504 95981600 97167048 98484120 99978272 101664168 103518256 
1535.606 105500504 107565696 109678456 111824776 113999376 116214232 
1538.500 118496200 120887200 123432296 126162216 129096048 132221936 
1541.393 135513600 138951632 142522064 146221216 150044080 153972704 
1544.286 157961840 161936848 165811072 169495984 172915040 176009136 
1547.179 178708752 180925456 182562512 183525408 183776960 183367200 
1550.072 182434800 181146608 179622992 177902368 175940656 173667120 
1552.965 171057664 168190144 165250864 162484032 160073760 158081792 
1555.858 156416032 154870912 153164432 151007472 148205584 144759472 
1558.751 140953632 137261248 134106200 131650136 129806088 128363056 
1561.644 127106024 125860440 124483408 122870496 120960120 118750736 
1564.537 116308376 113750752 111211048 108772848 106444648 104153920 
1567.430 101780760 99198800 96331504 93197072 89917512 86682264 83667760 
1570.805 80983904 78649760 76619656 74820640 73180384 71638208 70145128 
1574.181 68664008 67177552 65708452 64336180 63192932 62429280 62152356 
1577.556 62399632 63149752 64353972 65969528 67975688 70378808 73201016 
1580.931 76466992 80188352 84347872 88888128 93712776 98667104 103545128 
1584.306 108110872 112093152 115238264 117345920 118278656 117992656 
1587.199 116538752 114074992 110847280 107175368 103431760 99957368 97045592 
1590.575 94915624 93689552 93420720 94102792 95691072 98110008 101262752 
1593.950 105044288 109328192 113975984 118849008 123801824 128704768 
1596.843 133453248 137954944 142126464 145877088 149089648 151635984 
1599.736 153393232 154266912 154220592 153279024 151524144 149069888 
1602.629 146057056 142645088 138992064 135260224 131594376 128096368 
1605.522 124827728 121803976 119008304 116410168 113982320 111711584 
1608.415 109594992 107633864 105824352 104154008 102606376 101170384 
1611.308 99846320 98646096 97584568 96667664 95880024 95180840 94505720 
1614.684 93784816 92959816 92014896 90996600 90013784 89199208 88650536 
1618.059 88404384 88432616 88671912 89048120 89499312 89985576 90486712 
1621.434 91005912 91565296 92202504 92959288 93871584 94962952 96236584 
1624.809 97680312 99269336 100974016 102758816 104585472 106420136 108234272 
1628.185 110011448 111749688 113459752 115159248 116865128 118591840 
1631.078 120348872 122144472 123985080 125880272 127846120 129906000 
1633.971 132097688 134474832 137109728 140067744 143391712 147092784 
1636.864 151138624 155488496 160111984 164998144 170154192 175598064 
1639.757 181354160 187434336 193832528 200526832 207468560 214592272 
1642.650 221830224 229095984 236310000 243414352 250375248 257209120 
1645.543 263976992 270777504 277677664 284679232 291715424 298662656 
1648.436 305397824 311815392 317836576 323329792 328036192 331534144 
1651.329 333130816 331977664 327444224 319696800 309974720 299947904 
1654.222 290771872 282650400 275183136 267785520 260011728 251642224 
1657.115 242674560 233255008 223592544 213894944 204274752 194755616 
1660.008 185295600 175824352 166295728 156722560 147193920 137873520 
1662.901 128972368 120695272 113196632 106543600 100712504 95614336 91120496 
1666.277 87094240 83417232 80010240 76846720 73955152 71404672 69274912 
1669.652 67622904 66463000 65766276 65475352 65529288 65873964 66467636 
1673.027 67286392 68322152 69585776 71104672 72914664 75042976 77489096 
1676.402 80234424 83253648 86533872 90083096 93924160 98080096 102545160 
1679.778 107279704 112218152 117282504 122431336 127679200 133099512 
1682.671 138808752 144916400 151447920 158254784 165037632 171447968 
1685.564 177205808 182140720 186151840 189174928 191138208 191986000 
1688.457 191700496 190300944 187849440 184440080 180208320 175328576 
1691.350 170002928 164448368 158820208 153164752 147397568 141313744 
1694.243 134678592 127383384 119608768 111860952 104789640 98852568 94153328 
1697.618 90455656 87366032 84469480 81479392 78342608 75264216 72596904 
1700.993 70599592 69281872 68428960 67754024 66985792 65932044 64472496 
1704.369 62545480 60150828 57345196 54236708 50957520 47643852 44416860 
1707.744 41361612 38529732 35934836 33556940 31358644 29305136 27381792 
1711.119 25600078 23988014 22567758 21340060 20273274 19314396 18405884 
1714.494 17513656 16637716 15807247 15058040 14407490 13839626 13317600 
1717.870 12809033 12312546 11861096 11499994 11257851 11129368 11078347 
1721.245 11052957 11009318 10925146 10809976 10694971 10616191 10591303 
1724.620 10610656 10643083 10655070 10629195 10571136 10503953 10452801 
1727.995 10429450 10425106 10416146 10379053 10306675 10212936 10125731 
1731.371 10068180 10044646 10031862 9988530 9874556 9682781 9451029 9247662 
1735.228 9127283 9101230 9140819 9198450 9231348 9213985 9146233 9048855 
1739.085 8953426 8882029 8836951 8800467 8750393 8673587 8574286 8469502 
1742.943 8377781 8307289 8250755 8188962 8102937 7986049 7847363 7707642 
1746.800 7586712 7492751 7416976 7338653 7235513 7098751 6937722 6776956 
1750.658 6642491 6548599 6491856 6456913 6428462 6400585 6379132 6375535 
1754.515 6397357 6440602 6489199 6520512 6519133 6485365 6437508 6400922 
1758.373 6395743 6424864 6474266 6518729 6536085 6518090 6475342 6432161 
1762.230 6412422 6427487 6471273 6526230 6574736 6609453 6634752 6662173 
1766.087 6701979 6756023 6814988 6864603 6893082 6900421 6898232 6902979 
1769.945 6925266 6962469 6997655 7007925 6978832 6914560 6838852 6782004 
1773.802 6764941 6788029 6834981 6882175 6912472 6921798 6920586 6925333 
1777.660 6949170 6992503 7043519 7083225 7096865 7083090 7055407 7035235 
1781.517 7038367 7067497 7110101 7146781 7160424 7147421 7118117 7092621 
1785.375 7089186 7113907 7159851 7212672 7259974 7298554 7335519 7382564 
1789.232 7447615 7527778 7607416 7663799 7680189 7653715 7600908 7548276 
1793.089 7519855 7523934 7551951 7585937 7610451 7620836 7623669 7631728 
1796.947 7655671 7696849 7745621 7786773 7807284 7804787 7788764 7776552 
1800.804 7781578 7808060 7847363 7885421 7910728 7921559 7926621 7940018 
1804.662 7972887 8026584 8092607 8156920 8208681 8245014 8272908 8303912 
1808.519 8347313 8403962 8465684 8520151 8559553 8585777 8610584 8649115 
1812.376 8711177 8796274 8893595 8987387 9066481 9129754 9186165 9250199 
1816.234 9332119 9433217 9543316 9647648 9733775 9798772 9849575 9898250 
1820.091 9953881 10016570 10077065 10121932 10140858 10131361 10099685 
1823.467 10057024 10013010 9970968 9928149 9879607 9824800 9770067 9726252 
1827.324 9702195 9698841 9706363 9707956 9687084 9638297 9571191 9507685 
1831.181 9469857 9468401 9498338 9542672 9581557 9601305 9601169 9591888 
1835.039 9589144 9603913 9636197 9674989 9706024 9719476 9717307 9712089 
1838.896 9721408 9757394 9821139 9901776 9982021 10047529 10090427 10112843 
1842.754 10122950 10129428 10136075 10141468 10142418 10140315 10142622 
1846.129 10161072 10203439 10269896 10350548 10430196 10494415 10537323 
1849.504 10564040 10588858 10626581 10684477 10759025 10838069 10908701 
1852.879 10964189 11008298 11052446 11109244 11183694 11269889 11353210 
1856.255 11418210 11456924 11472165 11475532 11480159 11492952 11510474 
1859.630 11521599 11514727 11486862 11446309 11410285 11395862 11412632 
1863.005 11457502 11518095 11579071 11631105 11674704 11718512 11770903 
1866.380 11834060 11899099 11949843 11971777 11960980 11929613 11900972 
1869.756 11900393 11939728 12015104 12109061 12201915 12279279 12338147 
1873.131 12384646 12427741 12471966 12513125 12540408 12543205 12518820 
1876.506 12475103 12428798 12395454 12384101 12391362 12404659 12410046 
1879.881 12400840 12381543 12365895 12368452 12397022 12448062 12509988 
1883.257 12569159 12618276 12660814 12707622 12770711 12854251 12951667 
1886.632 13047501 13126723 13180822 13213543 13238138 13271957 13325390 
1890.007 13398922 13483404 13567664 13645511 13719166 13796664 13886321 
1893.382 13989650 14100087 14205213 14293481 14361870 14417526 14474663 
1896.758 14545821 14635906 14738899 14843219 14937721 15019313 15095637 
1900.133 15180930 15288617 15422525 15575740 15732789 15879069 16006697 
1903.508 16117683 16220752 16323812 16427137 16520573 16588004 16616682 
1906.883 16602911 16556509 16495552 16439732 16401088 16380547 16370224 
1910.259 16361037 16350612 16345521 16357495 16397234 16467469 16560776 
1913.634 16663916 16763432 16853290 16936310 17020380 17111910 17210184 
1917.009 17306066 17387862 17448702 17493200 17536252 17596388 17686108 
1920.384 17803394 17933832 18056642 18155612 18226234 18279002 18331810 
1923.760 18401806 18493940 18599372 18700404 18781840 18838794 18879696 
1927.135 18921226 18978648 19057124 19149570 19239922 19313702 19366500 
1930.510 19407312 19453224 19520280 19614558 19728898 19848574 19957910 
1933.885 20050270 20130538 20210508 20299902 20399628 20499238 20582992 
1937.260 20639522 20668364 20681360 20697066 20729352 20779124 20833314 
1940.636 20870268 20873050 20838424 20780894 20724382 20692550 20695156 
1944.011 20725148 20764212 20794590 20809502 20815342 20828274 20861298 
1947.386 20918628 20990710 21061484 21117344 21156202 21187894 21230132 
1950.761 21295272 21382558 21476962 21558712 21611956 21635950 21645284 
1954.137 21663186 21707490 21781376 21869734 21947446 21994602 22004886 
1957.512 21990664 21976060 21985088 22027542 22096288 22171356 22234926 
1960.887 22281698 22322298 22376298 22460310 22577530 22715380 22853136 
1964.262 22972488 23068322 23151526 23239954 23346652 23470686 23595842 
1967.638 23698882 23762922 23787456 23788402 23790396 23812308 23855080 
1971.013 23903216 23933008 23926110 23880110 23810978 23742694 23696118 
1974.388 23677082 23675228 23674634 23666200 23656332 23665394 23716168 
1977.763 23817102 23954122 24097172 24209160 24266374 24269388 24238624 
1981.139 24203728 24188000 24198020 24223314 24245456 24250080 24235296 
1984.514 24214030 24204290 24218268 24254988 24301202 24339926 24362004 
1987.889 24371990 24386746 24425792 24499264 24600696 24708744 24797140 
1991.264 24849658 24866290 24865132 24869482 24897236 24950154 25013784 
1994.640 25067278 25096274 25099468 25091288 25091568 25114668 25161152 
1998.015 25219192 25270992 25303266 25317492 25326694 25349594 25397650 
2001.390 25467564 25541564 25599198 25626016 25623732 25609532 25607844 
2004.765 25635964 25694770 25767124 25827284 25855206 25845606 25810160 
2008.141 25770042 25743110 25733900 25733090 25724828 25698076 25654488 
2011.516 25608724 25578078 25575054 25598706 25635436 25668126 25687528 
2014.891 25696774 25711822 25750634 25820042 25910914 26000646 26064182 
2018.266 26086102 26071184 26039518 26019782 26031954 26079838 26150670 
2021.642 26224190 26283500 26324264 26355000 26389786 26437744 26497540 
2025.017 26555478 26595354 26609022 26599228 26580560 26569922 26577002 
2028.392 26598418 26621634 26631568 26622022 26601308 26587006 26596974 
2031.767 26638862 26704746 26774130 26825268 26845288 26835630 26810360 
2035.143 26786782 26773460 26768422 26758766 26733112 26687692 26631780 
2038.518 26581334 26552626 26549880 26564708 26578480 26573902 26543398 
2041.893 26494512 26444822 26411370 26402286 26412108 26424398 26420630 
2045.268 26392566 26344050 26291244 26252032 26237846 26247526 26271074 
2048.644 26294060 26305784 26305466 26299094 26293814 26293638 26296382 
2052.019 26295680 26288428 26276776 26269068 26276600 26306592 26357746 
2055.394 26419646 26477468 26519694 26544982 26562172 26584786 26625050 
2058.769 26685824 26758976 26828546 26879972 26905704 26909724 26903836 
2062.145 26899570 26903942 26914622 26923120 26920440 26903836 26877892 
2065.520 26853642 26841552 26845182 26860408 26877646 26887338 26886280 
2068.895 26878984 26874720 26882122 26903660 26932638 26957068 26966376 
2072.270 26954990 26926222 26889594 26855720 26831260 26816068 26805742 
2075.646 26795134 26783364 26773354 26770324 26777408 26791400 26803592 
2079.021 26803450 26783574 26743788 26692344 26641538 26600884 26574042 
2082.396 26555902 26537444 26510044 26470916 26423940 26378448 26342290 
2085.771 26318738 26304444 26292196 26275510 26252454 26226866 26205008 
2089.146 26192056 26188008 26187130 26180760 26163410 26134870 26102216 
2092.522 26075440 26062634 26065552 26079346 26094404 26101724 26098802 
2095.897 26088774 26078502 26073892 26075652 26078044 26074172 26058692 
2099.272 26032306 26002650 25979220 25968634 25970708 25977288 25977040 
2102.647 25960930 25926740 25879226 25828726 25785090 25752356 25728660 
2106.023 25708410 25686194 25661588 25639058 25625032 25623802 25634346 
2109.398 25649848 25660990 25661728 25651604 25636596 25625736 25624962 
2112.773 25634558 25648160 25656806 25653362 25637544 25615472 25596986 
2116.148 25590412 25597372 25612766 25627704 25633328 25625946 25607670 
2119.524 25584544 25562088 25541986 25521148 25493774 25457022 25412192 
2122.899 25366352 25328870 25306920 25300880 25305690 25312258 25313242 
2126.274 25307200 25299334 25297542 25309062 25334736 25368738 25400916 
2129.649 25421890 25427090 25419290 25405800 25394488 25390940 25396562 
2133.025 25409384 25428670 25456250 25496446 25552670 25624646 25704896 
2136.400 25780872 25841034 25878698 25896144 25902508 25908732 25921782 
2139.775 25940880 25958468 25964624 25956040 25936484 25917808 25913658 
2143.150 25931594 25969372 26017248 26060980 26092398 26112596 26131104 
2146.526 26159996 26206030 26265478 26324476 26366760 26380526 26364434 
2149.901 26328418 26286914 26249778 26217714 26181956 26129734 26053556 
2153.276 25956674 25851444 25755978 25684190 25638424 25611992 25595718 
2156.651 25585458 25590202 25629004 25720364 25872440 26072308 26289096 
2160.027 26485426 26634352 26724794 26764474 26772228 26764826 26752810 
2163.402 26738572 26720038 26697806 26678636 26672330 26686108 26718382 
2166.777 26756474 26780366 26774096 26730326 26656194 26569464 26490356 
2170.152 26430172 26388024 26351478 26304164 26237072 26151832 26062104 
2173.528 25986046 25937118 25917630 25918512 25924278 25922872 25909858 
2176.903 25889916 25870540 25857352 25848736 25835830 25809280 25765190 
2180.278 25708586 25652906 25613610 25599094 25606580 25624048 25635120 
2183.653 25627282 25598672 25556606 25513206 25479440 25458744 25447044 
2187.029 25438332 25427510 25415004 25406082 25406292 25416936 25433554 
2190.404 25445850 25444094 25424418 25390166 25350860 25316474 25292626 
2193.779 25276646 25260420 25234574 25194368 25143316 25091254 25048042 
2197.154 25020170 25006448 24999182 24989954 24973526 24951102 24929064 
2200.530 24914852 24911098 24914536 24917730 24913342 24899378 24881132 
2203.905 24868290 24871938 24896850 24939626 24990724 25039652 25079352 
2207.280 25109964 25137452 25168596 25206902 25250200 25290518 25319880 
2210.655 25334702 25337230 25335406 25338144 25350648 25371618 25396034 
2214.031 25416232 25427792 25432218 25434748 25441072 25454248 25471112 
2217.406 25485272 25489558 25480178 25458850 25431726 25405448 25384160 
2220.781 25367300 25350824 25330278 25304390 25275592 25248480 25227200 
2224.156 25211890 25198088 25178566 25147180 25101960 25046708 24989286 
2227.531 24937066 24894956 24862886 24837696 24815874 24795912 24779600 
2230.907 24768760 24764024 24761358 24752450 24729298 24686754 24626574 
2234.282 24556762 24489168 24433924 24396034 24373218 24358184 24344164 
2237.657 24326538 24306318 24287852 24276184 24273102 24276710 24282490 
2241.032 24285226 24283472 24278638 24273836 24271244 24270228 24266548 
2244.408 24255756 24235962 24209230 24182640 24164494 24160326 24169854 
2247.783 24187370 24203450 24209896 24203414 24185794 24163584 24143372 
2251.158 24128380 24118328 24110130 24100638 24090132 24082496 24082918 
2254.533 24095526 24120954 24154126 24187264 24213574 24228674 24232352 
2257.909 24227202 24216026 24199456 24176124 24143618 24101024 24051292 
2261.284 24000586 23955592 23921314 23897718 23879970 23861486 23836072 
2264.659 23801702 23761312 23720824 23685584 23658468 23638034 23620190 
2268.034 23600774 23577510 23551204 23524900 23501570 23481984 23464846 
2271.410 23447710 23428616 23407912 23388260 23372804 23363226 23358538 
2274.785 23354902 23348014 23335708 23318822 23301270 23288650 23284280 
2278.160 23287670 23295046 23299942 23296270 23281204 23255160 23221114 
2281.535 23182770 23142370 23100504 23057420 23012700 22968052 22926098 
2284.911 22889458 22858724 22832216 22806130 22775784 22738598 22694816 
2288.286 22646992 22599134 22554566 22513942 22476256 22438956 22400438 
2291.661 22360842 22322054 22286440 22255294 22228266 22202844 22176062 
2295.036 22146284 22114068 22081994 22053372 22030156 22012484 21998682 
2298.412 21986204 21973514 21961492 21951906 21947480 21949850 21958076 
2301.787 21969612 21981602 21991954 22001050 22011368 22026044 22046748 
2305.162 22073558 22103782 22134256 22162638 22188232 22212292 22237332 
2308.537 22264920 22294916 22325576 22354144 22379088 22400438 22420220 
2311.913 22440562 22463660 22489656 22517086 22543990 22568874 22591772 
2315.288 22614598 22639242 22666854 22697088 22727810 22756406 22781372 
2318.663 22802952 22822542 22842274 22863194 22883730 22900636 22909508 
2322.038 22906224 22888026 22854602 22806444 22745058 22672438 22590968 
2325.414 22504138 22417220 22336424 22268408 22217698 22185548 22168914 
2328.789 22162498 22159256 22153434 22142728 22127770 22111036 22095208 
2332.164 22082098 22072094 22064632 22059892 22058532 22062296 22071990 
2335.539 22086700 22103922 22119508 22129478 22132232 22128398 22120832 
2338.915 22112884 22106572 22101446 22094824 22083598 22065086 22038696 
2342.290 22004814 21963828 21915070 21856040 21783918 21698120 21602412 
2345.665 21504952 21418374 21355304 21325304 21333344 21378764 21456386 
2349.040 21558118 21675758 21800572 21924340 22040508 22143356 22229000 
2352.416 22296624 22348146 22387774 22420360 22450156 22478350 22503614 
2355.791 22521692 22528288 22520644 22497926 22462124 22416312 22363180 
2359.166 22304646 22241344 22173692 22102318 22029494 21957588 21888654 
2362.541 21823810 21762458 21703066 21644658 21586952 21531100 21478424 
2365.917 21429582 21383218 21336544 21286536 21231106 21170498 21107256 
2369.292 21044720 20986016 20932260 20882506 20834496 20786284 20737066 
2372.667 20687336 20639036 20592860 20548948 20505802 20461482 20414874 
2376.042 20366326 20317888 20271816 20230190 20192806 20158096 20123492 
2379.417 20087090 20048328 20008496 19970192 19935742 19906602 19882426 
2382.793 19861962 19843786 19827486 19813650 19804042 19800194 19802724 
2386.168 19811222 19824158 19839868 19857384 19876564 19897306 19919438 
2389.543 19942056 19963010 19980496 19993436 20002042 20007870 20013386 
2392.918 20019736 20027196 20034518 20039582 20041146 20039340 20035524 
2396.294 20032262 20031290 20032574 20034448 20034656 20030736 20021922 
2399.669 20009638 19996490 19985282 19978172 19975674 19976888 19980704 
2403.044 19985906 19991564 19997670 20003670 20008738 20011964 20012518 
2406.419 20010924 20008738 20008772 20012728 20021646 20034066 20047044 
2409.795 20057488 20063282 20064670 20063734 20064012 20068002 20077164 
2413.170 20090664 20106418 20122036 20136612 20149524 20161462 20172952 
2416.545 20183260 20191660 20197006 20199052 20199124 20199226 20201206 
2419.920 20205752 20212000 20217208 20218458 20214326 20205232 20193742 
2423.296 20182982 20175380 20171598 20170312 20169306 20166288 20160804 
2426.671 20153758 20146434 20140118 20134668 20128700 20120578 20109714 
2430.046 20096700 20083862 20073902 20068316 20066892 20067204 20066234 
2433.421 20061340 20051936 20038750 20024248 20010402 19997774 19985388 
2436.797 19971614 19954024 19931856 19905388 19875212 19842748 19808342 
2440.172 19772034 19733856 19695056 19657718 19624750 19598890 19581108 
2443.547 19570536 19564852 19560554 19555596 19549254 19542220 19535704 
2446.922 19530574 19525756 19519518 19510022 19496194 19478936 19460638 
2450.298 19444420 19432190 19424394 19419404 19414830 19408698 19400486 
2453.673 19390646 19381014 19372838 19365980 19359604 19351982 19342248 
2457.048 19330434 19318102 19307086 19299396 19296070 19297178 19302652 
2460.423 19312664 19327594 19347998 19373876 19403846 19435516 19465630 
2463.799 19491654 19512898 19530608 19547278 19565788 19588040 19613416 
2467.174 19640106 19665450 19687568 19705738 19720854 19734100 19746234 
2470.549 19757296 19766452 19772762 19776368 19778520 19781052 19785628 
2473.924 19792564 19800436 19807060 19809766 19807510 19800886 19792634 
2477.300 19785108 19780566 19779350 19780460 19782438 19784240 19785386 
2480.675 19787016 19790310 19795616 19802586 19810146 19817324 19823880 
2484.050 19831302 19840874 19854504 19872540 19893942 19916248 19937616 
2487.425 19956696 19973660 19990072 20007072 20025218 20043920 20061098 
2490.801 20075048 20085076 20091808 20096668 20101734 20107772 20114192 
2494.176 20119814 20123006 20122974 20120300 20116414 20112352 20109196 
2497.551 20106522 20103226 20098956 20093994 20089552 20087748 20089760 
2500.926 20095348 20102808 20109228 20112284 20111102 20106800 20101420 
2504.302 20097464 20096494 20098228 20101006 20103190 20103538 20102184 
2507.677 20100138 20098714 20098192 20097846 20096042 20091148 20082612 
2511.052 20070952 20057696 20044962 20033304 20022824 20012416 20001346 
2514.427 19988962 19975742 19962144 19948648 19934772 19919402 19901366 
2517.802 19880762 19858736 19837996 19821556 19811152 19806608 19805846 
2521.178 19805674 19802586 19795546 19784588 19771374 19757782 19744362 
2524.553 19729902 19713052 19691626 19664756 19633486 19599652 19565094 
2527.928 19531300 19498584 19466080 19432848 19398720 19364280 19330746 
2531.303 19298946 19268880 19239196 19208372 19175022 19139112 19102134 
2534.679 19066194 19033236 19004400 18979202 18956322 18934654 18913406 
2538.054 18892952 18874056 18857236 18841804 18826684 18809624 18789454 
2541.429 18766030 18740602 18715348 18692380 18672972 18657340 18645164 
2544.804 18635722 18628528 18623858 18621508 18620884 18620746 18619536 
2548.180 18615938 18610024 18603420 18598578 18598164 18603280 18613484 
2551.555 18626626 18640254 18652360 18663046 18673840 18687052 18704416 
2554.930 18726486 18751812 18778244 18804124 18828102 18850248 18871460 
2558.305 18892086 18912228 18931160 18948256 18963936 18979616 18997444 
2561.681 19019562 19046634 19077654 19109334 19138940 19163942 19183922 
2565.056 19200650 19216996 19235214 19256480 19280102 19304004 19326486 
2568.431 19346784 19365424 19384202 19404748 19427720 19452910 19478900 
2571.806 19504026 19527558 19549394 19570016 19589912 19609220 19627212 
2575.182 19642950 19655984 19666316 19674982 19683166 19691626 19700014 
2578.557 19707504 19712706 19714508 19713052 19708718 19702546 19695404 
2581.932 19687602 19678622 19668744 19658204 19648322 19640940 19637576 
2585.307 19638790 19644336 19652586 19661912 19671412 19680980 19691208 
2588.683 19703206 19717144 19732366 19748074 19762948 19776924 19790830 
2592.058 19806124 19823880 19844308 19866332 19887976 19907298 19923358 
2595.433 19936470 19948336 19960546 19973764 19987226 19999230 20007522 
2598.808 20010924 20009606 20005024 19999266 19994130 19989898 19986186 
2602.184 19981710 19975292 19967070 19958050 19949132 19941188 19933904 
2605.559 19926342 19916940 19905182 19890680 19874830 19858668 19843580 
2608.934 19829602 19816284 19803038 19789338 19775744 19763470 19753552 
2612.309 19746998 19743496 19741554 19739888 19737082 19732574 19726678 
2615.685 19719986 19712810 19705146 19696480 19686112 19674048 19660978 
2619.060 19647664 19635324 19624508 19614418 19604228 19592650 19578890 
2622.435 19563154 19546378 19529810 19514388 19500768 19488604 19477724 
2625.810 19468090 19459806 19453224 19448718 19445496 19442446 19438290 
2629.186 19431844 19422834 19411988 19400592 19390092 19381396 19374640 
2632.561 19369582 19365944 19363728 19363796 19366948 19373740 19384028 
2635.936 19397092 19411296 19425780 19440472 19456064 19473772 19494842 
2639.311 19519622 19547418 19576638 19605580 19632828 19658134 19681882 
2642.687 19704764 19727302 19749772 19771480 19792286 19812298 19832274 
2646.062 19852944 19875384 19899458 19924260 19948508 19970538 19989412 
2649.437 20005234 20018486 20030144 20041178 20051728 20061236 20069460 
2652.812 20075534 20079210 20080878 20080496 20078032 20073452 20066476 
2656.188 20057452 20047668 20038472 20032296 20030422 20033788 20042046 
2659.563 20054018 20068384 20084138 20101212 20120092 20141298 20165628 
2662.938 20192702 20222172 20252928 20284174 20315248 20346048 20376570 
2666.313 20406678 20435988 20463982 20489964 20513618 20534706 20553498 
2669.688 20569688 20583272 20593348 20599462 20601406 20599358 20594596 
2673.064 20589004 20584208 20581882 20582960 20587580 20595848 20607418 
2676.439 20622184 20639766 20659780 20681638 20704574 20728066 20751664 
2679.814 20775958 20801264 20828238 20857196 20887824 20919358 20950756 
2683.189 20981460 21011090 21040198 21069380 21099328 21130564 21162880 
2686.565 21196208 21230516 21266074 21303728 21343716 21386524 21431636 
2689.940 21478492 21526436 21575636 21626652 21681018 21740618 21806496 
2693.315 21879106 21957728 22041068 22128118 22217838 22310298 22405914 
2696.690 22505394 22609326 22717650 22830156 22946288 23065492 23187210 
2700.066 23310710 23434350 23556522 23674458 23785742 23888162 23980276 
2703.441 24061344 24131322 24189998 24236978 24272016 24294686 24304882 
2706.816 24303620 24292442 24273416 24248506 24219740 24188140 24155038 
2710.191 24121516 24088592 24057702 24029966 24005978 23985704 23968756 
2713.567 23954576 23942952 23934410 23929578 23929334 23934374 23944492 
2716.942 23959058 23977722 23999884 24025868 24056300 24091464 24131076 
2720.317 24174164 24218654 24262520 24304216 24343044 24379492 24414154 
2723.692 24447874 24480508 24511008 24537898 24559496 24575028 24584776 
2727.068 24589790 24591824 24592420 24592560 24593122 24594314 24596242 
2730.443 24599048 24602588 24606832 24610900 24613986 24615460 24614862 
2733.818 24612548 24609462 24606728 24605500 24605850 24607780 24610514 
2737.193 24613600 24617106 24621980 24629064 24639794 24654946 24674690 
2740.569 24698888 24727334 24759500 24795630 24835836 24880570 24929484 
2743.944 24982794 25039406 25098904 25160766 25224670 25290378 25357886 
2747.319 25426808 25497322 25569502 25643766 25720962 25802004 25887876 
2750.694 25978904 26075300 26176746 26282620 26393060 26507966 26627516 
2754.070 26751824 26880324 27012038 27145728 27280310 27414792 27549136 
2757.445 27683984 27819790 27957336 28096834 28237968 28380458 28523384 
2760.820 28666496 28808950 28950350 29089670 29226414 29359692 29489144 
2764.195 29614698 29737060 29856828 29974252 30089258 30201096 30308628 
2767.571 30410858 30506998 30597222 30682272 30762608 30839046 30912260 
2770.946 30982640 31050540 31116600 31181564 31245510 31308964 31371002 
2774.321 31430698 31487376 31540852 31592480 31644442 31699720 31761386 
2777.696 31831228 31910208 31997904 32093752 32196972 32307108 32424408 
2781.072 32549244 32681544 32820888 32966248 33116806 33272136 33432104 
2784.447 33597392 33768616 33946072 34128688 34314860 34502296 34688520 
2787.822 34871592 35050364 35224352 35393740 35558988 35720336 35878548 
2791.197 36033968 36187180 36338536 36488208 36636352 36782812 36927700 
2794.573 37071228 37214120 37357344 37501412 37646396 37791648 37935532 
2797.948 38075996 38211508 38341276 38465864 38586400 38704868 38822356 
2801.323 38939764 39056732 39172356 39285360 39394188 39498104 39596132 
2804.698 39687900 39772788 39850652 39922020 39987484 40048084 40104988 
2808.073 40158448 40208280 40253680 40293308 40326316 40352788 40374132 
2811.449 40392676 40411148 40431804 40456572 40486032 40520076 40558164 
2814.824 40599672 40644276 40691140 40739540 40788420 40836104 40881388 
2818.199 40923364 40961592 40996332 41027940 41056784 41082568 41104640 
2821.574 41121980 41133596 41139024 41138080 41131232 41119356 41103512 
2824.950 41085300 41066288 41048660 41034384 41025684 41023388 41028452 
2828.325 41040648 41059260 41084064 41115240 41153852 41201720 41260632 
2831.700 41331836 41415952 41513212 41623328 41746784 41884580 42038808 
2835.075 42212300 42407596 42626664 42870460 43138756 43430732 43745144 
2838.451 44081276 44438848 44817832 45219100 45643524 46092308 46566344 
2841.826 47066344 47592756 48145608 48724116 49326660 49950568 50591080 
2845.201 51241188 51891676 52529300 53137756 53698692 54190456 54591840 
2848.576 54883424 55048660 55076832 54963664 54712240 54331768 53837636 
2851.952 53249960 52589212 51877340 51134496 50376664 49616920 48863588 
2855.327 48121548 47392712 46677860 45976856 45289448 44615944 43956348 
2858.702 43311148 42681164 42067428 41472452 40899736 40353988 39840192 
2862.077 39363244 38925920 38529696 38173848 37856460 37574856 37326976 
2865.453 37110924 36925644 36770768 36645616 36549264 36480860 36438768 
2868.828 36420824 36424860 36447848 36486228 36536612 36594892 36657008 
2872.203 36719528 36779352 36834240 36882716 36924636 36960316 36991484 
2875.578 37020928 37051384 37086024 37127060 37176148 37233288 37297660 
2878.954 37367816 37442032 37518788 37596820 37675200 37752864 37828984 
2882.329 37902376 37972164 38037764 38099216 38156516 38210420 38261368 
2885.704 38309932 38356804 38402444 38447768 38493492 38540308 38588684 
2889.079 38638080 38687704 38736456 38783264 38827680 38869748 38910084 
2892.455 38948896 38986412 39021752 39053432 39080044 39100420 39114304 
2895.830 39122500 39126596 39128408 39130224 39134028 39141500 39154084 
2899.205 39172972 39198648 39231284 39270672 39315832 39366220 39421400 
2902.580 39481816 39548552 39623612 39708780 39806344 39918464 40047396 
2905.956 40196468 40369952 40572860 40811968 41093896 41424920 41811096 
2909.331 42257032 42766424 43340764 43979996 44680128 45433120 46227144 
2912.706 47044812 47865024 48666068 49425264 50121896 50739684 51265836 
2916.081 51692516 52016444 52238472 52363376 52398668 52355080 52244192 
2919.457 52078076 51868076 51623216 51349996 51052392 50731672 50387644 
2922.832 50018376 49621420 49193720 48732420 48234868 47700060 47128528 
2926.207 46522640 45887508 45229508 44555692 43873936 43192004 42517716 
2929.582 41859296 41225476 40624664 40065636 39555920 39100964 38704980 
2932.958 38369544 38094588 37878260 37717804 37608384 37543824 37517128 
2936.333 37519872 37543460 37580096 37622980 37666956 37708696 37745816 
2939.708 37777044 37801948 37820308 37832312 37838820 37841348 37841528 
2943.083 37842000 37845324 37854508 37872696 37902992 37948116 38010496 
2946.458 38092200 38194360 38318148 38464564 38634060 38827028 39042160 
2949.834 39276112 39521840 39768580 40003288 40210096 40374132 40483120 
2953.209 40528008 40504692 40413040 40256368 40040020 39770180 39454056 
2956.584 39099332 38714252 38308272 37890660 37470708 37057012 36656108 
2959.959 36272792 35910112 35569236 35250368 34952280 34673736 34412476 
2963.335 34166504 33933784 33712720 33502322 33302080 33111692 32930896 
2966.710 32759358 32596316 32440834 32292296 32150264 32014630 31885564 
2970.085 31763632 31649072 31542562 31444448 31355188 31274956 31204172 
2973.460 31143082 31091790 31050824 31021250 31004632 31002924 31017976 
2976.836 31051144 31102824 31171882 31256474 31354404 31463612 31582754 
2980.211 31711872 31850730 31999364 32157544 32323632 32495678 32671328 
2983.586 32848120 33023338 33194802 33359322 33513524 33653564 33775564 
2986.961 33876068 33953132 34006160 34035904 34044180 34033144 34004724 
2990.337 33960404 33901256 33828000 33741580 33643400 33535250 33419828 
2993.712 33300612 33181428 33066854 32961674 32869350 32792554 32732204 
2997.087 32687012 32654896 32633498 32621176 32617678 32624104 32642108 
3000.462 32673400 32718808 32777510 32847300 32925926 33010862 33100392 
3003.838 33193946 33290952 33391204 33494126 33598716 33704016 33809412 
3007.213 33914868 34021100 34129048 34239460 34352408 34467500 34583704 
3010.588 34699720 34814512 34927612 35038904 35148468 35256656 35363836 
3013.963 35470568 35577148 35684512 35793228 35904172 36017520 36133232 
3017.339 36251072 36370668 36491812 36614648 36739468 36866956 36997404 
3020.714 37131280 37268308 37408516 37551336 37696120 37841780 37987060 
3024.089 38130360 38270196 38405524 38535960 38662204 38785436 38907292 
3027.464 39029112 39151180 39273248 39394624 39514476 39632468 39749520 
3030.840 39866848 39986068 40108512 40234780 40364568 40496940 40630920 
3034.215 40765636 40901116 41037736 41176472 41318536 41465672 41618988 
3037.590 41780200 41950776 42131716 42323324 42525428 42736516 42954616 
3040.965 43177696 43403232 43629504 43854616 44076508 44292384 44498528 
3044.341 44690488 44863312 45013092 45137336 45236088 45312252 45370436 
3047.716 45416896 45457988 45498936 45543756 45594648 45652616 45717364 
3051.091 45788640 45865740 45948312 46036164 46128676 46225152 46324824 
3054.466 46426320 46528320 46629864 46729960 46827972 46923608 47016568 
3057.842 47107076 47195272 47281640 47366584 47451032 47535748 47620708 
3061.217 47706236 47791816 47876604 47960184 48042488 48123808 48204768 
3064.592 48286412 48368960 48451528 48532552 48609700 48680708 48744392 
3067.967 48800556 48850680 48897292 48943204 48991008 49041900 49096064 
3071.343 49152792 49210976 49269800 49329224 49390104 49453964 49522884 
3074.718 49598724 49683008 49776040 49877568 49985992 50098356 50211676 
3078.093 50322604 50428540 50528136 50621536 50710152 50796404 50882448 
3081.468 50969516 51057196 51143556 51225084 51297940 51358312 51404072 
3084.844 51434472 51450996 51456332 51454504 51449952 51446556 51447416 
3088.219 51454688 51468828 51489608 51515980 51547132 51582692 51623064 
3091.594 51669156 51722672 51784676 51856020 51936300 52024888 52120440 
3094.969 52221952 52328916 52440988 52558132 52679876 52804836 52930388 
3098.344 53053508 53170336 53277568 53373360 53457068 53529924 53594248 
3101.720 53653436 53710656 53768888 53830320 53896712 53969152 54048776 
3105.095 54136252 54232388 54337888 54452848 54577680 54712580 54857856 
3108.470 55014884 55186456 55376308 55590152 55835264 56119468 56451620 
3111.845 56841280 57297372 57829108 58444776 59151100 59953472 60854104 
3115.221 61852144 62941908 64112336 65345736 66614388 67882344 69103008 
3118.596 70218272 71167392 71887272 72319256 72420624 72166128 71553536 
3121.971 70603648 69357736 67873480 66212356 64439976 62616968 60792436 
3125.346 59009272 57300128 55688340 54190908 52817780 51571872 50450608 
3128.722 49446388 48549040 47746660 47028124 46383660 45805024 45285216 
3132.097 44818236 44398068 44019412 43677136 43366576 43083576 42824524 
3135.472 42585952 42364636 42157160 41960632 41772172 41589632 41411144 
3138.847 41235128 41060204 40885752 40711340 40538008 40366932 40199808 
3142.223 40038276 39883084 39733432 39587568 39442880 39297040 39148100 
3145.598 38995944 38841016 38684620 38527632 38371064 38215236 38060332 
3148.973 37906496 37753948 37602932 37453408 37303944 37153440 36999708 
3152.348 36841380 36678064 36510484 36340512 36170612 36002720 35837920 
3155.724 35676272 35516984 35358800 35200820 35042316 34883480 34724308 
3159.099 34564832 34405304 34245516 34085540 33925688 33766648 33608956 
3162.474 33453290 33300004 33148990 32999996 32852516 32706444 32560780 
3165.849 32415022 32268350 32120402 31970870 31820602 31670850 31523320 
3169.225 31379584 31240310 31105280 30973174 30842284 30711004 30578876 
3172.600 30446148 30314208 30184260 30057512 29933924 29812892 29693526 
3175.975 29574688 29456202 29338456 29221596 29106074 28991968 28878422 
3179.350 28764906 28650922 28536226 28421208 28306326 28192004 28078348 
3182.726 27965322 27852398 27739644 27627484 27516624 27407274 27300280 
3186.101 27194866 27090322 26985980 26881030 26775152 26669054 26563122 
3189.476 26457746 26353204 26248688 26143668 26037548 25930012 25821412 
3192.851 25711996 25602150 25491630 25379874 25265618 25148442 25027822 
3196.227 24904922 24781072 24658802 24540248 24426912 24319530 24217498 
3199.602 24119344 24023242 23927126 23829948 23731110 23631108 23531056 
3202.977 23432252 23335638 23241424 23148940 23057106 22964488 22870040 
3206.352 22773864 22676490 22579520 22484562 22393078 22305622 22222512 
3209.728 22143042 22066690 21992824 21920786 21850186 21780574 21711390 
3213.103 21642010 21572572 21503248 21434492 21366964 21300874 21235664 
3216.478 21170150 21102944 21032686 20958858 20882122 20803942 20726468 
3219.853 20651650 20580630 20513584 20449604 20387404 20325596 20262998 
3223.229 20198984 20133384 20066858 20000062 19934112 19870218 19809210 
3226.604 19751784 19697692 19646174 19595908 19545546 19494566 19443070 
3229.979 19392448 19344258 19299778 19259216 19221670 19184684 19145864 
3233.354 19102410 19053352 18998896 18940228 18879938 18820040 18762432 
3236.729 18708290 18658482 18612964 18572158 18535536 18502480 18472020 
3240.105 18442494 18412280 18379856 18344738 18306720 18266632 18225372 
3243.480 18184080 18143382 18103654 18064794 18026212 17987634 17948370 
3246.855 17907590 17864948 17820104 17773050 17724420 17674686 17625028 
3250.230 17576170 17528974 17483506 17440010 17398552 17359202 17321962 
3253.606 17286652 17252726 17218768 17183330 17144552 17101262 17053322 
3256.981 17001220 16946954 16892696 16840408 16791464 16746763 16706198 
3260.356 16669391 16635891 16605321 16577126 16550828 16525323 16499510 
3263.731 16472321 16443139 16412271 16380442 16349649 16321611 16298216 
3267.107 16280638 16268427 16260928 16255768 16249714 16239531 16221955 
3270.482 16194785 16156919 16109396 16054312 15995214 15935849 15879000 
3273.857 15826764 15779344 15736157 15696339 15659101 15624272 15592054 
3277.232 15562759 15536075 15511007 15485837 15458643 15427641 15392520 
3280.608 15353695 15313089 15272830 15234976 15201107 15171975 15147030 
3283.983 15125347 15105312 15085243 15063734 15039928 15013551 14985735 
3287.358 14958229 14933606 14914917 14903772 14901029 14905453 14914265 
3290.733 14923421 14928805 14927159 14916426 14896536 14868831 14835744 
3294.109 14799369 14761386 14722480 14682652 14641218 14597903 14552707 
3297.484 14506557 14460857 14417697 14378753 14345396 14318479 14298275 
3300.859 14285058 14278620 14279065 14286290 14299131 14315808 14332965 
3304.234 14346971 14353205 14348376 14330191 14298206 14253488 14198092 
3307.610 14134726 14065382 13992318 13917214 13842055 13769303 13701417 
3310.985 13641031 13589611 13547529 13513346 13484806 13459343 13434839 
3314.360 13410576 13386587 13363898 13343840 13327098 13314286 13305334 
3317.735 13300005 13298468 13301132 13308307 13319889 13335367 13353681 
3321.111 13373465 13393797 13414061 13434121 13454593 13475236 13495880 
3324.486 13515704 13533480 13548076 13559254 13567287 13573099 13578398 
3327.861 13584005 13590978 13599799 13610295 13622364 13635800 13650127 
3331.236 13665103 13679670 13692834 13703538 13710924 13714925 13715610 
3334.612 13714070 13710788 13706240 13700290 13691946 13680012 13663291 
3337.987 13640553 13611287 13574979 13531907 13482516 13427560 13367929 
3341.362 13304789 13238889 13171019 13101486 13030326 12957335 12882921 
3344.737 12807462 12732802 12660439 12592217 12529290 12471863 12418910 
3348.113 12368486 12317591 12263532 12203925 12137103 12062659 11981178 
3351.488 11894467 11805051 11715891 11630016 11549807 11476791 11411441 
3354.863 11352733 11299338 11249622 11202224 11156293 11111726 11068591 
3358.238 11026616 10985529 10944548 10902924 10859947 10815512 10769825 
3361.614 10723771 10678330 10634628 10593884 10557115 10525577 10500220 
3364.989 10481618 10469500 10462373 10457553 10451511 10440616 10422085 
3368.364 10393951 10356181 10309355 10255105 10195264 10131361 10064992 
3371.739 9998091 9932658 9871506 9817276 9772203 9737299 9712022 9694199 
3375.597 9680511 9667331 9651477 9630912 9605336 9575358 9543010 9510226 
3379.454 9478865 9450182 9424617 9401964 9381378 9362046 9343223 9324671 
3383.312 9306526 9288956 9272675 9257680 9244040 9232024 9221295 9212326 
3387.169 9205828 9202782 9203899 9209246 9217775 9227083 9234258 9235578 
3391.026 9228301 9210972 9183831 9149008 9109316 9068308 9028962 8993104 
3394.884 8961611 8934316 8910776 8890281 8872459 8857274 8844357 8833231 
3398.741 8823053 8812131 8798742 8781362 8758744 8731022 8699277 8665542 
3402.599 8632080 8601154 8574219 8551679 8533330 8517616 8503560 8489808 
3406.456 8475618 8460110 8443487 8425819 8407508 8389503 8372444 8357750 
3410.313 8346299 8338734 8334478 8332249 8329918 8325224 8316307 8302189 
3414.171 8283513 8261866 8239105 8217325 8197842 8181094 8166812 8154185 
3418.028 8142200 8130350 8117926 8104794 8090988 8076809 8062531 8049097 
3421.886 8037316 8027798 8020981 8016492 8013656 8011294 8008155 8003497 
3425.743 7996781 7988310 7978287 7966981 7954563 7940896 7925912 7910087 
3429.601 7894025 7879112 7866122 7855798 7847903 7841155 7833935 7824860 
3433.458 7813120 7798681 7782759 7766500 7751355 7737728 7725416 7713241 
3437.315 7699986 7684337 7665653 7643969 7620196 7595344 7570764 7547534 
3441.173 7526328 7507550 7490829 7475660 7461199 7446266 7429110 7408516 
3445.030 7383778 7354121 7320692 7285749 7251786 7222374 7200274 7187035 
3448.888 7182016 7182386 7184475 7183700 7176256 7160424 7136878 7108518 
3452.745 7079116 7052813 7032238 7017994 7008767 7001932 6995062 6986139 
3456.603 6974826 6961829 6948530 6935938 6924592 6913819 6902642 6889749 
3460.460 6874399 6856591 6836732 6816233 6795769 6776350 6758513 6742461 
3464.317 6728057 6715270 6704031 6693903 6685154 6677516 6670619 6664159 
3468.175 6657497 6650296 6641885 6631725 6619579 6605416 6589537 6572448 
3472.032 6554754 6536456 6517620 6497809 6476519 6453852 6430547 6408084 
3475.890 6388514 6373315 6363565 6359261 6358622 6358959 6357815 6352772 
3479.747 6342652 6327186 6307720 6285633 6262606 6240017 6218337 6197532 
3483.604 6177030 6156126 6134349 6111565 6088077 6064624 6042246 6021719 
3487.462 6003375 5987250 5972570 5958730 5945293 5931991 5919194 5907505 
3491.319 5896724 5886547 5875430 5861794 5844096 5822066 5796780 5770623 
3495.177 5746884 5728217 5716096 5710557 5709516 5710960 5712806 5713814 
3499.034 5713814 5713377 5713075 5712135 5709617 5703574 5692428 5675912 
3502.892 5654964 5632407 5611462 5595049 5584880 5581087 5582026 5585416 
3506.749 5588571 5589679 5587799 5583268 5577328 5571991 5569038 5569944 
3510.606 5574979 5583369 5593371 5602836 5609582 5612469 5611428 5607737 
3514.464 5603406 5600419 5600151 5602903 5608340 5615154 5622538 5629990 
3518.321 5637878 5647043 5658288 5671682 5686553 5701896 5716164 5728452 
3522.179 5738188 5745944 5752424 5758535 5764881 5771932 5780058 5789594 
3526.036 5801145 5815383 5832543 5852794 5875195 5898503 5921377 5942539 
3529.894 5961719 5978683 5994607 6010363 6026658 6044162 6062440 6080886 
3533.751 6098259 6113380 6125007 6132366 6135727 6136130 6135391 6136097 
3537.608 6140398 6150447 6166847 6189432 6216757 6247143 6278607 6309435 
3541.466 6338348 6364036 6385420 6400922 6409026 6407882 6396012 6373181 
3545.323 6340702 6301232 6259278 6220253 6188961 6169569 6163553 6170073 
3549.181 6185029 6202708 6216489 6219984 6209397 6183617 6145573 6100040 
3553.038 6053334 6011002 5975996 5948853 5927658 5909184 5890275 5868746 
3556.896 5843693 5815283 5784557 5752525 5719924 5687728 5656576 5627607 
3560.753 5602400 5582060 5567964 5560077 5557560 5557828 5557023 5550009 
3564.610 5531686 5497557 5444542 5372948 5286675 5193075 5101776 5021690 
3568.468 4959181 4916419 4891521 4879591 4874867 4872052 4866925 4857945 
3572.325 4844610 4827690 4808057 4786481 4763266 4738443 4711981 4684013 
3576.183 4655210 4626241 4598178 4571323 4546913 4525518 4508142 4495186 
3580.040 4486849 4482263 4480488 4479852 4478915 4477643 4476270 4476036 
3583.897 4477476 4479919 4480957 4476069 4460235 4429505 4382912 4323607 
3587.755 4259090 4199066 4151896 4123228 4113695 4120117 4136608 4156177 
3591.612 4172905 4181970 4180164 4167050 4143767 4113360 4079310 4045831 
3595.470 4016067 3992157 3974233 3961193 3950927 3941030 3929729 3916422 
3599.327 3901912 3887402 3874965 3866073 3861426 3860590 3863097 3867711 
3603.185 3873895 3881317 3889408 3897298 3903182 3904218 3897198 3878977 
3607.042 3848088 3805368 3754563 3701326 3651938 3610774 3579035 3554413 
3610.899 3531965 3505977 3471908 3428456 3377663 3325574 3279299 3246015 
3614.757 3228957 3228156 3238672 3252659 3261005 3253894 3223984 3168308 
3618.614 3089179 2994350 2895973 2807189 2738596 2695418 2677315 2679948 
3622.472 2696551 2720591 2747966 2777376 2810257 2848410 2891870 2936769 
3626.329 2974566 2991848 2973699 2909349 2798218 2654178 2502620 2372870 
3630.187 2283760 2239895 2232634 2246423 2264941 2275300 2270737 2251319 
3634.044 2222510 2191771 2165730 2147882 2137726 2132099 2126605 2119146 
3637.901 2108591 2096406 2084387 2074265 2066375 2060083 2054157 2048331 
3641.759 2043637 2042605 2048564 2064344 2090912 2126804 2168061 2208822 
3645.616 2242260 2262377 2263742 2243225 2199564 2133697 2048198 1948371 
3649.474 1842244 1740269 1655013 1597809 1575628 1589661 1634259 1698454 
3653.331 1767449 1826439 1862875 1868399 1843010 1794764 1739637 1694529 
3657.188 1672875 1679993 1712525 1760928 1813296 1859315 1891893 1908067 
3661.046 1909332 1900213 1886868 1875321 1870329 1874988 1890728 1917652 
3664.903 1955327 2002659 2057619 2117814 2178884 2235365 2281429 2312507 
3668.761 2328763 2337757 2356413 2408286 2515451 2692584 2941106 3250990 
3672.618 3602120 3967546 4317985 4616965 4826584 4916888 4873426 4706689 
3676.476 4445907 4127175 3779363 3421210 3066087 2725125 2412284 2143154 
3680.333 1929433 1776099 1678829 1626377 1604926 1602831 1614005 1637219 
3684.190 1673540 1722405 1779625 1835423 1877550 1893657 1875321 1822113 
3688.048 1742697 1652486 1567381 1499615 1453036 1425244 1410551 1403936 
3691.905 1402938 1407227 1416966 1431859 1450210 1469160 1485750 1498617 
3695.763 1508293 1517536 1530072 1548992 1575628 1607919 1641876 1671311 
3699.620 1690371 1694961 1683552 1658672 1626044 1593319 1568112 1555542 
3703.478 1558036 1574663 1602265 1636920 1674771 1712924 1749816 1784815 
3707.335 1817655 1848034 1874455 1893657 1901710 1893624 1865604 1815858 
3711.192 1747155 1666821 1586203 1517204 1470423 1451207 1459519 1490006 
3715.050 1535059 1585637 1633661 1674172 1704940 1726995 1742497 1754274 
3718.907 1763589 1770543 1773903 1772805 1767748 1761460 1758067 1761261 
3722.765 1773005 1791337 1812131 1828568 1834824 1828003 1809736 1786046 
3726.622 1766218 1759730 1773371 1808305 1860845 1923010 1984617 2035748 
3730.479 2069271 2082422 2077695 2061648 2042139 2024396 2008451 1987547 
3734.337 1953097 1897218 1819019 1725964 1632729 1556474 1508658 1492998 
3738.194 1505899 1539980 1589163 1650024 1722737 1808172 1903541 2000595 
3742.052 2082256 2125606 2108292 2018271 1866369 1689074 1539714 1460483 
3745.909 1465403 1540313 1655080 1776265 1873557 1927503 1929866 1885603 
3749.767 1809270 1718745 1629570 1550555 1486315 1440037 1415504 1416435 
3753.624 1443960 1494361 1559333 1627574 1688442 1733382 1758300 1763889 
3757.481 1753443 1731519 1701215 1664559 1623816 1583210 1549956 1531668 
3761.339 1534959 1560597 1604128 1655546 1703144 1737142 1752644 1751247 
3765.196 1739770 1728126 1723768 1729124 1740834 1751945 1754840 1744261 
3769.054 1718812 1682088 1640745 1602166 1572036 1553547 1546930 1550388 
3772.911 1561462 1577291 1595681 1614803 1633893 1652785 1671245 1688242 
3776.769 1701880 1708965 1705672 1689905 1662065 1626909 1592255 1567214 
3780.626 1557571 1565386 1587400 1616898 1646698 1671145 1688142 1699186 
3784.483 1707435 1716350 1727528 1739803 1750981 1758699 1762325 1763157 
3788.341 1763822 1766983 1774169 1784915 1798024 1812331 1828036 1846370 
3792.198 1869530 1898016 1929766 1959387 1980091 1985217 1971037 1940083 
3796.056 1900446 1865105 1845838 1850397 1878316 1921945 1966643 1995003 
3799.913 1991741 1947738 1865936 1762392 1664759 1600303 1585504 1621555 
3803.771 1695793 1786812 1868998 1919948 1924973 1881178 1799555 1703410 
3807.628 1618894 1564554 1546398 1558735 1590559 1630734 1672642 1714687 
3811.485 1759963 1811533 1869630 1929300 1980124 2009882 2007419 1968641 
3815.343 1900047 1820250 1753576 1720442 1730688 1780191 1854257 1931497 
3819.200 1989910 2011114 1984418 1911927 1810468 1707435 1628372 1590194 
3823.058 1594849 1632463 1686413 1739537 1779526 1799887 1802516 1795063 
3826.915 1788608 1792135 1809270 1838284 1872525 1905038 1929633 1943778 
3830.772 1948537 1947938 1946973 1950268 1960919 1980190 2007286 2039709 
3834.630 2073000 2100567 2114252 2106294 2070670 2007485 1923043 1830598 
3838.487 1745525 1680658 1642840 1631399 1640013 1659304 1680492 1696890 
3842.345 1704242 1701980 1691535 1676334 1660934 1650290 1649492 1661998 
3846.202 1689772 1732451 1788841 1856453 1933627 2019835 2114785 2217148 
3850.060 2322233 2419648 2492790 2520683 2482026 2364208 2174754 1946174 
3853.917 1725598 1556474 1461713 1438641 1469559 1531834 1607187 1682787 
3857.774 1752112 1812664 1863907 1905804 1937853 1960220 1973933 1981056 
3861.632 1984218 1984717 1982088 1973434 1955926 1929400 1899314 1875420 
3865.489 1869730 1890795 1939185 2005821 2074032 2124773 2141189 2115517 
3869.347 2053025 1973134 1900945 1856985 1848833 1869697 1904040 1933826 
3873.204 1945342 1933959 1904905 1870495 1845705 1842577 1865570 1911461 
3877.062 1970538 2030188 2077794 2102365 2098470 2067574 2019070 1967808 
3880.919 1930831 1921479 1944610 1995535 2061015 2124307 2167029 2175887 
3884.776 2146650 2086983 2015441 1954162 1922544 1928135 1966610 2023697 
3888.634 2081956 2124207 2137126 2115584 2063046 1991508 1916853 1854756 
3892.491 1815991 1804013 1816191 1846537 1889131 1938153 1989444 2040375 
3896.349 2087916 2129169 2160435 2178484 2181015 2168960 2145784 2117714 
3900.206 2090612 2069005 2053425 2041274 2027225 2006687 1977228 1940350 
3904.063 1901178 1865970 1840547 1827703 1826938 1835390 1849698 1867001 
3907.921 1885936 1906469 1929034 1953563 1978859 2003491 2025961 2045435 
3911.778 2062979 2080058 2098703 2119846 2142621 2164565 2181947 2191605 
3915.636 2191705 2182380 2165963 2145951 2125972 2108125 2094075 2083821 
3919.493 2077761 2076596 2080791 2090846 2105928 2124108 2142121 2156273 
3923.351 2163699 2163033 2155341 2143387 2131000 2122343 2119812 2124341 
3927.208 2135029 2149680 2165830 2180549 2191671 2197366 2196700 2189607 
3931.065 2177352 2162134 2146816 2134896 2129135 2131433 2141988 2159470 
3934.923 2181581 2204626 2225773 2242326 2252851 2257247 2256548 2252484 
3938.780 2246789 2240627 2234100 2226806 2217181 2204126 2187475 2168560 
3942.638 2150113 2135828 2129335 2132598 2145651 2165663 2188574 2209122 
3946.495 2222576 2226373 2219945 2205525 2187109 2169260 2156406 2151278 
3950.353 2154442 2165364 2181481 2199930 2217614 2232135 2241693 2245956 
3954.210 2245490 2242293 2238829 2237797 2241494 2250453 2264342 2281295 
3958.067 2298283 2312840 2322600 2326597 2325298 2320068 2312507 2304046 
3961.925 2295452 2287258 2279397 2272136 2265807 2261610 2260378 2263076 
3965.782 2269738 2279430 2290689 2301714 2310841 2317303 2321034 2322800 
3969.640 2323632 2324632 2326131 2328030 2329462 2329595 2328130 2325198 
3973.497 2321967 2320135 2321634 2327897 2339189 2355047 2373503 2391827 
3977.354 2407919 2419548 2426012 2427744 2425712 2421947 2417849 2414883 
3981.212 2413717 2414650 2417549 2422380 2429177 2437707 2447803 2458566 
3985.069 2469296 2478527 2485325 2488924 2489324 2487124 2483059 2478327 
3988.927 2474095 2471196 2470163 2471795 2476194 2483725 2494256 2507619 
3992.784 2522616 2538480 2553545 2566577 2576643 2583076 2585976 2585675 
3996.642 2582709 2578276 2573143 2568310 2564744 2562510 2561677 2561177 
4000.499 2559844 
##END=
