##TITLE=1153_3_b
##JCAMP-DX=5.01  $$ Nicolet v. 1
##DATATYPE=INFRARED SPECTRUM
##ORIGIN=UniL
##OWNER=Nicolet
##LONGDATE=2011/09/29
##TIME=11:52:34
##SPECTROMETER/DATA SYSTEM=Nicolet iS5
##DATA PROCESSING=
Ratio against background
%Transmittance->Absorbance
Truncated
ElementMultiply or ElementDivide
##COMMENTS=
Number of sample scans: 32
Collection length: 51.19 sec
Sample gain: 2.0
Background collected on: Jeu Sep 29 11:48:06 2011 (GMT+02:00);
Number of background scans: 32
Background gain: 2.0
Sample spacing:  1.000
Number of scan points: 12415
Resolution points: 8192
Number of FFT points: 65536
Apodization: N-B fort;
Phase correction: Mertz;
Laser frequency: 15798.0 cm-1
Number of rejected sample scans: 0
Number of rejected background scans: 0
Bench serial number: ASB1000141;
##RESOLUTION=4.000
##XUNITS=1/CM
##YUNITS=ABSORBANCE
##FIRSTX=649.893372
##LASTX=4000.122314
##FIRSTY=0.089946
##MAXX=4000.122314
##MINX=649.893372
##MAXY=0.257092
##MINY=-0.003098
##XFACTOR=1.000000
##YFACTOR=1.000000E-009
##NPOINTS=6950
##DELTAX=0.482117
##ZPD=6100
##XYDATA=(X++(Y..Y))
649.893 89946200 89342664 88822224 88385016 88005664 87650880 87292496 
653.268 86923080 86557768 86223848 85945992 85737168 85594664 85505656 
656.643 85457976 85447728 85481248 85568032 85712552 85906944 86130792 
660.018 86358928 86573104 86766704 86948136 87130928 87328672 87546808 
663.393 87781656 88025664 88272656 88518200 88757392 88976368 89144688 
666.767 89213040 89133176 88887360 88519544 88119576 87779912 87551072 
670.142 87431104 87383528 87356592 87306352 87204352 87047032 86850184 
673.517 86638056 86426880 86215408 85984640 85709520 85372016 84971264 
676.892 84524352 84058664 83600432 83164272 82751480 82354504 81965280 
680.267 81580936 81204552 80840120 80488224 80139976 79780920 79394520 
683.642 78971232 78512256 78029224 77538128 77051504 76574952 76106744 
687.016 75641632 75177536 74718816 74276152 73863032 73490528 73162896 
690.391 72878736 72634032 72425208 72252488 72119264 72029216 71983848 
693.766 71980056 72012640 72077176 72173880 72309392 72494000 72736968 
697.141 73041784 73402360 73806320 74236792 74681192 75134680 75601176 
700.516 76089128 76605904 77152968 77723072 78302976 78877008 79433072 
703.890 79963680 80465656 80937832 81376920 81778528 82137912 82453680 
707.265 82730032 82976152 83204568 83427112 83652576 83888376 84143000 
710.640 84428632 84764968 85174192 85675376 86276792 86969384 87723624 
714.015 88491352 89218168 89849328 90339696 90663128 90811152 90794280 
717.390 90639736 90392048 90111096 89864488 89728848 89774192 90049696 
720.765 90574304 91321664 92220448 93149800 93964512 94519112 94685880 
724.139 94394856 93646096 92517320 91141832 89685792 88314152 87143648 
727.514 86237832 85599344 85187744 84939840 84793072 84705640 84655072 
730.889 84636984 84653736 84706168 84790096 84897536 85020904 85157504 
734.264 85308096 85474872 85656648 85846048 86031128 86201176 86350400 
737.639 86482472 86608000 86739600 86886160 87048688 87220760 87392688 
741.013 87557432 87713728 87866016 88020464 88180344 88343432 88503256 
744.388 88652456 88787792 88913136 89037216 89168856 89312336 89464456 
747.763 89616304 89758752 89887144 90004736 90120760 90245840 90385720 
751.138 90538136 90694080 90842680 90976136 91093608 91200280 91303096 
754.513 91406752 91510440 91610304 91703352 91791552 91884640 91996384 
757.888 92139288 92319776 92535024 92775000 93027256 93283312 93540960 
761.262 93803160 94074032 94355448 94644960 94939944 95241856 95562680 
764.637 95924232 96358968 96901648 97580464 98414544 99406496 100540352 
768.012 101775520 103046512 104268488 105338784 106167432 106704000 
770.905 106964136 107041416 107097504 107325728 107873792 108794464 
773.797 109995400 111254960 112248488 112634856 112173616 110769440 
776.690 108514216 105634144 102439720 99226200 96198136 93463952 91025448 
780.065 88817960 86747408 84732904 82726264 80713096 78707344 76737072 
783.440 74835360 73031512 71350304 69813128 68435440 67228024 66195912 
786.815 65338604 64652452 64134688 63786096 63613208 63627476 63841320 
790.189 64266980 64913936 65790416 66907400 68280624 69931080 71882152 
793.564 74149968 76734848 79608432 82711992 85951520 89196320 92300232 
796.939 95102016 97441768 99195344 100284248 100704440 100531168 99922336 
800.314 99093976 98267728 97652352 97382760 97487928 97876616 98345928 
803.689 98627760 98420568 97485560 95699944 93089408 89826224 86185544 
807.063 82487616 78993440 75867832 73148192 70758744 68549840 66354312 
810.438 64050696 61581772 58967488 56279740 53618088 51075124 48713252 
813.813 46566936 44642672 42931756 41418796 40089144 38929328 37925300 
817.188 37062172 36324700 35698216 35172540 34742000 34404764 34160196 
820.563 34006484 33939412 33953560 34044860 34213324 34463840 34805536 
823.938 35249148 35802368 36468244 37242312 38111840 39054340 40037620 
827.312 41021056 41952780 42779036 43451604 43934932 44220880 44332048 
830.687 44326400 44284276 44303724 44487700 44920192 45660860 46725900 
834.062 48078832 49619744 51186720 52584352 53587460 53993580 53670424 
837.437 52572680 50765304 48401112 45701720 42897592 40188400 37729948 
840.812 35606708 33844656 32426268 31310174 30446894 29787910 29294608 
844.186 28933634 28676938 28502720 28393546 28337908 28329702 28365850 
847.561 28443742 28559120 28705574 28876510 29067388 29277560 29510244 
850.936 29769882 30059926 30379764 30725548 31090972 31471662 31867522 
854.311 32283124 32726842 33208250 33736492 34318840 34962440 35676308 
857.686 36471848 37364352 38371280 39510192 40800212 42261820 43916932 
861.060 45790884 47905352 50269888 52867364 55642540 58496064 61276272 
864.435 63807352 65906436 67405496 68193968 68228504 67546256 66254036 
867.810 64520812 62553784 60552888 58709408 57176784 56054168 55399640 
871.185 55226036 55511192 56203216 57227016 58491328 59880256 61266356 
874.560 62517352 63497872 64097932 64244352 63910336 63121812 61949392 
877.935 60499144 58884452 57218320 55597724 54087764 52726416 51523220 
881.309 50466720 49533244 48696792 47938204 47248428 46630972 46097504 
884.684 45664284 45344284 45143988 45061976 45091712 45225868 45460820 
888.059 45799132 46248628 46819040 47515824 48337184 49271656 50301736 
891.434 51407208 52570584 53781980 55038428 56343716 57703492 59123804 
894.809 60605304 62141076 63710996 65277524 66784152 68147984 69271104 
898.183 70051680 70392480 70228432 69535616 68338792 66706256 64741060 
901.558 62570856 60319792 58107192 56035244 54176340 52580796 51274636 
904.933 50263752 49540412 49088124 48888320 48922548 49176024 49639248 
908.308 50306124 51173376 52239256 53502452 54961708 56615564 58460204 
911.683 60486232 62675296 64994544 67399960 69837056 72248576 74589952 
915.058 76834616 78983512 81063968 83127720 85241720 87470744 89871576 
918.432 92473528 95266072 98185392 101111120 103876776 106270000 108081720 
921.807 109143872 109363616 108765608 107499224 105842312 104139272 
924.700 102776072 102128456 102477064 103992784 106693368 110442320 
927.593 114943160 119767296 124438432 128433328 131279736 132628840 
930.485 132253616 130089296 126213832 120830264 114228624 106749672 98780976 
933.860 90693872 82825976 75475432 68853400 63099360 58285256 54420884 
937.235 51478936 49409968 48158788 47664264 47854336 48640272 49892768 
940.610 51438428 53077432 54577792 55720320 56336740 56319800 55651388 
943.985 54395156 52686084 50693696 48591468 46540896 44657548 43012120 
947.359 41634744 40520804 39645500 38973580 38471480 38107644 37854908 
950.734 37691244 37595488 37548196 37533348 37538116 37555312 37583996 
954.109 37627644 37692072 37782716 37903244 38054036 38234160 38441828 
957.484 38675676 38935016 39219500 39527356 39855844 40200936 40558708 
960.859 40926752 41304796 41694408 42098092 42517392 42952532 43401768 
964.233 43863120 44335132 44817904 45312836 45821296 46343988 46880308 
967.608 47428816 47988752 48561120 49149416 49759284 50395828 51062976 
970.983 51762016 52492544 53253708 54046412 54874024 55742548 56658072 
974.358 57625732 58647888 59724656 60855324 62039548 63278676 64575552 
977.733 65933624 67355576 68843112 70398208 72024640 73729080 75522152 
981.108 77415944 79420936 81544080 83786048 86141216 88596736 91133168 
984.482 93720432 96311736 98844704 101232248 103368032 105144568 106455144 
987.857 107217600 107388520 106966432 105995688 104557392 102769016 
990.750 100765232 98683648 96663816 94821760 93246024 91997696 91103416 
994.125 90564872 90364544 90476552 90872488 91525824 92416016 93524152 
997.500 94832600 96324344 97980816 99783560 101714336 103750784 105863160 
1000.874 108011912 110139608 112176752 114049696 115683312 117019576 
1003.767 118024352 118691680 119045608 119137760 119046352 118861296 
1006.660 118683632 118617136 118749648 119154576 119882392 120957408 
1009.552 122384160 124152048 126243440 128638120 131315560 134256720 
1012.445 137438336 140835104 144420608 148168528 152057280 156068848 
1015.338 160180352 164355776 168532544 172609648 176459120 179932304 
1018.231 182879680 185190272 186805248 187740848 188085520 188003904 
1021.123 187718896 187469280 187510352 188069072 189312320 191348240 
1024.016 194208672 197858160 202202368 207111824 212443808 218039872 
1026.909 223748304 229418784 234890304 240008688 244625648 248609184 
1029.802 251866752 254344576 256028352 256932640 257091664 256550784 
1032.695 255360608 253583408 251290224 248550720 245431488 241979728 
1035.588 238218640 234151920 229773872 225084768 220101936 214865264 
1038.481 209434224 203885408 198300160 192761952 187358320 182168096 
1041.374 177260672 172684976 168453616 164537376 160861920 157326704 
1044.267 153814304 150221520 146487120 142598608 138600128 134576352 
1047.160 130645128 126930896 123543784 120579480 118101664 116141968 
1050.053 114704568 113767624 113290768 113218824 113494000 114058616 
1052.947 114857728 115844432 116972816 118192568 119448728 120673312 
1055.840 121788056 122716504 123382288 123722616 123695952 123281360 
1058.733 122484488 121336192 119897584 118254464 116509640 114784304 
1061.626 113195856 111848872 110833376 110210112 110014440 110257352 
1064.519 110927392 111991896 113395304 115065832 116908328 118810192 
1067.412 120659792 122344160 123767544 124863992 125591576 125934736 
1070.305 125896576 125492648 124745720 123681376 122329312 120720736 
1073.198 118887736 116867128 114698816 112430184 110121936 107843040 
1076.091 105672352 103694696 101984832 100607184 99607488 99007360 98806016 
1079.466 98980392 99488400 100265376 101225936 102272472 103289424 104162304 
1082.842 104797144 105128112 105140008 104869784 104409000 103883592 
1085.735 103437648 103223984 103373032 103987984 105136968 106841736 
1088.628 109076728 111763568 114784264 117975656 121146040 124110952 
1091.521 126693088 128752992 130206120 131016000 131196456 130797880 
1094.414 129901664 128603264 126999960 125190768 123261600 121283304 
1097.307 119316392 117404624 115578920 113857664 112242608 110716552 
1100.200 109239768 107756616 106197640 104491936 102587616 100459336 
1103.093 98120464 95619376 93037928 90475976 88030696 85796472 83848016 
1106.468 82235320 80990016 80122752 79628688 79490360 79682152 80172448 
1109.844 80922704 81893016 83039376 84311056 85654632 87006744 88294496 
1113.219 89445200 90384288 91045920 91384264 91372488 91007224 90305024 
1116.594 89299600 88036864 86567520 84948656 83234744 81473360 79705440 
1119.969 77959712 76253952 74598368 72998352 71458224 69984216 68583288 
1123.344 67262800 66027464 64877728 63810460 62820824 61906364 61070284 
1126.720 60324396 59686980 59182348 58835544 58666056 58685700 58894924 
1130.095 59282040 59821880 60478080 61205272 61948128 62650920 63262424 
1133.470 63742080 64070820 64252844 64317816 64312204 64295144 64327576 
1136.845 64458700 64723172 65133536 65679504 66327140 67022672 67702320 
1140.221 68292096 68720864 68930592 68875216 68529552 67886144 66953584 
1143.596 65752208 64311392 62669904 60870684 58962096 56996608 55022932 
1146.971 53087020 51228888 49476912 47851672 46364968 45021288 43821264 
1150.346 42762800 41842508 41055980 40397876 39862560 39443968 39136896 
1153.722 38937552 38843768 38854096 38967200 39180188 39489072 39887624 
1157.097 40369516 40928824 41560824 42261928 43029208 43859752 44749988 
1160.472 45696196 46693580 47736192 48815572 49918304 51024700 52109680 
1163.847 53141204 54084540 54906776 55575652 56065404 56355940 56433320 
1167.223 56290832 55929816 55360532 54601008 53676160 52616516 51452376 
1170.598 50214056 48930780 47626992 46326588 45051976 43822876 42658248 
1173.973 41574644 40584136 39696400 38917440 38251056 37700492 37269136 
1177.348 36960748 36779460 36728868 36811412 37028724 37382804 37876308 
1180.724 38514524 39304008 40252372 41366604 42651632 44110068 45742212 
1184.099 47546248 49516384 51639560 53893936 56241080 58626124 60982580 
1187.474 63229004 65281300 67062616 68502048 69547352 70167560 70354152 
1190.849 70123168 69513640 68586240 67411256 66066004 64629688 63169600 
1194.225 61744800 60401616 59169780 58066820 57097644 56256772 55530392 
1197.600 54898424 54338004 53822968 53326344 52822156 52283428 51685012 
1200.975 51005028 50225288 49336536 48339852 47248944 46088736 44892268 
1204.350 43698384 42542240 41454156 40456064 39559440 38767684 38077840 
1207.726 37483352 36975756 36545980 36185560 35885996 35640768 35445652 
1211.101 35299892 35206280 35170636 35200460 35302084 35480060 35736384 
1214.476 36070728 36481432 36966084 37521608 38143348 38824168 39554432 
1217.851 40322572 41116040 41924572 42740352 43558512 44376964 45194948 
1221.227 46013140 46833544 47661304 48505428 49378448 50296452 51276496 
1224.602 52333364 53478504 54717352 56048624 57463372 58945284 60469248 
1227.977 61999608 63495836 64910852 66196492 67312312 68225792 68917576 
1231.352 69383968 69637352 69707648 69639256 69496336 69356648 69302584 
1234.728 69424832 69807208 70520304 71624104 73160352 75155592 77624056 
1238.103 80567920 83977608 87827120 92075232 96658888 101491472 106475344 
1241.478 111496984 116434168 121170296 125584144 129559640 132996336 
1244.371 135806720 137929328 139333296 140016096 140000688 139327456 
1247.264 138053792 136246896 133980664 131336984 128391120 125203672 
1250.157 121813544 118230016 114438016 110408096 106115688 101555312 
1253.050 96754720 91774240 86707960 81671984 76780560 72146376 67860656 
1256.426 63981280 60537536 57524992 54913316 52649916 50669900 48906044 
1259.801 47288292 45757344 44266848 42783536 41291896 39789496 38285688 
1263.176 36795976 35339032 33933928 32596424 31339518 30172432 29099876 
1266.551 28122816 27238468 26440632 25721242 25071876 24486294 23960562 
1269.927 23493804 23086528 22739262 22451132 22219198 22039672 21909670 
1273.302 21828374 21797610 21820918 21901794 22041868 22238938 22485924 
1276.677 22770548 23076742 23383190 23665010 23898034 24058402 24128450 
1280.052 24100534 23977126 23771078 23500450 23185916 22844300 22486516 
1283.427 22118078 21741210 21358472 20976106 20604256 20256504 19948162 
1286.803 19692352 19499624 19377862 19332200 19366914 19485520 19689926 
1290.178 19979282 20349380 20792610 21298298 21853914 22445306 23055080 
1293.553 23662212 24241988 24765988 25207746 25547784 25777144 25901734 
1296.928 25940494 25923680 25884748 25857210 25871418 25950026 26109606 
1300.304 26359648 26701294 27125308 27610924 28128048 28636482 29093534 
1303.679 29461522 29709952 29821338 29791990 29629880 29352390 28982616 
1307.054 28549106 28080716 27605520 27149998 26733886 26370526 26066256 
1310.429 25821166 25632520 25497008 25412966 25380120 25398914 25468090 
1313.805 25583912 25740226 25930962 26151234 26399222 26675748 26983478 
1317.180 27324450 27699062 28106308 28544544 29012904 29511558 30040576 
1320.555 30597968 31176866 31765162 32345086 32894618 33392384 33818688 
1323.930 34159192 34408320 34570892 34664512 34717448 34770068 34867572 
1327.306 35050864 35352584 35786284 36344152 36997476 37704684 38421700 
1330.681 39108104 39738076 40301448 40802544 41255460 41680908 42101996 
1334.056 42539904 43014464 43541368 44129796 44781904 45490992 46243620 
1337.431 47020628 47800512 48563860 49292440 49971684 50589628 51137072 
1340.807 51608360 52001768 52319496 52566584 52748636 52869536 52929640 
1344.182 52925300 52850372 52699216 52469100 52161836 51782808 51338700 
1347.557 50834620 50270856 49642552 48942200 48163712 47307428 46384324 
1350.932 45416676 44439432 43495072 42627872 41883816 41302352 40913900 
1354.308 40738416 40780232 41025936 41442124 41981104 42583832 43186220 
1357.683 43733380 44178984 44490784 44653360 44665296 44540084 44304640 
1361.058 44002400 43690876 43432744 43294568 43328100 43559316 43984908 
1364.433 44573020 45272384 46017968 46743796 47385912 47882080 48183372 
1367.809 48254828 48081500 47670844 47050316 46262012 45350464 44360856 
1371.184 43334028 42303088 41301696 40365332 39531312 38840872 38329296 
1374.559 38017368 37905844 37976032 38198196 38539872 38978072 39503040 
1377.934 40118616 40839632 41689228 42697912 43898460 45325932 47009700 
1381.310 48958780 51145384 53486112 55848116 58043184 59856412 61089924 
1384.685 61566996 61173536 59879308 57762416 55016052 51914008 48779088 
1388.060 45885736 43411176 41429476 39922020 38818440 38026408 37459984 
1391.435 37044632 36718232 36433792 36152572 35845260 35495808 35101908 
1394.811 34675244 34234764 33799812 33382080 32984122 32602568 32233444 
1398.186 31878256 31547658 31259108 31032282 30882980 30817418 30832964 
1401.561 30920230 31067728 31264912 31503834 31780638 32094538 32446404 
1404.936 32836076 33261404 33717660 34199236 34701084 35221264 35761352 
1408.312 36325132 36916444 37536492 38182492 38847536 39523836 40204316 
1411.687 40885792 41568300 42254076 42944812 43640500 44339904 45042680 
1415.062 45750828 46470160 47209384 47977908 48783464 49629848 50516108 
1418.437 51435292 52374404 53315816 54237380 55113956 55919564 56630664 
1421.813 57231628 57718324 58105112 58426504 58735812 59090316 59537036 
1425.188 60102880 60790184 61586548 62475344 63445216 64489484 65601080 
1428.563 66768192 67968592 69174064 70359912 71513688 72640688 73759432 
1431.938 74896496 76074992 77310544 78611912 79987696 81454288 83039096 
1435.313 84779944 86712856 88858328 91202280 93700120 96294528 98929248 
1438.689 101554768 104114760 106542160 108737944 110575872 111930112 
1441.582 112677544 112726424 112029840 110581768 108418856 105612728 
1444.475 102274232 98538656 94548024 90455208 86401088 82514304 78918736 
1447.850 75714008 72965312 70688984 68853048 67392600 66235280 65330132 
1451.225 64657764 64229332 64069016 64192532 64588084 65214648 66000544 
1454.601 66857688 67698568 68437072 69014096 69415736 69689280 69921392 
1457.976 70197168 70576904 71081224 71707304 72443608 73277536 74195208 
1461.351 75175760 76191352 77197496 78131304 78924456 79508152 79837784 
1464.726 79910504 79769656 79487696 79135032 78766168 78408136 78065624 
1468.102 77729128 77378088 76979976 76482280 75812080 74881936 73607136 
1471.477 71947448 69944512 67741672 65539152 63530588 61840608 60504056 
1474.852 59498120 58779508 58315192 58092424 58112040 58372948 58860436 
1478.227 59542580 60378500 61326032 62354876 63452616 64623652 65885492 
1481.603 67260096 68769928 70434416 72273344 74314328 76593248 79152728 
1484.978 82029680 85238944 88750200 92466272 96229272 99806368 102909168 
1488.353 105241456 106510320 106494776 105106920 102423280 98684728 94222152 
1491.728 89387592 84458256 79601432 74904376 70385432 66040428 61885960 
1495.104 57970364 54382616 51234928 48624116 46601864 45161596 44257528 
1498.479 43823168 43793336 44116228 44747120 45644668 46768444 48070912 
1501.854 49499860 51002676 52512212 53948820 55213804 56163016 56613564 
1505.229 56355788 55203496 53098028 50185268 46793612 43279520 39891404 
1508.604 36727352 33780724 31010326 28386260 25902402 23581394 21458232 
1511.980 19559030 17896056 16461240 15233192 14184671 13289107 12521992 
1515.355 11858236 11274038 10750568 10277123 9855711 9496509 9209822 8995946 
1519.212 8841584 8719629 8599633 8459637 8300433 8147129 8036709 7995195 
1523.070 8023309 8100136 8194228 8279157 8340963 8383085 8421865 8477273 
1526.927 8560296 8668585 8789511 8909761 9023279 9134186 9252874 9389166 
1530.785 9544907 9711751 9872794 10010365 10116506 10199572 10283263 
1534.160 10392695 10542992 10731922 10944888 11162514 11369161 11557803 
1537.535 11727907 11883639 12028695 12161874 12277268 12370020 12445642 
1540.910 12520560 12614831 12741912 12900295 13075569 13246951 13398137 
1544.286 13523806 13632450 13741703 13869695 14025923 14207370 14402181 
1547.661 14595641 14778937 14951027 15119789 15296511 15489958 15700255 
1551.036 15919557 16136114 16341152 16533103 16718457 16908922 17115530 
1554.411 17343822 17590800 17846616 18098232 18333988 18543248 18716006 
1557.787 18844054 18924688 18969196 19002636 19058060 19157674 19304314 
1561.162 19485624 19680774 19867616 20023900 20134286 20192770 20204990 
1564.537 20187528 20161428 20144456 20142754 20150288 20151674 20130086 
1567.912 20072826 19977304 19851764 19714544 19587312 19486526 19421344 
1571.288 19392898 19397228 19427720 19474880 19526830 19566342 19574142 
1574.663 19533276 19436972 19297040 19143406 19015340 18940746 18927110 
1578.038 18962518 19026764 19100298 19170106 19232616 19290530 19350284 
1581.413 19417498 19494670 19580830 19672938 19766902 19858354 19941224 
1584.789 20005962 20039480 20027614 19957772 19824956 19634768 19405302 
1588.164 19163076 18939466 18766030 18667438 18661248 18757104 18955976 
1591.539 19249448 19616222 20022928 20421334 20754514 20969604 21021662 
1594.914 20886572 20565624 20084452 19486732 18821286 18138096 17477608 
1598.290 16869720 16337538 15896976 15558638 15328260 15204779 15182475 
1601.665 15252135 15404913 15634060 15933545 16297495 16715117 17168818 
1605.040 17635312 18085242 18486610 18810664 19030676 19126544 19086170 
1608.415 18905202 18587512 18143726 17593422 16962840 16284421 15596073 
1611.791 14932062 14318308 13768687 13282479 12849098 12451233 12071925 
1615.166 11697680 11323586 10955829 10610724 10309729 10070588 9902352 
1618.541 9803381 9763900 9768034 9797891 9836289 9868252 9885810 9889674 
1622.398 9889538 9899843 9934150 9999583 10094495 10211851 10343321 10483621 
1626.256 10630350 10782563 10938839 11094933 11244657 11382869 11507683 
1629.631 11622291 11732980 11846488 11965851 12088994 12207775 12310331 
1633.006 12383589 12415227 12396579 12324988 12206413 12055879 11894604 
1636.382 11744179 11618343 11521599 11449371 11392019 11337054 11272099 
1639.757 11188420 11082663 10958956 10826111 10695956 10576908 10471198 
1643.132 10373827 10274036 10158902 10016129 9839611 9630777 9401727 9171681 
1646.990 8962492 8793501 8675649 8611429 8596187 8620183 8668753 8720946 
1650.847 8751475 8726998 8615755 8403285 8114955 7817607 7582329 7445390 
1654.704 7396753 7403292 7430357 7453379 7460862 7450412 7425503 7391934 
1658.562 7353986 7311729 7262602 7201487 7124045 7028130 6914391 6786211 
1662.419 6649960 6513886 6386463 6275447 6185869 6118891 6071310 6035628 
1666.277 6001561 5956815 5889972 5794161 5668627 5520141 5361072 5205952 
1670.134 5066441 4948792 4854427 4780652 4722298 4671654 4619208 4553710 
1673.991 4464386 4346197 4203984 4053758 3916087 3808175 3735514 3692671 
1677.849 3666272 3642682 3612711 3574391 3533635 3499363 3478688 3471006 
1681.706 3466430 3446157 3389251 3280601 3122250 2938270 2766539 2639143 
1685.564 2565543 2536314 2532781 2538147 2540513 2534014 2517250 2491057 
1689.421 2457467 2419148 2380266 2346752 2324699 2318836 2329395 2350549 
1693.279 2370038 2372437 2343254 2275999 2178551 2074232 1992074 1950235 
1697.136 1948803 1970804 1991508 1983952 1927736 1818653 1674471 1531368 
1700.993 1424247 1370430 1364114 1387747 1420723 1446786 1455596 1442231 
1704.851 1408058 1359960 1308012 1261453 1226696 1205597 1196127 1194034 
1708.708 1194466 1194400 1192738 1190878 1191310 1196526 1207524 1222974 
1712.566 1239821 1254342 1264344 1269130 1269927 1267734 1262218 1250321 
1716.423 1227892 1191808 1144565 1094968 1055673 1037239 1043882 1072712 
1720.281 1115796 1163800 1208953 1247464 1279265 1307414 1336262 1369100 
1724.138 1406961 1448681 1492101 1535359 1577291 1616799 1652053 1680192 
1727.995 1697556 1701248 1691568 1672276 1649459 1628805 1612043 1594251 
1731.853 1563590 1503837 1400844 1250986 1069026 885647 735767 640422 599742 
1736.192 598315 615436 632857 636474 619783 583186 533354 480775 435632 
1740.532 405318 392384 395668 411355 435400 463593 492253 519189 543406 
1744.872 565269 586338 607639 629173 649614 666339 675896 676095 665708 
1749.211 644935 615237 578242 536174 492319 450989 416761 393578 383032 
1753.551 383364 389433 393313 386945 364494 324602 272314 216817 168353 
1757.890 132490 109024 91824 72138 41485 -4870 -66561 -137650 -209588 
1762.230 -273534 -323698 -357898 -377630 -386005 -386568 -383721 -381966 
1766.087 -385475 -397426 -418049 -444067 -468957 -485605 -489842 -482925 
1769.945 -471241 -464555 -472830 -501161 -546665 -598485 -642424 -667535 
1773.802 -670148 -653838 -626179 -594448 -563178 -533130 -503047 -472168 
1777.660 -440823 -412223 -390441 -379152 -378921 -387429 -400008 -411660 
1781.517 -419837 -425001 -429900 -437414 -448932 -463629 -478688 -490570 
1785.375 -496891 -497355 -492655 -483951 -471605 -455254 -434302 -410369 
1789.232 -387429 -371571 -370015 -388587 -427980 -483686 -545639 -602786 
1793.089 -646626 -674482 -688377 -693537 -694993 -696151 -698466 -702965 
1796.947 -710342 -722251 -740576 -766541 -799715 -837747 -876272 -910595 
1800.804 -936946 -953775 -961644 -962206 -957643 -949709 -939261 -927656 
1804.662 -916117 -906197 -898923 -894459 -891119 -887085 -880174 -869791 
1808.519 -857589 -846379 -839202 -838607 -844295 -853488 -862384 -867344 
1812.376 -866617 -860532 -851107 -840790 -831034 -822039 -812613 -801302 
1816.234 -786684 -768096 -745703 -719869 -691222 -660720 -628925 -597128 
1820.091 -567149 -540378 -517675 -499638 -486036 -476868 -472731 -474286 
1823.949 -481932 -494442 -508210 -517576 -517675 -505265 -481435 -451647 
1827.806 -424173 -407291 -406066 -419605 -440657 -458664 -463099 -448535 
1831.664 -415931 -371240 -321744 -273336 -228962 -187829 -147421 -104624 
1835.521 -57781 -6560 48113 106008 167955 235879 311638 396298 488604 586304 
1840.343 685553 783099 876749 965206 1048133 1126758 1203171 1280927 1364746 
1844.682 1459519 1567879 1689074 1818420 1947872 2068040 2170026 2247855 
1848.540 2299715 2327597 2335225 2326631 2303813 2266007 2211520 2138991 
1852.397 2049263 1945875 1834125 1719045 1603729 1489607 1375548 1260756 
1856.255 1146026 1033453 926122 826187 733378 645201 558535 470824 382170 
1860.594 295656 215358 144985 85626 35686 -8349 -49068 -87630 -122876 
1864.934 -152224 -174316 -190015 -202335 -216344 -235850 -261150 -288932 
1868.791 -312937 -327141 -328168 -317241 -298302 -276779 -256911 -241082 
1872.649 -230021 -224259 -224954 -233366 -251116 -278071 -312242 -350052 
1876.506 -387660 -422518 -455089 -488187 -525155 -568605 -618073 -670611 
1880.364 -721788 -767037 -804808 -835995 -863310 -889301 -914992 -939625 
1884.221 -961379 -978901 -993546 -1007695 -1025545 -1049808 -1080844 
1887.596 -1115746 -1150148 -1178732 -1197865 -1206786 -1205762 -1196609 
1890.971 -1180979 -1159732 -1134451 -1107847 -1083786 -1066797 -1060187 
1894.347 -1063955 -1074267 -1085240 -1090198 -1085141 -1070367 -1049378 
1897.722 -1027429 -1007761 -991166 -975165 -956155 -931458 -901237 -868601 
1901.579 -838045 -813142 -795250 -782913 -773156 -764160 -755527 -749110 
1905.437 -747456 -752517 -763168 -777125 -791116 -803022 -812779 -822965 
1909.294 -835631 -851901 -870452 -887713 -900245 -906726 -907454 -905999 
1913.152 -905900 -908975 -914728 -920812 -925176 -927656 -931326 -940881 
1917.009 -960850 -992819 -1033181 -1075325 -1112242 -1140333 -1160095 
1920.384 -1176386 -1194692 -1219111 -1249078 -1280794 -1308412 -1328133 
1923.760 -1339132 -1343922 -1347225 -1352444 -1359843 -1367572 -1372593 
1927.135 -1373055 -1370248 -1367869 -1369224 -1376358 -1387819 -1399841 
1930.510 -1408230 -1411896 -1412457 -1415430 -1425734 -1445747 -1473684 
1933.885 -1504459 -1532030 -1552698 -1567357 -1579671 -1594692 -1615225 
1937.260 -1639587 -1662165 -1676853 -1679856 -1671770 -1657577 -1643449 
1940.636 -1634669 -1633381 -1636880 -1641733 -1645826 -1649127 -1655035 
1944.011 -1666357 -1683322 -1701475 -1714412 -1715336 -1700122 -1670780 
1947.386 -1633579 -1595518 -1563032 -1537742 -1517733 -1499969 -1482798 
1950.761 -1466749 -1455720 -1453243 -1459319 -1472165 -1486463 -1498318 
1954.137 -1507002 -1516709 -1533516 -1563527 -1608326 -1663980 -1722597 
1957.512 -1776124 -1819483 -1853467 -1883357 -1914401 -1948773 -1983802 
1960.887 -2012365 -2027470 -2027404 -2016190 -2002635 -1996402 -2002372 
1964.262 -2019950 -2043234 -2065197 -2081619 -2093688 -2105889 -2123727 
1967.638 -2148126 -2175425 -2197909 -2209546 -2208293 -2198238 -2187590 
1971.013 -2183403 -2186930 -2194150 -2196029 -2184095 -2156368 -2117264 
1974.388 -2074298 -2034099 -1996600 -1953820 -1893320 -1806185 -1691309 
1977.763 -1560226 -1432240 -1325061 -1250664 -1211478 -1200211 -1206885 
1981.139 -1224133 -1248087 -1279572 -1319676 -1366185 -1411995 -1448488 
1984.514 -1467674 -1467674 -1453640 -1434717 -1420053 -1415100 -1417543 
1987.889 -1420384 -1417378 -1404432 -1384516 -1365260 -1353898 -1354162 
1991.264 -1363708 -1374475 -1375797 -1362221 -1332955 -1293249 -1250829 
1994.640 -1212205 -1179228 -1151734 -1127874 -1107087 -1092247 -1087917 
1998.015 -1096378 -1117596 -1146282 -1174668 -1195419 -1206588 -1210652 
2001.390 -1216170 -1232195 -1263615 -1311054 -1370248 -1433264 -1494058 
2004.765 -1549859 -1600106 -1645760 -1686920 -1720287 -1742200 -1751078 
2008.141 -1748273 -1739626 -1733125 -1732399 -1736821 -1739824 -1732102 
2011.516 -1705369 -1659029 -1598621 -1535265 -1480321 -1441520 -1419690 
2014.891 -1411698 -1409848 -1407867 -1403243 -1394920 -1382072 -1364005 
2018.266 -1337448 -1299922 -1252051 -1199352 -1148958 -1109863 -1085901 
2021.642 -1075721 -1072119 -1066632 -1052188 -1029611 -1004191 -983992 
2025.017 -974769 -976983 -983430 -984554 -971760 -941245 -897270 -848396 
2028.874 -802559 -764061 -732207 -701510 -665682 -622672 -572278 -517477 
2032.732 -462172 -406099 -346940 -282375 -210714 -135198 -62055 1656 51427 
2037.071 86919 111775 132655 153570 175712 197358 214595 224839 229215 
2041.411 230210 231602 236210 242443 246852 247449 242841 236575 234619 
2045.750 243868 268767 310444 365556 429297 497527 566198 631596 691096 
2050.090 738290 766934 772909 755582 720434 678219 641916 621508 621409 
2054.430 638232 663120 686549 702180 709913 715289 726507 748977 783663 
2058.769 825755 867719 902580 927317 942625 952753 962416 973176 984101 
2063.109 993234 998083 999245 999975 1003097 1010869 1022858 1034881 1042254 
2067.448 1041291 1031792 1015983 999212 984633 973574 964907 955310 941596 
2071.788 923631 902713 881663 863104 847234 832959 818419 802883 787946 
2076.128 777490 776261 787348 811580 846371 886842 928181 966700 999643 
2080.467 1026943 1047701 1061652 1068295 1067996 1061784 1053115 1046140 
2084.325 1043982 1048133 1057998 1070155 1081349 1089254 1092742 1092676 
2088.182 1089985 1084604 1075071 1059626 1036210 1005057 968626 931235 
2092.040 897600 871636 854306 845209 842852 845574 852048 862739 876683 
2096.379 891889 906631 917787 924428 928214 932597 941363 957203 979485 
2100.719 1004293 1027242 1044081 1054511 1061685 1072181 1091413 1123204 
2104.576 1166558 1216827 1267501 1312698 1348925 1376479 1397720 1415404 
2108.434 1432158 1449944 1469326 1491968 1519431 1552849 1592488 1636987 
2112.291 1682521 1724766 1759963 1786446 1805211 1819119 1830997 1842544 
2116.148 1854090 1864140 1871161 1875420 1878815 1884372 1895321 1912427 
2120.006 1934425 1958123 1979824 1997100 2010149 2021067 2032685 2047932 
2123.863 2068040 2092277 2119712 2148981 2178917 2208989 2237430 2261311 
2127.721 2277398 2281795 2272868 2251452 2222010 2189440 2159103 2134163 
2131.578 2114485 2098170 2083821 2070237 2059417 2054723 2057919 2069172 
2135.436 2086218 2103231 2116183 2122443 2123042 2121177 2120012 2120944 
2139.293 2121843 2118847 2107659 2086084 2056521 2024263 1995202 1974399 
2143.150 1962516 1956159 1950534 1939950 1920148 1890030 1850430 1802516 
2147.008 1748386 1689107 1626776 1563357 1502208 1445389 1394761 1348293 
2150.865 1301697 1249624 1186658 1109052 1016814 911114 793456 665509 529838 
2155.205 389267 252654 134511 50764 20079 54807 156255 312400 501342 698695 
2160.027 880932 1035246 1154631 1238592 1290697 1314991 1316487 1303160 
2163.884 1282954 1265076 1257366 1261919 1275277 1290431 1296878 1286045 
2167.741 1254708 1203836 1137987 1063844 987455 912209 841558 778552 725877 
2172.081 688739 670089 669525 684591 708054 731519 747816 753259 746123 
2176.421 727005 696538 653629 596888 526487 445483 361377 285676 227955 
2180.760 196197 192551 210750 241945 275398 303282 321220 330107 331068 
2185.100 327023 321452 317142 317341 327753 352556 393578 449895 515142 
2189.439 579702 636175 678286 705267 721230 732747 744563 759864 777490 
2193.779 795082 809688 821141 830137 839698 851484 865129 878542 888602 
2198.119 893217 893450 892387 893217 898430 908059 918817 926554 928081 
2202.458 922071 910084 896106 883489 875255 872101 874126 880268 891690 
2206.798 908623 931634 960623 993201 1025681 1055474 1079854 1099220 1115497 
2211.137 1130811 1146790 1163501 1179681 1193934 1205796 1215997 1225765 
2214.995 1236797 1248959 1260290 1268598 1271655 1268233 1260058 1249358 
2218.852 1238326 1228856 1220848 1213405 1205929 1199084 1194267 1193370 
2222.710 1197091 1203736 1209916 1212043 1207557 1197257 1185263 1176026 
2226.567 1174764 1183801 1201178 1223473 1245869 1264776 1279299 1290465 
2230.425 1298939 1305353 1309075 1307945 1300700 1288969 1275444 1265042 
2234.282 1262284 1269529 1286111 1310538 1339552 1371094 1405531 1443461 
2238.139 1485817 1532233 1579618 1624049 1661300 1689273 1707934 1719910 
2241.997 1728392 1736044 1744227 1753176 1762126 1771973 1783950 1800253 
2245.854 1822546 1851262 1884372 1919016 1951732 1979558 2001127 2016440 
2249.712 2025528 2029123 2027358 2021566 2013344 2006853 2006054 2014975 
2253.569 2035215 2065177 2099968 2133963 2161401 2179084 2187076 2186909 
2257.427 2181081 2171557 2158571 2141555 2120245 2095640 2070170 2047233 
2261.284 2029622 2018404 2012978 2011347 2011214 2012545 2016340 2024695 
2265.141 2039542 2061015 2086384 2112154 2134263 2150046 2159303 2164098 
2268.999 2166596 2169327 2173322 2177951 2182081 2184778 2185444 2184511 
2272.856 2182447 2178984 2174355 2168228 2160968 2154475 2151644 2154974 
2276.714 2166463 2186343 2212419 2240994 2269504 2295185 2317836 2338257 
2280.571 2357878 2377668 2397958 2417948 2437241 2455567 2473662 2492123 
2284.428 2511685 2531715 2550779 2566743 2577709 2583109 2583876 2582009 
2288.286 2579809 2579409 2581909 2587209 2595408 2606242 2619409 2635410 
2292.143 2654178 2675014 2697152 2719824 2742264 2764838 2788714 2814793 
2296.001 2843774 2875059 2907214 2937736 2965092 2988011 3006628 3021976 
2299.858 3035122 3046734 3057044 3065153 3070458 3072961 3072761 3070859 
2303.716 3068523 3066788 3066855 3069691 3076865 3089679 3109869 3138503 
2307.573 3175117 3217942 3263776 3308345 3348112 3380735 3405013 3422178 
2311.430 3434234 3443719 3452870 3463658 3477252 3494219 3514929 3538512 
2315.288 3564168 3590962 3617389 3643183 3668478 3693673 3719873 3747980 
2319.145 3777893 3809245 3841268 3872692 3903282 3932370 3959220 3982025 
2323.003 3998109 4004162 3997073 3976072 3942568 3900741 3856445 3815696 
2326.860 3783374 3762117 3751322 3748648 3751021 3754931 3758340 3760713 
2330.718 3761816 3762251 3762551 3763354 3765626 3770974 3781201 3797813 
2334.575 3821780 3852534 3888070 3926485 3964871 4001754 4036367 4068908 
2338.432 4099580 4128881 4156780 4183208 4208367 4233259 4258655 4285257 
2342.290 4312129 4336860 4355200 4362831 4356271 4335220 4302758 4265749 
2346.147 4233327 4215326 4219040 4249353 4307343 4390778 4494215 4611272 
2350.005 4734189 4854896 4967426 5067547 5153978 5228319 5293852 5354196 
2353.862 5411293 5465915 5516920 5563232 5604414 5640698 5674401 5707603 
2357.719 5741881 5777573 5814410 5851384 5887823 5923493 5958393 5992625 
2361.577 6025549 6056157 6083507 6107264 6127729 6146346 6164830 6183248 
2365.434 6201330 6216925 6227614 6231446 6227883 6217127 6201061 6181197 
2369.292 6158243 6132669 6104777 6075409 6046245 6019770 5998437 5984294 
2373.149 5977608 5977205 5981136 5987854 5996186 6006668 6020744 6039861 
2377.007 6065800 6098930 6139524 6187382 6242202 6303652 6371231 6444066 
2380.864 6520714 6599528 6679367 6759523 6840333 6922438 7006275 7090971 
2384.721 7174538 7253302 7323489 7381958 7427289 7459985 7482233 7496627 
2388.579 7505493 7510078 7510921 7507954 7501347 7491605 7479402 7465041 
2392.436 7448761 7429480 7406460 7379194 7348055 7315166 7283155 7255021 
2396.294 7233189 7219039 7212773 7213784 7221801 7236390 7257750 7285817 
2400.151 7320490 7360793 7405955 7454929 7507348 7564088 7626029 7694455 
2404.009 7770447 7854212 7945856 8044978 8151721 8266087 8388118 8517989 
2407.866 8654894 8797694 8945579 9097575 9253652 9414356 9579727 9749126 
2411.723 9920658 10091105 10256767 10414449 10561393 10696092 10818399 
2415.099 10927456 11022606 11103194 11168123 11217354 11252172 11274751 
2418.474 11288116 11295529 11298794 11299169 11296855 11291211 11282097 
2421.849 11269889 11255403 11239694 11223372 11207459 11192534 11180192 
2425.224 11172645 11172645 11183286 11206984 11244420 11296074 11360249 
2428.600 11436001 11522247 11619432 11728009 11849689 11984789 12133321 
2431.975 12294105 12465862 12646624 12835480 13031112 13233287 13441572 
2435.350 13656076 13876811 14104365 14339575 14582859 14834750 15095157 
2438.725 15363924 15640449 15924782 16217243 16518716 16830280 17152446 
2442.101 17484644 17825764 18174200 18528378 18887934 19253502 19626170 
2445.476 20007210 20396744 20793722 21196558 21602728 22010114 22417254 
2448.851 22823276 23226916 23627084 24022016 24409282 24787142 25154096 
2452.226 25509234 25852358 26183046 26500712 26803770 27090710 27359244 
2455.602 27607428 27833004 28033388 28205298 28344804 28447810 28510892 
2458.977 28532088 28510574 28447280 28344096 28202256 28022998 27807322 
2462.352 27555810 27270536 26955130 26614694 26255726 25885592 25510220 
2465.727 25135558 24766306 24406478 24060224 23731566 23424488 23143314 
2469.103 22890890 22669926 22482398 22329900 22213792 22135268 22094196 
2472.478 22088932 22115080 22166892 22236496 22316438 22400438 22484840 
2475.853 22567304 22648038 22726902 22803964 22877688 22946218 23007214 
2479.228 23058784 23099142 23127552 23143174 23145656 23135206 23112108 
2482.604 23077408 23032858 22980662 22922816 22861064 22796458 22729662 
2485.979 22660570 22589502 22516700 22442306 22366562 22289056 22208806 
2489.354 22124494 22035664 21941800 21843008 21740058 21633130 21521802 
2492.729 21405180 21281560 21149000 21006778 20854102 20691230 20518794 
2496.104 20337574 20147960 19950486 19746028 19535322 19320040 19101752 
2499.480 18881218 18659068 18434888 18207782 17977274 17744332 17510448 
2502.855 17278620 17051876 16832726 16622603 16421871 16230382 16047608 
2506.230 15873536 15708432 15552662 15406698 15269672 15140272 15017118 
2509.605 14898628 14784011 14673330 14566789 14464523 14366150 14270985 
2512.981 14177928 14086807 13997588 13911603 13830082 13754528 13685346 
2516.356 13622876 13566672 13516627 13473391 13437710 13410985 13394207 
2519.731 13387099 13388603 13396975 13409858 13425338 13442768 13461838 
2523.106 13482585 13505450 13530539 13557306 13585337 13613714 13642023 
2526.482 13669377 13695399 13719337 13740676 13759008 13774125 13785788 
2529.857 13794031 13798545 13798888 13794270 13783907 13767456 13745499 
2533.232 13719200 13690543 13661650 13634228 13609577 13588415 13570843 
2536.607 13556383 13544725 13535393 13527121 13519226 13510782 13501280 
2539.983 13491368 13482345 13476227 13474996 13480397 13492530 13510407 
2543.358 13531941 13554776 13576655 13596278 13612859 13626296 13636382 
2546.733 13642536 13644485 13641989 13635458 13626057 13615766 13606056 
2550.108 13598432 13593816 13591355 13590295 13589474 13587868 13584996 
2553.484 13580997 13576278 13571390 13567185 13564245 13563219 13564484 
2556.859 13567492 13571355 13574296 13574261 13569475 13558878 13542265 
2560.234 13520695 13495265 13467204 13436889 13404287 13368749 13329969 
2563.609 13288151 13243911 13198480 13153260 13109034 13066281 13024932 
2566.985 12985089 12947230 12912616 12882784 12858585 12840975 12829542 
2570.360 12823297 12821250 12822513 12827085 12835480 12848893 12867938 
2573.735 12892921 12923130 12957607 12994717 13033229 13071983 13110297 
2577.110 13147795 13184237 13219521 13254262 13288833 13324741 13363077 
2580.486 13405039 13451209 13502237 13558229 13618979 13684833 13755519 
2583.861 13830733 13909585 13990744 14072193 14152288 14229315 14302898 
2587.236 14373548 14442428 14510977 14580633 14651807 14724331 14797757 
2590.611 14871231 14943997 15015609 15085929 15154717 15222108 15288274 
2593.987 15353248 15417444 15481236 15544489 15607441 15669990 15731690 
2597.362 15792368 15852332 15911961 15972113 16034165 16098633 16166514 
2600.737 16237950 16313078 16391523 16473388 16558263 16646013 16736433 
2604.112 16829282 16924940 17023998 17127250 17235970 17350926 17472020 
2607.488 17598356 17728526 17860184 17991432 18121410 18249698 18376814 
2610.863 18503586 18630256 18756378 18880838 19001736 19116986 19225204 
2614.238 19325446 19417118 19500490 19575736 19643436 19704384 19759378 
2617.613 19809626 19855824 19898868 19939212 19976852 20011826 20043816 
2620.989 20073312 20100934 20127450 20153966 20181422 20210336 20240778 
2624.364 20272752 20306014 20340768 20376952 20414630 20453840 20494410 
2627.739 20536338 20579450 20624582 20672326 20723652 20779818 20841206 
2631.114 20907502 20978228 21051710 21126250 21200350 21273036 21343124 
2634.490 21410542 21475396 21538064 21599524 21660818 21722852 21786810 
2637.865 21853042 21921622 21992128 22064144 22136870 22210132 22284032 
2641.240 22358190 22432990 22508360 22583672 22658930 22733920 22808750 
2644.615 22884288 22961624 23041836 23125700 23213564 23305046 23399660 
2647.990 23496568 23594826 23693704 23793160 23893028 23993616 24095422 
2651.366 24199000 24305162 24414436 24527312 24643898 24764200 24887834 
2654.741 25014380 25143386 25274784 25408540 25544762 25683662 25825174 
2658.116 25969160 26115412 26263540 26413306 26564320 26716022 26868092 
2661.491 27019760 27170314 27319438 27466640 27612300 27756668 27900448 
2664.867 28044380 28189104 28334902 28481668 28629262 28777118 28924778 
2668.242 29071956 29218866 29365470 29512764 29661560 29812856 29967258 
2671.617 30125374 30286638 30450590 30616596 30783592 30951112 31118380 
2674.992 31285070 31450432 31613826 31774220 31930820 32083408 32232516 
2678.368 32379322 32525998 32674506 32826964 32984730 33148884 33319932 
2681.743 33498168 33684212 33878760 34082524 34296392 34520628 34755244 
2685.118 34999972 35254396 35517780 35789740 36069792 36357664 36652716 
2688.493 36954612 37263180 37578432 37900676 38230144 38567176 38911676 
2691.869 39263344 39621688 39986396 40357004 40733936 41117024 41506648 
2695.244 41902680 42304512 42711584 43123460 43539868 43961260 44388124 
2698.619 44820732 45259292 45702936 46150672 46601388 47054156 47508540 
2701.994 47964404 48421744 48879864 49337392 49792392 50242324 50683976 
2705.370 51115264 51533332 51936000 52321028 52686236 53029288 53348896 
2708.745 53643804 53913704 54158964 54380400 54578920 54755084 54909596 
2712.120 55042640 55154324 55244996 55313940 55360648 55383908 55382216 
2715.495 55354588 55300204 55219524 55113660 54984048 54832820 54661320 
2718.871 54471476 54264672 54043260 53810104 53569356 53325216 53082636 
2722.246 52845736 52618308 52403452 52203496 52020440 51856132 51712148 
2725.621 51589892 51490204 51413660 51360476 51330528 51324116 51340860 
2728.996 51380764 51443052 51526540 51629820 51750928 51887868 52039640 
2732.372 52204840 52381844 52569612 52766180 52968940 53175616 53384300 
2735.747 53593308 53801816 54009712 54216584 54421748 54624340 54822784 
2739.122 55015936 55203004 55383948 55559088 55729324 55895184 56057636 
2742.497 56217356 56375368 56533284 56693332 56857856 57028832 57207816 
2745.873 57394656 57589108 57789860 57995356 58203452 58412668 58620280 
2749.248 58823476 59018840 59203160 59373276 59528216 59667708 59793552 
2752.623 59908364 60015180 60116692 60214764 60310008 60401956 60489700 
2755.998 60571244 60644808 60708288 60759888 60798036 60821820 60830512 
2759.374 60823420 60799904 60759012 60698764 60617380 60513120 60384784 
2762.749 60231968 60055584 59857244 59639008 59403744 59154028 58892956 
2766.124 58623392 58348996 58073028 57798904 57529716 57268108 57016364 
2769.499 56776588 56550644 56340360 56147444 55973236 55818652 55683556 
2772.875 55566880 55467140 55382404 55310476 55249400 55197212 55152068 
2776.250 55111660 55073448 55034068 54989912 54936816 54870000 54785532 
2779.625 54679208 54548296 54391476 54209564 54004876 53781868 53545856 
2783.000 53301840 53055008 52809136 52566472 52328692 52096716 51870396 
2786.375 51649672 51433504 51220276 51008120 50794692 50578012 50357060 
2789.751 50131636 49902396 49670564 49438076 49206564 48977472 48752212 
2793.126 48532180 48318708 48113440 47917372 47731492 47556448 47392120 
2796.501 47238676 47096696 46966168 46848196 46742944 46650412 46570072 
2799.876 46500992 46441328 46390000 46345832 46308344 46277048 46251392 
2803.252 46230532 46212808 46196552 46179972 46161656 46141204 46118836 
2806.627 46095148 46071088 46047144 46023568 45999620 45974536 45947392 
2810.002 45916748 45881872 45841696 45795080 45741476 45680220 45610252 
2813.377 45531392 45442944 45344984 45237964 45123364 45003424 44882016 
2816.753 44763280 44652112 44553376 44471476 44410036 44371976 44359792 
2820.128 44375352 44420348 44496144 44603384 44741908 44910232 45105900 
2823.503 45325528 45564912 45819128 46083208 46351916 46619352 46880236 
2826.878 47129048 47361264 47573528 47763560 47930288 48073504 48193696 
2830.254 48291304 48367220 48422636 48458752 48477828 48482496 48475420 
2833.629 48459860 48438896 48415524 48392812 48373964 48361516 48358332 
2837.004 48366704 48388556 48426004 48481536 48558264 48660732 48794588 
2840.379 48966088 49182180 49449028 49772544 50158640 50613120 51142700 
2843.755 51754960 52457364 53256064 54152656 55142512 56209816 57327388 
2847.130 58456792 59545584 60535212 61365604 61977936 62327148 62385324 
2850.505 62146808 61627632 60864968 59912088 58826176 57667240 56490188 
2853.880 55337464 54242484 53227488 52304172 51476996 50744336 50100028 
2857.256 49534916 49037600 48596952 48200992 47839832 47504956 47189252 
2860.631 46887468 46595300 46309004 46025776 45743536 45461264 45179024 
2864.006 44898400 44622036 44353444 44097488 43859092 43643756 43457100 
2867.381 43304120 43189188 43115192 43083208 43092760 43140916 43222892 
2870.757 43332492 43461968 43602872 43747048 43886548 44014828 44127744 
2874.132 44223152 44301408 44364820 44416972 44461456 44502164 44542328 
2877.507 44584364 44630924 44683952 44745104 44816032 44897704 44990452 
2880.882 45094140 45208328 45331964 45464244 45604256 45750608 45901356 
2884.258 46054216 46206208 46354424 46496456 46630456 46755676 46872924 
2887.633 46983340 47089124 47193352 47299596 47411820 47534568 47672620 
2891.008 47831396 48016360 48233720 48490760 48795364 49157248 49587024 
2894.383 50095232 50691868 51383564 52171700 53049432 54000708 54998560 
2897.759 56003688 56970652 57847960 58584448 59139028 59483644 59608448 
2901.134 59523204 59256096 58848520 58345396 57795308 57241380 56718064 
2904.509 56253452 55868652 55578328 55394448 55325308 55377848 55557768 
2907.884 55870424 56321500 56918140 57667012 58573604 59638512 60854600 
2911.260 62202712 63649072 65149276 66645176 68071400 69366056 70469168 
2914.635 71333400 71929064 72243720 72283400 72069824 71637576 71026664 
2918.010 70277824 69432104 68523576 67581136 66628604 65683632 64759636 
2921.385 63866580 63010016 62193416 61417736 60682760 59987748 59332364 
2924.760 58716424 58140376 57603940 57106296 56645084 56216376 55815300 
2928.136 55436192 55073524 54722124 54377620 54036280 53695132 53352268 
2931.511 53006676 52658256 52307832 51956988 51607504 51261324 50920224 
2934.886 50585720 50259284 49942724 49638132 49347972 49075436 48823688 
2938.261 48596024 48395592 48225540 48088864 47988236 47925552 47901468 
2941.637 47914860 47962148 48037012 48130840 48231720 48326852 48402260 
2945.012 48443712 48439340 48380408 48261976 48084904 47855036 47584032 
2948.387 47285372 46975920 46671812 46386644 46130964 45911184 45729180 
2951.762 45583020 45467920 45377168 45303496 45239696 45180200 45120384 
2955.138 45057492 44989864 44916368 44836312 44749104 44654424 44552276 
2958.513 44443984 44331460 44217648 44105368 43997228 43894864 43799124 
2961.888 43709528 43625804 43547672 43474968 43408244 43348200 43295408 
2965.263 43250456 43213560 43185272 43166352 43158152 43161848 43178864 
2968.639 43210268 43256348 43316824 43391184 43478520 43577960 43688384 
2972.014 43808804 43937868 44073684 44213944 44356084 44497172 44633420 
2975.389 44759940 44870588 44957928 45013092 45027572 44993832 44907000 
2978.764 44765268 44570744 44329408 44049848 43742836 43420512 43094040 
2982.140 42774320 42470256 42187868 41929936 41696340 41483752 41286940 
2985.515 41099760 40917248 40735540 40553248 40370568 40188688 40008412 
2988.890 39829080 39646664 39454888 39244996 39006928 38731820 38413812 
2992.265 38051364 37648132 37213396 36760344 36303012 35855408 35428216 
2995.641 35027124 34652848 34302600 33970688 33650736 33337392 33027094 
2999.016 32718022 32410168 32104172 31801134 31502336 31209192 30922862 
3002.391 30644614 30375572 30116318 29866980 29626864 29395180 29171380 
3005.766 28955132 28746674 28546878 28356512 28175562 28003914 27840526 
3009.142 27684408 27534380 27390158 27251450 27118394 26990952 26868482 
3012.517 26749990 26633930 26519060 26404540 26290752 26178366 26068860 
3015.892 25964026 25864808 25772222 25686088 25605946 25530916 25459904 
3019.267 25391642 25325428 25260770 25197564 25136048 25076686 25019750 
3022.643 24965384 24913342 24863028 24814366 24767358 24723162 24683774 
3026.018 24651928 24630188 24620718 24624224 24639410 24663186 24691242 
3029.393 24717688 24736876 24743716 24733964 24705026 24656348 24588562 
3032.768 24504172 24406408 24299590 24187826 24075388 23965746 23861416 
3036.144 23763692 23672814 23588110 23508390 23432358 23359132 23288720 
3039.519 23221462 23158062 23099526 23046066 22997816 22954008 22914152 
3042.894 22877304 22843530 22812730 22785248 22761154 22740378 22722188 
3046.269 22705744 22690348 22675720 22662386 22651110 22642734 22637496 
3049.645 22635334 22634914 22634634 22633062 22629224 22622906 22614214 
3053.020 22604022 22592678 22580532 22567654 22554042 22539944 22526262 
3056.395 22513874 22503928 22497158 22494018 22494576 22498346 22504976 
3059.770 22514398 22526682 22541966 22560324 22581998 22606534 22633936 
3063.146 22664340 22697786 22734758 22775610 22820168 22868048 22918448 
3066.521 22970252 23022272 23073598 23123220 23170330 23214332 23254252 
3069.896 23289664 23320430 23346756 23369274 23389378 23408122 23426480 
3073.271 23444946 23463550 23482158 23500800 23519372 23538436 23558620 
3076.646 23580378 23604132 23629778 23657102 23685130 23713262 23740490 
3080.022 23765826 23788856 23809052 23826552 23841604 23855292 23868174 
3083.397 23881546 23895828 23911792 23929648 23949814 23972854 23999534 
3086.772 24030526 24066526 24107190 24152024 24199876 24249240 24299626 
3090.147 24350158 24400872 24451870 24502910 24553360 24602414 24649298 
3093.523 24694154 24737926 24782510 24830398 24883586 24943172 25008696 
3096.898 25079000 25151708 25224848 25297156 25368422 25438648 25508954 
3100.273 25579588 25650550 25721698 25792580 25862592 25932086 26000856 
3103.648 26069072 26137122 26205220 26273362 26342114 26412216 26484616 
3107.024 26559918 26638508 26719650 26802218 26884412 26964756 27042222 
3110.399 27116772 27188834 27260022 27331966 27405826 27482700 27562834 
3113.774 27645810 27730708 27816222 27900906 27983592 28063432 28140316 
3117.149 28214632 28287760 28360756 28434580 28509548 28584918 28659488 
3120.525 28731698 28800452 28865460 28927506 28988108 29048964 29111816 
3123.900 29177438 29245978 29316728 29389118 29462406 29536844 29612924 
3127.275 29691432 29773004 29857398 29943544 30030028 30115040 30197368 
3130.650 30276618 30353718 30429978 30507638 30588192 30672812 30760864 
3134.026 30851496 30942894 31033956 31123898 31212824 31301592 31390876 
3137.401 31481318 31572812 31664398 31755220 31844098 31930250 32013882 
3140.776 32095536 32176208 32256890 32338698 32422054 32507536 32594782 
3144.151 32683690 32773544 32863274 32952488 33040718 33127964 33215120 
3147.527 33303798 33395104 33490260 33589660 33692412 33797376 33903080 
3150.902 34007880 34111056 34212176 34311348 34409144 34506244 34603008 
3154.277 34700224 34798140 34897484 34998500 35101156 35204412 35307368 
3157.652 35408516 35506812 35602140 35695484 35788300 35882468 35979720 
3161.028 36080664 36185236 36292492 36401296 36510768 36620524 36730452 
3164.403 36840732 36951512 37062532 37173332 37283328 37392268 37499716 
3167.778 37605640 37709492 37811200 37910368 38006444 38099652 38189912 
3171.153 38277620 38363244 38446752 38528068 38606720 38682304 38754680 
3174.529 38824060 38891204 38956724 39021280 39085120 39148568 39211700 
3177.904 39275132 39339920 39406996 39476840 39549604 39624376 39699268 
3181.279 39772320 39841972 39907748 39969752 40029264 40087764 40146708 
3184.654 40207260 40270076 40335772 40404348 40476140 40550996 40628592 
3188.030 40708060 40788384 40868136 40945972 41021164 41093204 41161828 
3191.405 41227988 41291972 41355232 41418756 41484444 41553496 41626536 
3194.780 41703632 41783700 41865060 41945668 42023952 42099116 42171220 
3198.155 42241148 42309332 42376544 42442484 42506976 42569868 42631524 
3201.531 42692936 42755304 42819440 42885636 42953188 43021196 43088408 
3204.906 43154784 43220220 43286000 43352920 43420768 43488812 43555360 
3208.281 43618772 43678160 43734296 43788168 43842080 43897544 43955356 
3211.656 44015156 44076104 44137204 44198352 44259988 44322728 44387572 
3215.031 44454300 44521912 44589028 44654020 44716124 44775404 44832784 
3218.407 44889436 44946612 45004968 45064696 45125864 45188584 45253044 
3221.782 45319492 45387836 45457656 45528556 45599728 45671096 45743132 
3225.157 45816252 45891632 45969528 46049352 46129932 46209268 46285892 
3228.532 46358812 46427756 46493728 46557864 46621160 46684836 46749624 
3231.908 46815976 46884404 46954836 47026980 47099836 47171928 47242112 
3235.283 47309240 47373752 47437204 47501296 47568204 47638784 47712856 
3238.658 47789008 47865544 47940868 48014952 48089012 48164228 48242460 
3242.033 48324036 48407964 48492428 48575124 48654540 48730228 48803040 
3245.409 48874560 48946688 49020904 49098104 49178844 49263488 49351980 
3248.784 49444828 49541600 49641996 49744456 49847428 49948860 50047600 
3252.159 50142796 50234772 50324504 50413468 50502784 50593280 50685504 
3255.534 50778864 50872800 50965976 51056936 51144788 51228660 51308712 
3258.910 51386324 51462412 51538852 51616648 51696064 51776312 51856392 
3262.285 51935252 52012000 52087044 52160864 52234436 52308172 52381956 
3265.660 52454744 52525412 52593696 52659528 52724056 52788820 52855500 
3269.035 52924776 52997056 53071184 53146256 53220672 53293188 53362868 
3272.411 53429300 53492144 53551964 53609652 53666260 53723704 53783180 
3275.786 53845400 53910744 53978496 54047912 54118316 54189780 54262984 
3279.161 54338752 54417804 54500252 54584816 54670036 54754372 54836916 
3282.536 54917600 54998376 55081008 55167228 55258280 55354324 55454228 
3285.912 55556752 55660280 55764056 55867596 55971312 56075692 56181648 
3289.287 56290112 56401852 56517584 56637496 56761712 56889812 57021352 
3292.662 57156072 57294004 57436104 57582716 57735016 57892860 58055532 
3296.037 58221860 58390684 58560976 58733308 58908928 59089408 59276416 
3299.413 59470688 59671468 59877480 60087124 60299196 60513272 60730048 
3302.788 60950208 61175136 61405484 61641456 61882900 62129912 62382152 
3306.163 62639780 62902616 63170516 63443376 63721092 64004012 64292804 
3309.538 64588436 64891344 65201520 65518120 65839028 66162848 66488676 
3312.914 66816844 67148968 67486992 67832568 68186168 68546664 68911568 
3316.289 69278520 69645440 70011576 70377600 70744824 71115056 71489040 
3319.664 71866864 72248064 72631368 73015400 73398792 73780488 74159280 
3323.039 74534480 74905824 75273832 75639304 76003904 76368808 76734736 
3326.415 77101200 77466672 77829000 78185728 78534480 78873280 79200800 
3329.790 79515712 79816792 80103632 80375416 80632264 80874608 81102944 
3333.165 81317104 81516336 81698936 81863416 82008784 82135312 82244248 
3336.540 82337880 82417632 82483808 82534728 82567472 82579088 82566952 
3339.916 82529568 82467264 82380976 82271560 82139192 81983696 81803608 
3343.291 81598608 81368088 81112288 80831576 80525872 80194208 79835832 
3346.666 79450456 79038992 78603968 78149312 77678928 77196384 76704008 
3350.041 76202336 75690968 75169576 74637600 74095536 73544304 72984744 
3353.417 72417928 71845008 71267336 70687040 70107160 69530832 68961112 
3356.792 68399480 67846280 67300824 66762120 66230068 65705948 65192124 
3360.167 64691752 64207056 63738852 63285844 62846132 62416464 61994600 
3363.542 61579596 61171704 60772272 60382764 60004604 59638700 59285300 
3366.917 58944676 58617060 58302572 58000696 57710344 57430244 57157996 
3370.293 56891212 56628136 56366916 56106384 55845892 55584808 55322672 
3373.668 55059568 54795720 54531244 54266628 54001196 53733940 53462876 
3377.043 53185356 52899508 52604020 52298528 51984288 51662996 51336124 
3380.418 51004544 50668040 50325728 49976368 49619036 49253360 48879380 
3383.794 48497836 48109664 47715924 47317848 46916188 46512352 46107488 
3387.169 45702452 45297760 44894216 44491556 44090260 43690620 43293288 
3390.544 42899164 42509464 42124668 41745508 41372180 41004780 40642896 
3393.919 40285816 39932480 39581400 39231104 38880220 38528500 38176848 
3397.295 37826816 37481368 37142688 36812276 36489868 36173856 35861416 
3400.670 35549528 35236392 34920568 34601964 34281656 33959904 33637632 
3404.045 33315138 32992952 32672222 32353974 32039992 31731478 31428490 
3407.420 31130268 30835168 30541442 30248022 29954976 29663582 29376142 
3410.796 29094880 28821378 28555830 28297236 28043922 27793968 27545784 
3414.171 27298728 27052412 26807328 26564144 26323454 26085924 25851936 
3417.546 25621694 25394980 25171932 24952226 24736244 24524190 24317148 
3420.921 24115632 23920300 23731006 23546868 23365708 23186022 23006340 
3424.297 22825650 22644756 22464672 22286718 22111872 21940546 21771830 
3427.672 21604990 21438912 21272932 21106806 20940846 20775264 20610580 
3431.047 20447104 20285078 20125228 19968110 19814378 19664026 19516848 
3434.422 19371902 19228010 19084682 18942166 18801840 18665812 18535742 
3437.798 18412314 18294554 18179970 18064862 17945572 17819688 17686592 
3441.173 17547776 17405900 17264414 17126524 16993848 16867102 16745249 
3444.548 16626390 16507907 16387634 16264230 16137386 16008621 15880374 
3447.923 15755877 15637701 15527284 15424139 15326407 15230653 15133753 
3451.299 15032930 14926713 14815173 14699241 14579878 14458460 14335430 
3454.674 14211238 14086636 13962447 13840378 13721902 13608073 13499161 
3458.049 13394344 13292591 13192093 13091891 12991439 12890566 12789786 
3461.424 12689028 12588499 12488061 12387577 12287390 12187840 12089880 
3464.800 11994122 11900938 11809682 11720316 11631956 11544567 11458182 
3468.175 11373583 11290904 11210350 11130864 11051257 10970135 10886039 
3471.550 10798392 10707197 10613271 10517803 10422051 10327338 10234919 
3474.925 10145606 10060143 9978766 9901776 9829308 9761088 9697012 9636909 
3478.783 9580032 9525432 9471855 9417167 9360082 9298875 9233818 9165894 
3482.640 9097913 9032548 8972808 8920009 8874319 8833908 8796071 8757764 
3486.498 8716755 8671423 8621906 8569150 8514812 8460717 8408994 8361026 
3490.355 8317522 8278684 8243900 8211720 8180453 8148919 8116002 8082244 
3494.212 8049367 8019428 7995026 7977713 7968331 7966509 7971200 7980514 
3498.070 7993204 8008088 8023681 8039207 8053620 8066211 8077349 8088219 
3501.927 8101688 8120931 8149424 8189670 8241840 8304824 8375180 8449400 
3505.785 8523935 8596119 8665204 8731258 8795563 8860013 8927247 8999328 
3509.642 9078256 9165353 9260355 9362215 9468096 9575391 9681392 9784504 
3513.500 9884725 9983445 10082456 10183527 10287166 10392729 10498386 
3516.875 10602032 10701525 10795199 10882472 10962693 11035249 11099047 
3520.250 11152553 11193792 11221332 11233947 11231192 11213648 11181722 
3523.625 11136745 11079638 11011051 10931194 10840141 10736913 10621386 
3527.000 10493125 10353127 10202353 10043629 9879065 9710937 9541181 9370138 
3530.858 9198315 9025850 8852439 8678691 8504709 8330222 8154084 7974912 
3534.715 7791057 7602054 7408785 7213615 7020317 6832288 6651979 6480084 
3538.573 6315856 6157638 6003913 5853801 5707603 5566420 5431054 5301433 
3542.430 5176779 5055278 4934917 4813451 4689975 4563956 4436033 4307109 
3546.288 4178625 4052721 3931133 3815830 3708110 3608401 3515029 3426119 
3550.145 3338495 3249755 3158262 3064319 2969762 2877127 2789048 2706687 
3554.002 2630276 2558777 2490723 2425046 2361110 2298449 2237031 2176120 
3557.860 2114718 2051926 1986515 1918783 1849531 1780191 1713124 1649392 
3561.717 1590326 1535924 1485950 1438907 1393498 1347063 1296014 1237262 
3565.575 1167322 1084903 991407 891192 791597 699525 620845 557473 508242 
3569.914 469597 436992 406612 376035 343371 308686 272215 233790 193711 
3574.254 152111 108991 65510 22432 -19482 -59637 -98198 -135894 -172925 
3578.594 -209886 -246513 -282276 -316579 -349158 -379583 -407622 -433077 
3582.451 -455155 -473359 -488055 -500797 -514829 -534619 -565461 -610827 
3586.308 -672266 -746828 -828091 -907321 -976091 -1027991 -1061410 -1078068 
3590.166 -1081869 -1078663 -1073970 -1072383 -1077374 -1091057 -1114357 
3593.541 -1146117 -1183755 -1223934 -1263251 -1298832 -1329322 -1354525 
3596.916 -1376028 -1394920 -1412821 -1430523 -1448191 -1465561 -1482039 
3600.292 -1496997 -1510238 -1520969 -1528926 -1533681 -1535100 -1533516 
3603.667 -1530049 -1525988 -1523313 -1524172 -1530115 -1543123 -1563659 
3607.042 -1592381 -1628331 -1669228 -1712069 -1752629 -1787146 -1813774 
3610.417 -1832021 -1844295 -1854127 -1865740 -1882269 -1904339 -1930367 
3613.792 -1956458 -1978261 -1993137 -2000920 -2003856 -2006329 -2013189 
3617.168 -2028591 -2054677 -2090489 -2132069 -2174139 -2211194 -2238687 
3620.543 -2255432 -2262123 -2261497 -2257442 -2252432 -2248279 -2244356 
3623.918 -2238785 -2228402 -2210864 -2186139 -2157654 -2132794 -2121617 
3627.293 -2135102 -2180436 -2257080 -2353747 -2451909 -2531404 -2580253 
3630.669 -2597282 -2590036 -2569582 -2546755 -2528637 -2518128 -2514307 
3634.044 -2513451 -2512462 -2509465 -2505413 -2502481 -2503238 -2509069 
3637.419 -2519249 -2531404 -2542670 -2551202 -2556406 -2559436 -2562236 
3640.794 -2566387 -2572414 -2579200 -2584470 -2585787 -2580847 -2569450 
3644.170 -2552486 -2532425 -2512759 -2496847 -2488249 -2489797 -2503568 
3647.545 -2529757 -2567474 -2614310 -2666740 -2719953 -2769045 -2808485 
3650.920 -2833932 -2842326 -2833339 -2808880 -2773654 -2734145 -2697463 
3654.295 -2670955 -2660878 -2669374 -2694829 -2730819 -2768353 -2799465 
3657.671 -2818987 -2826328 -2824287 -2817077 -2808782 -2802428 -2799695 
3661.046 -2800156 -2803251 -2807399 -2811415 -2813423 -2812238 -2805917 
3664.421 -2793309 -2773654 -2747743 -2717484 -2686662 -2659659 -2641942 
3667.796 -2639373 -2655543 -2692458 -2747479 -2812304 -2873959 -2919216 
3671.172 -2937843 -2926917 -2891536 -2842787 -2795712 -2765160 -2764501 
3674.547 -2799531 -2865895 -2946927 -3020507 -3069236 -3086212 -3076342 
3677.922 -3050844 -3021955 -2997835 -2982106 -2973320 -2967462 -2960189 
3681.297 -2949000 -2933828 -2916583 -2899534 -2883570 -2867936 -2851082 
3684.673 -2831628 -2810131 -2789852 -2775860 -2774082 -2788996 -2821752 
3688.048 -2868660 -2922902 -2975788 -3020244 -3053213 -3074138 -3085028 
3691.423 -3087199 -3081705 -3069335 -3051305 -3029523 -3006950 -2986746 
3694.798 -2971246 -2961111 -2955516 -2951402 -2945610 -2935408 -2920236 
3698.174 -2901673 -2882649 -2867541 -2860233 -2863196 -2877251 -2900225 
3701.549 -2928464 -2956240 -2978190 -2990629 -2991353 -2980658 -2960650 
3704.924 -2934421 -2905524 -2876625 -2850095 -2826756 -2806839 -2790642 
3708.299 -2778592 -2772436 -2774839 -2788469 -2815695 -2856514 -2908223 
3711.675 -2964401 -3018006 -3061175 -3088581 -3098385 -3091772 -3072954 
3715.050 -3046303 -3016361 -2986976 -2960058 -2936494 -2916023 -2897921 
3718.425 -2881266 -2865829 -2852202 -2841306 -2834195 -2831529 -2832813 
3721.800 -2836763 -2841767 -2846079 -2849009 -2851346 -2854736 -2861254 
3725.176 -2872511 -2888244 -2905656 -2919775 -2924876 -2916385 -2891997 
3728.551 -2853452 -2805127 -2754690 -2709614 -2676158 -2657947 -2654390 
3731.926 -2661075 -2672140 -2683073 -2692590 -2704675 -2725353 -2760024 
3735.301 -2809868 -2869943 -2929550 -2977170 -3004121 -3008168 -2992340 
3738.677 -2962921 -2925535 -2884130 -2839857 -2793012 -2744450 -2698385 
3742.052 -2663446 -2651295 -2673293 -2735429 -2830048 -2935671 -3022317 
3745.427 -3066834 -3063182 -3020672 -2957063 -2890713 -2838014 -2807959 
3748.802 -2803712 -2820929 -2851576 -2886697 -2919150 -2945709 -2964829 
3752.177 -2974636 -2972629 -2955944 -2923889 -2879259 -2827678 -2777374 
3755.553 -2735231 -2706980 -2694533 -2696377 -2708264 -2725880 -2744845 
3758.928 -2763612 -2781029 -2795942 -2806411 -2810032 -2804732 -2790543 
3762.303 -2770098 -2748105 -2730193 -2719953 -2718603 -2723246 -2728810 
3765.678 -2729732 -2722521 -2708132 -2691141 -2678068 -2674610 -2684127 
3769.054 -2705860 -2735396 -2765588 -2790181 -2805193 -2809769 -2806181 
3772.429 -2797687 -2788074 -2779580 -2772996 -2767794 -2762394 -2755085 
3775.804 -2745043 -2732926 -2721073 -2712709 -2711425 -2719295 -2735758 
3779.179 -2757291 -2777835 -2791301 -2793671 -2784716 -2768057 -2749619 
3782.555 -2736054 -2731642 -2737272 -2750673 -2766674 -2779975 -2786889 
3785.930 -2786296 -2780568 -2772798 -2766148 -2762559 -2761769 -2762460 
3789.305 -2762954 -2762032 -2759299 -2755019 -2749850 -2743462 -2736219 
3792.680 -2728020 -2719887 -2713565 -2711524 -2715738 -2726934 -2743100 
3796.056 -2760024 -2772008 -2774082 -2764238 -2745043 -2721632 -2702600 
3799.431 -2696113 -2708527 -2741158 -2789095 -2841141 -2882616 -2901114 
3802.806 -2891634 -2856876 -2805950 -2750146 -2701415 -2669374 -2658935 
3806.181 -2669539 -2694598 -2723048 -2743561 -2748928 -2738458 -2716232 
3809.557 -2688935 -2662360 -2639669 -2620897 -2603869 -2585326 -2564180 
3812.932 -2541912 -2523333 -2514867 -2522708 -2548698 -2589245 -2633511 
3816.307 -2667102 -2679286 -2665356 -2629657 -2582856 -2539639 -2513582 
3819.682 -2515229 -2548698 -2609007 -2682118 -2749159 -2793868 -2808749 
3823.058 -2795054 -2761604 -2720315 -2681888 -2653567 -2639109 -2636903 
3826.433 -2642370 -2648792 -2650636 -2645235 -2632885 -2616780 -2600971 
3829.808 -2589048 -2583481 -2584009 -2588620 -2594186 -2597216 -2595075 
3833.183 -2586051 -2570603 -2550378 -2527846 -2506862 -2491312 -2484921 
3836.559 -2490061 -2507257 -2534072 -2565662 -2596393 -2620864 -2636541 
3839.934 -2643292 -2643687 -2641184 -2639669 -2641546 -2647804 -2657486 
3843.309 -2668353 -2677442 -2682019 -2680011 -2671218 -2656037 -2635882 
3846.684 -2612663 -2587203 -2559404 -2528011 -2491345 -2448153 -2399058 
3850.060 -2347156 -2299929 -2268155 -2264035 -2299731 -2380473 -2500372 
3853.435 -2639011 -2768551 -2864282 -2914081 -2920203 -2893543 -2847626 
3856.810 -2793506 -2739643 -2690581 -2648363 -2613651 -2585655 -2563554 
3860.185 -2546491 -2533249 -2523366 -2516481 -2513088 -2514505 -2522279 
3863.561 -2536971 -2557032 -2578047 -2593659 -2597216 -2584634 -2556274 
3866.936 -2517667 -2478233 -2448417 -2437148 -2449141 -2481726 -2525573 
3870.311 -2567078 -2595438 -2605516 -2600147 -2586874 -2574127 -2568725 
3873.686 -2572480 -2582856 -2593363 -2597447 -2589904 -2570669 -2542769 
3877.062 -2512495 -2486667 -2471578 -2471381 -2487128 -2516218 -2552091 
3880.437 -2586116 -2609930 -2617044 -2605878 -2579694 -2545865 -2513681 
3883.812 -2493059 -2491247 -2509926 -2544416 -2583218 -2613585 -2623993 
3887.187 -2610654 -2576894 -2531799 -2485943 -2449669 -2429999 -2429471 
3890.563 -2445418 -2471084 -2498494 -2520402 -2533084 -2535720 -2529955 
3893.938 -2517898 -2500932 -2479914 -2455434 -2427923 -2399058 -2371180 
3897.313 -2347058 -2329788 -2320923 -2320791 -2327580 -2339016 -2352396 
3900.688 -2365743 -2378924 -2392666 -2408845 -2428647 -2452272 -2478266 
3904.063 -2503205 -2523630 -2535917 -2538256 -2530515 -2514505 -2492960 
3907.439 -2468844 -2444463 -2421662 -2401002 -2382516 -2365776 -2350716 
3910.814 -2336907 -2324384 -2313046 -2302433 -2292348 -2281834 -2271550 
3914.189 -2262123 -2255695 -2254047 -2258827 -2270759 -2288755 -2310278 
3917.564 -2331997 -2351276 -2365875 -2374838 -2378562 -2377178 -2371411 
3920.940 -2361294 -2347354 -2330579 -2312552 -2295479 -2281834 -2273363 
3924.315 -2270429 -2271814 -2275505 -2279263 -2281142 -2281142 -2279724 
3927.690 -2279065 -2280318 -2284800 -2292678 -2303323 -2315946 -2330052 
3931.065 -2344619 -2358691 -2371180 -2380209 -2383867 -2380605 -2370126 
3934.441 -2353319 -2332689 -2311365 -2292150 -2277318 -2267595 -2262321 
3937.816 -2259848 -2258431 -2256882 -2254443 -2251773 -2249597 -2249103 
3941.191 -2251114 -2255465 -2261662 -2268419 -2273857 -2276692 -2276132 
3944.566 -2272011 -2265683 -2258827 -2253783 -2252069 -2254772 -2261398 
3947.942 -2269836 -2277681 -2282295 -2282097 -2277219 -2268452 -2257937 
3951.317 -2247554 -2238522 -2231434 -2225764 -2221215 -2217325 -2213963 
3954.692 -2211491 -2209546 -2207996 -2205919 -2202491 -2196491 -2188414 
3958.067 -2179249 -2170281 -2163622 -2160654 -2162105 -2166820 -2173776 
3961.443 -2180601 -2185579 -2187656 -2186502 -2182711 -2177337 -2172029 
3964.818 -2168007 -2166325 -2167611 -2171633 -2177666 -2184656 -2191051 
3968.193 -2195271 -2196293 -2193293 -2186469 -2176348 -2164149 -2151225 
3971.568 -2138894 -2128310 -2120364 -2115319 -2112780 -2112022 -2111758 
3974.944 -2110670 -2107702 -2102063 -2093985 -2083795 -2072485 -2060745 
3978.319 -2049269 -2038188 -2027964 -2018796 -2010914 -2005241 -2002042 
3981.694 -2001646 -2003658 -2007418 -2012068 -2016883 -2021698 -2026942 
3985.069 -2032779 -2039276 -2046433 -2053127 -2058602 -2061899 -2063053 
3988.445 -2062921 -2062097 -2062097 -2063119 -2064867 -2066615 -2067439 
3991.820 -2066681 -2064768 -2062955 -2062196 -2063548 -2067043 -2072155 
3995.195 -2077596 -2082377 -2085906 -2088148 -2089764 -2091149 -2092534 
3998.570 -2094182 -2095469 -2096293 -2096887 -2097744 
##END=
