##TITLE=1153_2_a
##JCAMP-DX=5.01  $$ Nicolet v. 1
##DATATYPE=INFRARED SPECTRUM
##ORIGIN=UniL
##OWNER=Nicolet
##LONGDATE=2011/09/29
##TIME=10:43:06
##SPECTROMETER/DATA SYSTEM=Nicolet iS5
##DATA PROCESSING=
Ratio against background
%Transmittance->Absorbance
Truncated
ElementMultiply or ElementDivide
##COMMENTS=
Number of sample scans: 32
Collection length: 51.17 sec
Sample gain: 2.0
Background collected on: Jeu Sep 29 10:35:30 2011 (GMT+02:00);
Number of background scans: 32
Background gain: 2.0
Sample spacing:  1.000
Number of scan points: 12415
Resolution points: 8192
Number of FFT points: 65536
Apodization: N-B fort;
Phase correction: Mertz;
Laser frequency: 15798.0 cm-1
Number of rejected sample scans: 0
Number of rejected background scans: 0
Bench serial number: ASB1000141;
##RESOLUTION=4.000
##XUNITS=1/CM
##YUNITS=ABSORBANCE
##FIRSTX=649.893372
##LASTX=4000.122314
##FIRSTY=0.092536
##MAXX=4000.122314
##MINX=649.893372
##MAXY=0.261768
##MINY=-0.004004
##XFACTOR=1.000000
##YFACTOR=1.000000E-009
##NPOINTS=6950
##DELTAX=0.482117
##ZPD=6100
##XYDATA=(X++(Y..Y))
649.893 92536008 91943808 91446712 91044400 90710936 90408856 90105024 
653.268 89788536 89472432 89189568 88972064 88841168 88797752 88825312 
656.643 88900816 89005080 89130608 89279088 89453424 89650440 89857232 
660.018 90054672 90225568 90361568 90466712 90554424 90642712 90748544 
663.393 90883888 91056376 91269656 91523368 91809648 92108856 92382120 
666.767 92569224 92608968 92470416 92184808 91835560 91516208 91283104 
670.142 91141464 91060344 90993376 90900432 90756952 90563568 90339696 
673.517 90112568 89899976 89701880 89499432 89266304 88982352 88642008 
676.892 88255688 87842200 87418824 86991928 86558096 86108736 85639456 
680.267 85154880 84668552 84194200 83741448 83308272 82883952 82454120 
683.642 82009584 81549752 81083136 80620608 80169176 79728768 79293336 
687.016 78856352 78417824 77986672 77579280 77213960 76902440 76645424 
690.391 76433840 76253952 76093792 75949008 75823992 75728288 75672312 
693.766 75661944 75697720 75776968 75897064 76058384 76263976 76517528 
697.141 76819664 77165984 77547632 77954840 78381664 78829096 79303712 
700.516 79813376 80361832 80944064 81546720 82151408 82739856 83300528 
703.890 83829008 84326264 84793728 85230192 85630696 85990096 86306664 
707.265 86586408 86841240 87086632 87335440 87594120 87863344 88142624 
710.640 88435912 88756776 89127152 89571952 90109384 90740664 91444920 
714.015 92177264 92881632 93497280 93971672 94272696 94389704 94335320 
717.390 94141112 93857776 93550744 93289880 93152184 93206592 93500352 
720.765 94051528 94833792 95776816 96761520 97643144 98276000 98529680 
724.139 98330056 97671400 96624288 95315552 93905728 92556352 91382712 
727.514 90450392 89767104 89299632 88993408 88795392 88669840 88598240 
730.889 88574880 88597432 88659728 88749872 88854672 88965064 89080088 
734.264 89205760 89350840 89519344 89706648 89900392 90085984 90252568 
737.639 90397840 90528424 90654392 90784600 90921800 91061976 91199304 
741.013 91330288 91456896 91586288 91725904 91879768 92044960 92213808 
744.388 92376952 92530600 92677040 92824560 92981240 93149512 93323072 
747.763 93489344 93634872 93751464 93841072 93914904 93987840 94071936 
751.138 94172144 94286080 94407208 94530400 94654192 94781360 94914968 
754.513 95055248 95197880 95335648 95463928 95584560 95707216 95845480 
757.888 96010856 96206736 96426488 96656080 96880736 97092328 97293504 
761.262 97495056 97710904 97951504 98220824 98517000 98838176 99188392 
764.637 99580944 100039168 100591064 101262704 102073800 103030976 104124320 
768.012 105321216 106564056 107774496 108854920 109718464 110314496 
770.905 110657384 110839232 111018472 111386280 112086416 113165032 
773.797 114517848 115907296 116987528 117396240 116878096 115333408 
776.690 112863296 109714624 106227176 102725656 99439232 96493096 93895280 
780.065 91578152 89436936 87377576 85338656 83295104 81254216 79241240 
783.440 77290152 75433016 73699008 72114648 70700296 69471376 68435704 
786.815 67594104 66941604 66472112 66182412 66074796 66157364 66441104 
790.189 66938012 67659032 68613400 69813272 71275264 73019632 75069368 
793.564 77440096 80131440 83114680 86329576 89679192 93026312 96215336 
796.939 99072080 101422288 103129104 104105704 104346560 103932592 103033872 
800.314 101882048 100713840 99752464 99144928 98930744 99030168 99252304 
803.689 99341720 99008728 98021088 96255152 93726184 90588864 87096672 
807.063 83548464 80189864 77178136 74551280 72239304 70100392 67973120 
810.438 65737100 63331424 60768576 58113140 55458972 52896480 50490240 
813.813 48280748 46282428 44494748 42910872 41522400 40320572 39293704 
817.188 38426260 37699372 37092628 36588588 36175188 35845908 35599048 
820.563 35434900 35354200 35356968 35443784 35616132 35877684 36233604 
823.938 36689240 37248236 37911848 38676692 39534436 40468284 41451748 
827.312 42447348 43403340 44262516 44970092 45483152 45786648 45898960 
830.687 45876532 45801304 45774572 45903340 46275388 46953544 47957076 
834.062 49252948 50745864 52279092 53662288 54673684 55111928 54841244 
837.437 53810032 52074192 49777972 47134920 44371132 41684960 39233536 
840.812 37104612 35328144 33890472 32753606 31870480 31194132 30686396 
844.186 30313638 30046860 29863536 29745434 29680930 29664966 29695298 
847.561 29770236 29885650 30034326 30208024 30401264 30612898 30847262 
850.936 31111508 31412248 31751868 32127682 32533318 32962174 33410992 
854.311 33881088 34377760 34908328 35479880 36097732 36767488 37496752 
857.686 38297340 39185956 40183744 41312852 42596840 44059456 45723768 
861.060 47613940 49749364 52137064 54759672 57563800 60453860 63283576 
864.435 65880828 68063536 69660264 70553400 70689296 70094552 68867344 
867.810 67172136 65215924 63203820 61335264 59773436 58626996 57961236 
871.185 57793188 58101168 58829968 59898892 61210192 62641352 64059108 
874.560 65328128 66311160 66898428 67017688 66644096 65804712 64571744 
877.935 63052616 61362092 59615324 57912128 56320932 54883800 53614224 
881.309 52504548 51533332 50676080 49913248 49233728 48637308 48131320 
884.684 47727168 47433732 47254488 47187476 47227116 47369320 47614828 
888.059 47970656 48448304 49059300 49809000 50692836 51695244 52794280 
891.434 53965628 55189200 56454448 57759236 59108464 60509388 61967692 
894.809 63483336 65048316 66640964 68223008 69738608 71105496 72226312 
898.183 72998776 73323864 73133336 72400112 71146752 69440968 67388232 
901.558 65120176 62765800 60449520 58277636 56325044 54643244 53258760 
904.933 52177040 51390572 50882896 50635716 50630432 50852460 51292344 
908.308 51944252 52805020 53873228 55147400 56625192 58303520 60175792 
911.683 62230584 64447472 66792728 69222720 71683928 74120024 76486704 
915.058 78756472 80928568 83027904 85104496 87224080 89452080 91847184 
918.432 94441520 97227472 100144472 103074192 105851408 108263560 110100504 
921.807 111192040 111442208 110872040 109628296 107986288 106289168 
924.700 104923016 104265000 104597992 106097416 108786512 112535840 
927.593 117055976 121926064 126673784 130776528 133756576 135253984 
930.485 135025440 132988688 129206312 123870392 117267480 109741584 
933.378 101689296 93494024 85505496 78033344 71297240 65442144 60543212 
936.753 56610960 53617336 51511280 50235780 49728112 49915072 50708476 
940.128 51979356 53554884 55234800 56784820 57981344 58650320 58678196 
943.502 58041632 56801512 55093116 53089040 50967392 48895216 46992052 
946.877 45331816 43945456 42828072 41953656 41285412 40788456 40430316 
950.252 40183524 40026324 39938296 39901244 39900008 39922388 39961108 
953.627 40013572 40081440 40167860 40276364 40409292 40567620 40751880 
957.002 40962540 41200956 41467860 41763416 42085568 42430100 42791360 
960.377 43164736 43547484 43940360 44346364 44769932 45214140 45679928 
963.751 46165636 46668088 47183892 47710972 48248196 48795920 49354244 
967.126 49923100 50502748 51093800 51698824 52321852 52967556 53639944 
970.501 54341236 55071528 55829916 56616736 57434628 58288968 59187172 
973.876 60136556 61141380 62203360 63321644 64494440 65721676 67005740 
977.251 68350888 69762144 71243864 72798088 74426712 76132128 77919312 
980.625 79796408 81772688 83856536 86053184 88362640 90779584 93292264 
984.000 95883240 98523192 101165328 103746280 106175808 108344048 110140208 
987.375 111454752 112204504 112346968 111883032 110860704 109364896 
990.268 107517344 105455896 103320856 101253296 99369792 97759072 96481672 
993.643 95564616 95009880 94801432 94915504 95325616 96006472 96937392 
997.017 98097504 99464816 101017704 102732040 104584288 106553304 108615384 
1000.392 110741560 112894752 115021048 117054760 118924944 120558616 
1003.285 121898328 122909232 123583544 123943336 124038512 123946552 
1006.178 123758248 123576720 123508512 123644240 124059456 124805520 
1009.070 125906392 127365392 129170400 131302696 133740384 136462400 
1011.963 139448432 142674224 146112576 149735776 153515536 157428864 
1014.856 161456576 165574672 169745712 173906608 177955632 181766224 
1017.748 185192000 188089056 190352352 191930112 192844240 193186432 
1020.641 193121408 192869552 192665296 192758080 193370000 194663264 
1023.534 196743312 199638816 203313456 207671472 212583264 217906000 
1026.427 223481856 229159584 234789456 240210448 245268640 249815872 
1029.320 253720912 256893136 259281392 260874752 261691296 261767808 
1032.213 261152304 259896784 258064688 255727344 252954656 249812128 
1035.106 246345472 242575616 238503440 234120496 229424400 224430624 
1037.999 219177600 213723072 208142016 202513008 196917360 191440288 
1040.892 186159920 181147600 176455984 172103888 168070592 164291136 
1043.785 160672800 157105264 153489152 149763472 145912608 141974496 
1046.678 138026432 134178240 130547376 127239376 124347456 121935360 
1049.571 120036168 118655760 117774056 117350960 117330600 117653400 
1052.464 118260120 119094384 120108640 121257200 122489800 123752088 
1055.357 124976072 126083152 126996416 127639592 127950088 127887488 
1058.250 127432568 126592664 125400736 123919312 122235824 120454112 
1061.144 118696168 117079576 115708696 114672888 114031768 113819464 
1064.037 114045944 114698816 115744768 117128136 118776392 120594440 
1066.930 122469200 124288208 125937968 127322304 128374728 129052952 
1069.823 129341288 129242944 128773856 127957640 126821432 125398128 
1072.716 123722256 121829768 119761096 117558920 115271840 112960328 
1075.609 110691976 108542968 106595096 104919944 103578648 102613512 
1078.502 102042616 101861936 102044592 102546704 103302328 104226744 
1081.395 105225368 106187024 107002888 107584160 107869672 107846656 
1084.288 107553344 107080168 106551312 106108584 105903280 106064760 
1087.181 106696288 107866440 109597248 111863656 114586952 117647664 
1090.074 120880816 124091912 127093808 129706608 131788808 133254256 
1092.967 134066328 134239328 133825152 132907152 131583736 129954848 
1095.860 128122312 126174360 124183408 122210232 120297816 118475304 
1098.753 116758248 115145216 113616264 112129736 110629592 109047264 
1101.646 107314568 105382784 103230120 100872728 98360472 95775376 93215464 
1105.022 90776312 88549528 86607760 84999960 83757120 82890128 82394552 
1108.397 82253656 82442104 82928152 83672824 84635376 85770672 87026744 
1111.772 88348912 89673488 90928128 92041184 92940768 93563728 93867440 
1115.147 93827624 93442048 92727168 91715144 90449136 88977104 87353264 
1118.523 85630256 83854568 82067896 80300232 78570936 76892992 75273560 
1121.898 73718440 72234176 70827472 69504040 68266856 67114424 66042280 
1125.273 65044804 64119904 63272008 62514408 61866896 61354728 61002904 
1128.648 60830092 60846708 61050836 61428884 61953784 62587844 63285464 
1132.024 63991568 64651528 65216152 65646744 65925836 66059096 66076844 
1135.399 66025616 65963744 65951444 66036492 66252648 66611336 67101360 
1138.774 67688536 68319128 68930200 69449288 69807672 69949880 69833160 
1142.149 69434520 68748736 67785312 66564984 65116672 63478044 61690760 
1145.525 59800928 57858976 55911464 54002096 52169084 50440076 48835440 
1148.900 47368136 46044344 44866032 43832444 42940164 42183852 41556268 
1152.275 41049752 40656500 40370312 40187924 40108368 40132424 40260876 
1155.650 40493052 40825472 41252508 41766664 42360620 43027448 43761156 
1159.026 44556864 45409756 46315236 47269004 48266972 49303688 50372464 
1162.401 51461556 52552824 53622584 54639788 55569932 56379744 57036352 
1165.776 57512316 57786640 57843680 57676096 57285080 56681248 55883988 
1169.151 54919556 53820456 52618460 51344700 50028376 48693532 47362596 
1172.527 46056720 44794616 43594960 42474860 41447848 40525168 39714408 
1175.902 39020192 38445376 37992088 37662404 37458792 37383596 37439360 
1179.277 37628620 37954372 38420796 39034004 39800352 40727092 41820656 
1182.652 43085404 44524556 46139364 47929140 49889236 52007780 54262720 
1186.028 56616284 59013564 61388768 63661620 65749124 67575368 69069248 
1189.403 70177416 70866200 71123840 70963376 70420616 69554432 68434272 
1192.778 67137440 65743416 64320080 62926480 61609188 60397464 59309044 
1196.153 58348840 57512128 56785728 56150724 55585632 55064792 54561824 
1199.529 54050804 53503800 52894460 52199572 51400272 50486780 49461352 
1202.904 48339556 47148180 45922676 44703344 43525472 42418776 41403852 
1206.279 40490468 39680716 38971008 38355028 37825080 37372948 36991160 
1209.654 36672080 36409184 36198452 36038832 35933288 35887544 35908992 
1213.030 36004520 36178896 36434444 36771020 37186864 37679352 38245016 
1216.405 38878304 39571092 40313664 41093896 41899940 42722476 43554776 
1219.780 44392820 45234804 46079452 46926188 47775656 48631676 49502460 
1223.155 50400780 51343808 52349660 53434696 54611344 55885384 57255444 
1226.531 58711684 60236500 61803396 63375012 64908968 66356904 67669064 
1229.906 68804056 69728264 70421976 70880632 71116152 71158264 71051208 
1233.281 70860152 70664384 70549072 70608280 70929792 71587840 72646168 
1236.656 74149136 76124896 78588328 81541600 84974008 88858288 93150872 
1240.031 97786048 102673280 107710376 112778576 117749552 122501400 
1242.925 126908048 130849552 134224496 136946512 138958208 140234976 
1245.818 140782224 140631312 139830704 138445376 136547984 134216280 
1248.711 131534624 128578544 125407680 122058792 118537944 114826000 
1251.604 110888464 106695824 102237248 97535584 92647272 87663648 82699168 
1254.979 77867456 73281496 69032968 65180808 61755268 58753444 56145708 
1258.354 53880548 51893880 50118696 48485128 46933828 45418292 43905168 
1261.729 42379100 40838652 39294104 37762368 36264004 34819612 33446062 
1265.105 32157044 30961682 29864496 28865958 27962178 27147104 26412250 
1268.480 25749192 25151918 24616616 24142286 23729570 23378958 23089148 
1271.855 22857328 22679702 22552890 22475592 22448378 22473360 22552716 
1275.230 22686788 22872974 23105116 23372736 23661862 23954016 24226676 
1278.606 24456532 24620122 24698888 24683632 24575028 24384362 24128204 
1281.981 23826412 23494748 23143454 22777600 22399008 22010602 21619304 
1285.356 21236534 20877636 20559472 20296466 20099824 19977270 19933384 
1288.731 19971718 20095036 20304866 20600712 20978888 21432682 21951802 
1292.107 22523680 23133458 23762398 24387202 24981810 25516194 25963076 
1295.482 26303566 26530118 26650064 26684346 26664614 26624876 26598560 
1298.857 26615152 26696288 26857730 27108626 27450120 27874018 28360756 
1302.232 28881504 29397306 29865950 30250436 30519404 30654570 30650838 
1305.608 30514532 30261626 29913868 29498792 29045174 28580918 28132750 
1308.983 27720854 27358786 27053154 26804826 26611628 26471340 26383658 
1312.358 26349894 26371090 26446794 26572598 26741180 26944940 27177298 
1315.733 27435368 27720006 28034200 28381130 28762816 29179460 29630414 
1319.109 30115146 30633484 31184982 31766948 32371790 32986552 33592704 
1322.484 34167152 34687372 35132120 35485992 35742068 35905180 35993504 
1325.859 36036740 36077820 36164960 36341956 36644140 37086564 37662044 
1329.234 38340912 39079680 39831328 40552124 41213448 41802632 42322664 
1332.610 42787556 43219016 43642072 44080356 44555764 45085832 45681068 
1335.985 46343696 47066748 47835908 48630340 49427640 50207320 50950924 
1339.360 51643592 52273824 52832784 53314800 53717740 54042696 54293060 
1342.735 54472720 54583804 54625168 54592856 54480644 54283708 54000444 
1346.111 53634060 53191232 52680776 52109720 51480916 50792604 50039976 
1349.486 49219324 48332220 47389976 46413744 45436688 44499156 43643208 
1352.861 42912880 42346444 41973584 41814088 41872172 42134528 42567528 
1356.236 43122840 43740344 44354580 44908948 45356092 45663176 45814672 
1359.612 45810104 45664688 45406632 45080720 44745172 44463512 44302400 
1362.987 44314732 44528156 44941724 45525944 46232008 46995888 47751432 
1366.362 48433080 48975876 49327036 49448024 49320240 48948248 48357704 
1369.737 47589092 46685828 45692776 44650312 43591884 42552652 41570672 
1373.113 40686812 39946648 39389656 39039368 38898448 38947808 39156368 
1376.488 39489832 39923436 40446208 41061336 41783848 42637448 43653028 
1379.863 44864048 46305580 48006700 49976068 52184740 54548408 56933140 
1383.238 59149472 60981704 62230620 62718140 62328184 61028680 58895992 
1386.614 56122144 52981896 49800232 46855244 44328088 42296512 40744492 
1389.989 39603284 38780580 38189836 37755032 37412020 37111972 36814408 
1393.364 36489004 36119516 35704368 35256372 34795628 34342112 33907452 
1396.739 33493408 33095316 32708588 32334414 31983852 31675838 31431090 
1400.115 31266198 31187866 31192566 31269900 31407438 31594120 31822350 
1403.490 32089862 32397490 32747708 33141554 33576452 34045864 34541364 
1406.865 35054996 35582504 36124232 36684372 37268016 37879056 38517240 
1410.240 39178084 39855336 40542408 41235528 41933804 42638216 43349152 
1413.615 44066132 44787088 45510752 46238460 46974624 47726836 48503428 
1416.991 49311556 50155400 51035768 51949292 52886976 53834896 54772636 
1420.366 55674328 56510792 57254724 57886916 58399972 58806672 59140776 
1423.741 59456972 59814692 60263452 60832264 61524696 62328028 63224748 
1427.116 64202712 65254540 66373036 67546568 68753232 69964280 71154512 
1430.492 72310176 73435512 74549072 75677600 76845176 78068000 79354192 
1433.867 80710656 82150320 83697488 85387584 87258064 89336184 91617504 
1437.242 94067528 96635040 99263760 101899352 104478576 106927176 109140328 
1440.617 110987880 112342072 113080384 113113392 112396624 110926576 
1443.510 108741816 105914280 102554216 98795112 94776336 90648344 86550088 
1446.886 82610224 78954888 75688176 72880376 70553048 68676848 67187256 
1450.261 66010492 65094152 64417108 63990192 63837944 63976676 64393900 
1453.636 65047004 65861164 66743964 67604128 68352632 68930632 69328704 
1457.011 69601336 69841960 70138936 70550520 71092496 71756784 72527008 
1460.387 73387336 74322032 75309064 76319352 77307816 78211312 78961456 
1463.762 79492112 79763640 79779800 79590760 79273960 78901528 78527144 
1467.137 78175064 77847240 77531912 77206592 76837312 76369600 75728208 
1470.512 74822448 73563728 71908736 69897568 67675296 65446228 63408716 
1473.888 61690912 60329268 59300192 58559004 58072120 57826912 57825552 
1477.263 58068824 58543648 59218616 60052840 61003092 62038284 63146376 
1480.638 64332724 65616764 67022212 68572352 70285072 72177320 74271272 
1484.013 76597640 79193752 82093040 85308704 88811376 92506288 96238864 
1487.389 99779480 102842784 105134272 106363920 106314016 104900960 
1490.282 102205760 98472192 94030912 89230944 84344408 79532744 74878384 
1493.657 70396072 66079348 61944460 58040304 54456980 51308676 48693312 
1497.032 46663324 45212888 44296240 43846920 43800260 44104308 44714688 
1500.407 45590084 46690000 47967768 49372172 50852012 52341884 53763380 
1503.783 55018836 55964264 56416340 56164340 55021316 52927956 50031056 
1507.158 46659268 43167884 39802748 36658628 33725644 30960400 28332460 
1510.533 25835550 23494294 21346498 19420998 17732840 16275341 15026997 
1513.908 13959709 13045111 12257261 11570394 10961198 10412379 9915810 
1517.284 9476088 9104918 8812605 8598384 8446191 8325257 8201725 8050514 
1521.141 7871621 7692161 7553603 7486717 7495414 7559840 7647848 7731049 
1524.999 7793115 7835218 7871655 7921222 7994824 8090346 8196085 8299724 
1528.856 8396260 8490889 8594801 8718580 8864477 9023549 9178652 9311231 
1532.713 9412359 9489939 9567398 9670245 9813853 9996091 10201743 10410580 
1536.571 10606005 10779574 10929495 11059652 11174209 11274751 11359535 
1539.946 11428245 11489787 11561139 11659728 11794394 11959448 12136966 
1543.321 12303922 12444414 12554528 12646078 12739523 12855719 13004242 
1546.697 13181642 13373396 13562673 13738557 13899150 14052206 14210485 
1550.072 14383925 14573848 14773041 14969341 15153584 15323901 15487211 
1553.447 15655736 15841987 16052077 16282840 16523637 16759919 16978446 
1556.822 17167542 17316306 17417004 17469156 17487508 17501134 17545292 
1560.198 17642144 17792106 17981210 18187156 18386734 18557354 18683490 
1563.573 18758592 18788104 18787828 18777586 18774506 18783918 18799278 
1566.948 18805128 18785162 18727490 18630466 18503380 18365440 18238674 
1570.323 18140032 18078712 18056090 18068800 18110528 18172126 18241232 
1573.698 18299392 18325278 18299670 18212898 18075432 17918086 17783062 
1577.074 17702294 17686626 17726350 17801390 17891810 17983628 18071806 
1580.449 18157996 18247314 18344184 18450378 18564272 18682244 18799418 
1583.824 18910532 19008728 19083646 19121800 19109820 19036664 18899664 
1587.199 18706942 18478692 18243236 18032430 17877378 17802118 17822968 
1590.575 17948888 18180626 18509326 18912990 19357456 19792910 20160004 
1593.950 20403794 20476972 20354104 20035974 19548630 18936940 18251460 
1597.325 17544152 16857354 16222471 15664563 15200832 14843425 14598725 
1600.700 14466030 14439174 14507688 14661609 14892525 15193557 15558397 
1604.076 15976548 16431231 16900998 17358136 17772742 18117438 18366202 
1607.451 18498676 18501098 18366030 18093672 17691008 17174160 16567627 
1610.826 15903162 15219397 14552090 13929155 13365982 12863227 12410693 
1614.201 11991601 11589688 11193146 10799445 10418149 10068146 9771016 
1617.577 9542841 9389233 9304528 9276432 9287941 9320777 9358660 9388048 
1621.434 9402370 9403724 9402743 9414662 9452417 9522486 9622071 9743094 
1625.292 9876319 10016061 10159851 10307658 10458944 10611165 10759840 
1628.667 10900376 11030797 11153029 11271181 11389773 11510202 11629472 
1632.042 11739549 11830145 11890143 11909724 11882924 11809375 11696522 
1635.417 11559267 11416986 11288592 11185768 11111182 11059347 11020669 
1638.792 10982675 10932825 10862528 10768297 10653983 10529311 10405999 
1642.168 10293340 10193940 10103177 10010297 9902250 9766678 9596528 9393228 
1646.025 9167891 8938815 8728147 8555396 8432406 8363290 8344104 8365992 
1649.883 8414433 8468793 8502682 8482071 8373356 8160802 7869732 7568977 
1653.740 7332318 7198320 7157459 7175515 7216074 7253302 7273922 7274260 
1657.597 7257312 7228337 7191650 7148061 7095315 7028634 6943817 6838482 
1661.455 6713622 6572785 6423620 6275615 6138483 6020979 5928061 5860518 
1665.312 5813704 5779185 5745575 5699713 5630393 5531081 5402067 5251124 
1669.170 5091618 4938369 4802428 4689004 4597910 4525752 4466294 4412166 
1673.027 4354062 4281476 4185082 4060982 3915285 3764891 3630119 3526988 
1676.885 3460051 3421877 3398033 3373723 3339196 3292587 3240507 3192940 
1680.742 3158629 3138637 3124153 3097255 3038125 2932299 2781678 2609609 
1684.599 2452135 2338556 2277098 2257081 2259545 2268305 2271769 2264408 
1688.457 2245357 2215416 2176386 2130500 2081823 2036147 2000495 1981089 
1692.314 1979957 1993338 2010781 2017672 1998964 1945209 1860113 1762392 
1696.172 1677631 1624149 1605092 1607753 1611345 1592488 1533895 1431427 
1700.029 1301199 1174864 1082279 1037571 1034416 1056304 1084737 1105299 
1703.886 1108820 1091081 1053713 1003064 948436 898662 859186 831897 814966 
1708.226 804809 797439 790601 783663 778253 777025 781904 793522 810153 
1712.566 828212 844047 855302 861344 863569 863104 860249 851982 834752 
1716.905 806004 768029 728632 699293 689071 701151 732282 774734 819946 
1721.245 861012 894811 922004 945912 970519 998680 1030862 1065538 1100449 
1725.584 1133867 1165528 1195131 1222243 1244839 1260124 1266239 1262982 
1729.442 1253744 1243642 1236897 1233873 1228689 1208753 1157189 1060290 
1733.299 914102 733743 550207 399316 302586 260942 260113 279708 302022 
1737.639 313494 306896 281697 243073 199545 159834 130501 114095 109820 
1741.979 114493 124635 136666 147769 157083 165304 174883 188573 208529 
1746.318 234851 264788 293633 316014 326957 323939 306664 276657 237138 
1750.658 191921 145383 102760 68824 47052 38602 41386 49869 56265 52321 
1755.479 32008 -6063 -57616 -113369 -163883 -203262 -231677 -254858 -280985 
1759.819 -317970 -370280 -437215 -512976 -589187 -657610 -712526 -751855 
1763.677 -776464 -788536 -791447 -788503 -784203 -783079 -789131 -804246 
1767.534 -826636 -850909 -870386 -880571 -881232 -877430 -877099 -889003 
1771.391 -917604 -960486 -1008125 -1047791 -1070202 -1072416 -1057707 
1774.767 -1032851 -1004092 -975000 -946303 -917208 -887251 -857887 -832621 
1778.624 -814994 -807156 -807818 -812779 -816053 -812878 -802460 -787610 
1782.481 -774016 -766442 -767401 -775902 -787875 -798326 -803419 -802030 
1786.339 -795614 -786155 -775174 -763168 -749904 -735846 -723376 -716826 
1790.196 -721523 -741767 -778878 -828917 -883944 -935558 -976752 -1005645 
1794.054 -1023992 -1035594 -1044387 -1052386 -1060451 -1068516 -1077010 
1797.429 -1087355 -1101336 -1120438 -1144993 -1173379 -1202590 -1229254 
1800.804 -1250598 -1265531 -1274253 -1277193 -1275178 -1268636 -1257998 
1804.179 -1244618 -1230576 -1218351 -1210024 -1206257 -1205960 -1206588 
1807.555 -1205861 -1202590 -1197501 -1192578 -1190430 -1191917 -1195882 
1810.930 -1198889 -1196906 -1187621 -1170703 -1148760 -1125759 -1105170 
1814.305 -1089041 -1076878 -1066698 -1055592 -1041577 -1023661 -1001910 
1817.680 -977083 -950072 -921870 -893169 -865426 -840029 -818368 -801468 
1821.538 -788867 -779705 -772263 -765979 -760588 -757214 -756056 -756652 
1825.395 -756718 -753212 -744049 -729528 -712989 -699856 -695886 -703825 
1829.253 -721788 -742197 -755262 -751889 -727973 -685333 -630579 -571384 
1833.110 -513737 -460848 -412521 -366506 -320453 -273170 -224491 -175044 
1836.968 -124698 -71497 -12226 56033 135572 226099 325100 428899 533520 
1841.307 636474 736066 831532 923333 1012828 1102442 1195563 1296446 1408058 
1845.647 1530936 1661898 1794963 1921712 2033584 2124274 2190040 2231002 
1849.504 2249120 2246956 2226340 2187076 2128469 2050095 1953829 1843908 
1853.362 1726097 1605691 1486548 1369665 1254076 1138552 1022958 908524 
1857.219 797672 692224 592210 496034 401239 306200 211744 120624 37078 
1861.559 -35054 -94786 -143546 -184219 -220119 -252937 -282806 -309030 
1865.416 -331611 -352436 -374915 -403120 -438539 -479615 -520521 -553515 
1869.273 -572377 -574958 -563443 -543588 -521547 -501227 -483884 -469222 
1873.131 -456016 -444232 -435593 -431985 -435394 -445953 -462073 -481071 
1876.988 -500697 -520422 -541602 -566289 -595341 -628197 -662374 -694431 
1880.846 -722350 -746365 -769287 -794886 -826272 -863640 -904544 -945609 
1884.703 -983496 -1016785 -1047527 -1078927 -1114357 -1154742 -1198459 
1888.078 -1241842 -1279935 -1308874 -1326481 -1332526 -1328133 -1314523 
1891.454 -1292489 -1263714 -1230906 -1197798 -1168951 -1147240 -1133625 
1894.829 -1124933 -1117001 -1104244 -1083786 -1055890 -1024190 -992686 
1898.204 -964487 -939922 -917571 -894591 -869295 -842741 -817706 -797598 
1902.062 -784038 -776133 -770510 -763135 -751889 -737235 -722284 -710971 
1905.919 -706108 -707597 -713055 -718711 -722648 -724368 -726220 -730917 
1909.776 -739617 -750962 -761944 -768195 -767104 -759000 -746795 -734126 
1913.634 -723640 -715999 -709945 -704189 -698830 -696349 -700385 -714709 
1917.491 -739815 -773057 -809008 -842609 -871808 -898658 -927490 -962768 
1921.349 -1005844 -1053675 -1098923 -1133459 -1151801 -1153750 -1144035 
1924.724 -1129395 -1116109 -1107087 -1100840 -1094164 -1084546 -1071491 
1928.099 -1057741 -1046701 -1041114 -1040552 -1042999 -1044420 -1042470 
1931.474 -1037346 -1031264 -1026868 -1025413 -1025182 -1022570 -1014207 
1934.850 -999034 -980025 -963065 -954337 -957643 -972487 -994703 -1019066 
1938.707 -1041214 -1059559 -1075159 -1090000 -1103782 -1114556 -1117762 
1942.082 -1110127 -1091024 -1065508 -1040718 -1023000 -1014637 -1012323 
1945.458 -1009215 -996918 -970405 -930631 -883051 -835730 -794787 -762605 
1949.315 -737335 -715040 -692016 -667899 -644608 -625021 -610793 -601264 
1953.172 -594051 -587003 -580848 -579260 -587367 -609966 -647486 -695324 
1957.030 -745141 -787147 -815358 -828289 -829380 -824354 -817541 -810364 
1960.887 -801038 -787775 -769783 -749904 -732274 -719307 -711732 -706373 
1964.745 -698963 -687814 -675508 -668792 -674879 -697838 -734060 -772991 
1968.602 -800211 -804610 -782384 -739981 -689171 -644707 -615922 -603746 
1972.459 -602455 -602819 -596996 -579988 -551397 -510792 -456545 -385211 
1976.317 -293037 -180377 -55197 68725 174187 248642 287599 294528 279177 
1980.656 251593 217811 178728 131661 73928 6659 -64242 -130594 -185047 
1984.996 -223696 -248334 -264262 -276514 -287044 -293302 -290753 -275289 
1988.854 -246480 -209687 -171865 -139041 -113171 -90844 -64440 -27864 21140 
1993.193 78269 134644 181612 213269 228850 231071 225469 215490 202562 
1997.533 185756 164574 139715 115122 94177 80490 72702 66041 53514 29722 
2002.354 -7256 -53541 -101610 -143711 -174216 -190942 -195546 -190478 
2006.212 -177230 -155602 -125891 -88359 -47379 -8647 23492 47781 68195 91857 
2011.034 125529 171900 227458 283189 329444 360216 376300 385121 397326 
2015.373 420475 456495 501275 545231 580067 602894 615469 623466 633222 
2019.713 647026 663618 679912 694282 706926 723089 748446 784892 830403 
2024.052 877081 915862 940035 947307 942492 932597 924462 920311 918916 
2028.392 915928 908922 899326 892553 896239 916825 956240 1011466 1077097 
2032.732 1147322 1218854 1290498 1362452 1433023 1497952 1551851 1590060 
2036.589 1611045 1618761 1620025 1622519 1630601 1645168 1663262 1680957 
2040.447 1695460 1707335 1718845 1731786 1745691 1756670 1759331 1749384 
2044.304 1727062 1697722 1670746 1655479 1658739 1681656 1719278 1763955 
2048.161 1808172 1845339 1871993 1885570 1883906 1865704 1830565 1781622 
2052.019 1725432 1671844 1631266 1611145 1613240 1632696 1660335 1686546 
2055.876 1704741 1714221 1718745 1724068 1734680 1751446 1771674 1790738 
2059.734 1804945 1812564 1814860 1813562 1809769 1803780 1793799 1779492 
2063.591 1762724 1747787 1739803 1742797 1756636 1776365 1794664 1803913 
2067.448 1799555 1782753 1758998 1735046 1717082 1707834 1705839 1707801 
2071.306 1710096 1711128 1711128 1710795 1710762 1709731 1705206 1695227 
2075.163 1679527 1659703 1639847 1623351 1612276 1605724 1601500 1596911 
2079.021 1591524 1586901 1586303 1592355 1605458 1622652 1639049 1649625 
2082.878 1651721 1646399 1637585 1630035 1627508 1630734 1637419 1644237 
2086.736 1648361 1648761 1646865 1644603 1643539 1643406 1642441 1637818 
2090.593 1627774 1612209 1592887 1572502 1553880 1538817 1528675 1524652 
2094.450 1527844 1539947 1561262 1589927 1621688 1650290 1669349 1675702 
2098.308 1670380 1658273 1647330 1643639 1650124 1665291 1684417 1701747 
2102.165 1714454 1722804 1730854 1743762 1765685 1797758 1838351 1884139 
2106.023 1931962 1980523 2029389 2079126 2129568 2178684 2223675 2262243 
2109.880 2293819 2320102 2344586 2370405 2398957 2429210 2457600 2479626 
2113.738 2492590 2495955 2491556 2483026 2473928 2466730 2462698 2462232 
2117.595 2465931 2475228 2491790 2516784 2549979 2589509 2632509 2675881 
2121.452 2717590 2757169 2794917 2831468 2866354 2898541 2926061 2947978 
2125.310 2964691 2978103 2990847 3004693 3019707 3034355 3045566 3050804 
2129.167 3049370 3042630 3032920 3022777 3013801 3005894 2998854 2993282 
2133.025 2991014 2996085 3012000 3040561 3079668 3124753 3168842 3206292 
2136.882 3234866 3255463 3271955 3287579 3304406 3320933 3334822 3343170 
2140.740 3345941 3345006 3344071 3346342 3351985 3358696 3361301 3355791 
2144.597 3338796 3311384 3275994 3236602 3196011 3156159 3117311 3080703 
2148.454 3047768 3020374 2999455 2982773 2964191 2935468 2888868 2820496 
2152.312 2731994 2629909 2523349 2420014 2322933 2231902 2144918 2063578 
2156.169 1996068 1956791 1965279 2036280 2173955 2367840 2592942 2819695 
2160.027 3018806 3170611 3266980 3308345 3302135 3259169 3191972 3113607 
2163.884 3036257 2970029 2920957 2888768 2868022 2849678 2824798 2787580 
2167.741 2738429 2682649 2627509 2579709 2542013 2513118 2488524 2464098 
2171.599 2436541 2406021 2373903 2341721 2309942 2278031 2244458 2210687 
2175.456 2178884 2152477 2133564 2120511 2108225 2089114 2056887 2009316 
2179.314 1951200 1891727 1841479 1808771 1795728 1797525 1805211 1809736 
2183.171 1805477 1791470 1770776 1747621 1725598 1706138 1688674 1673440 
2187.029 1661765 1656244 1660302 1675802 1701614 1734181 1768979 1802250 
2190.886 1833393 1862942 1892925 1923942 1954295 1980657 1999064 2008085 
2194.743 2009017 2006587 2006087 2012945 2029056 2053724 2083920 2116915 
2198.601 2149746 2180815 2208023 2228471 2238296 2233833 2213651 2179150 
2202.458 2136294 2092976 2056288 2030754 2017172 2011879 2011047 2011214 
2206.316 2012079 2015508 2023830 2037612 2055322 2072068 2084420 2090146 
2210.173 2090979 2090779 2095640 2108758 2131333 2160602 2192770 2224608 
2214.031 2254616 2282827 2309808 2335059 2356313 2369572 2372537 2364874 
2217.888 2349750 2333460 2322100 2319802 2327064 2339956 2353914 2364075 
2221.745 2367506 2364341 2356213 2344086 2327863 2307110 2280496 2248921 
2225.603 2215982 2185777 2162800 2149646 2145051 2145817 2147882 2149147 
2229.460 2150179 2154209 2164032 2181348 2203927 2226706 2243458 2249887 
2233.318 2245290 2233267 2219412 2209388 2205958 2208989 2214816 2220112 
2237.175 2222410 2221910 2221211 2223609 2231036 2243991 2260811 2278664 
2241.032 2295552 2310508 2324199 2337690 2352748 2369639 2388962 2410218 
2244.890 2433409 2459233 2488124 2520683 2556378 2594009 2631576 2666880 
2248.747 2697452 2721191 2736762 2743464 2741697 2733794 2723925 2717323 
2252.605 2719124 2732861 2758569 2792883 2828233 2857182 2872658 2870657 
2256.462 2851112 2817194 2773441 2724625 2674014 2624309 2577109 2534547 
2260.320 2499188 2473128 2458333 2454368 2459533 2470829 2485258 2501287 
2264.177 2518917 2539880 2565677 2597442 2633809 2672580 2710121 2743197 
2268.034 2769573 2787814 2797385 2798152 2790682 2775475 2754801 2731660 
2271.892 2709521 2691917 2681049 2676648 2677015 2679281 2680915 2680682 
2275.749 2679348 2678515 2680182 2685483 2694084 2704720 2715923 2726792 
2279.607 2737596 2749133 2762904 2779544 2799219 2820829 2843808 2867355 
2283.464 2891003 2914519 2937469 2958553 2976034 2988678 2995284 2996352 
2287.322 2993249 2987878 2981672 2975500 2969195 2962189 2954483 2946910 
2291.179 2941773 2942040 2950013 2966860 2991915 3022443 3055209 3087043 
2295.036 3115142 3138503 3157260 3172480 3185597 3198481 3212768 3229525 
2298.894 3249454 3272155 3296727 3321233 3343971 3363705 3380368 3394861 
2302.751 3408953 3424549 3442583 3462856 3484166 3504808 3523380 3539348 
2306.609 3553244 3566273 3580070 3595773 3614215 3635565 3659957 3687291 
2310.466 3717634 3750854 3786148 3822281 3858183 3892350 3924179 3953970 
2314.323 3982526 4011051 4040447 4071317 4103426 4136876 4171265 4206427 
2318.181 4242461 4279401 4316914 4354798 4393321 4432718 4473625 4516311 
2322.038 4559369 4599417 4631131 4648612 4646569 4622624 4578589 4520161 
2325.896 4455347 4393087 4340742 4302725 4279703 4269731 4269363 4274783 
2329.753 4283450 4293924 4305235 4317014 4328795 4340072 4351150 4362730 
2333.611 4376586 4394058 4416216 4443029 4473425 4505664 4538141 4570184 
2337.468 4601996 4634279 4667635 4701799 4735663 4767989 4797738 4824206 
2341.325 4847961 4869438 4888237 4902646 4909046 4902914 4880932 4841561 
2345.183 4787252 4724341 4662578 4613114 4585788 4588836 4626107 4698148 
2349.040 4801390 4929756 5074554 5225972 5374693 5513296 5637442 5746548 
2352.898 5842954 5930412 6011841 6089153 6162310 6230807 6294340 6354184 
2356.755 6411951 6470130 6529224 6589066 6647302 6701272 6748989 6789913 
2360.613 6824715 6855043 6881905 6905807 6926377 6943143 6955903 6965634 
2364.470 6973580 6980684 6987251 6992200 6993884 6990281 6980247 6963782 
2368.327 6941561 6914593 6883353 6847840 6807953 6763797 6716717 6669172 
2372.185 6624054 6584054 6550751 6524111 6503325 6487046 6474535 6465959 
2376.042 6462360 6465051 6475275 6493369 6519133 6552131 6592128 6639362 
2379.900 6694172 6756999 6827341 6904393 6986375 7071269 7157628 7244105 
2383.757 7329858 7414145 7495616 7572382 7642418 7703730 7755166 7796286 
2387.615 7827829 7850568 7865751 7873882 7875265 7870407 7859846 7844292 
2391.472 7825231 7803472 7779892 7754694 7728047 7700020 7671858 7644812 
2395.329 7620971 7601717 7588230 7580610 7578317 7580711 7587488 7599020 
2399.187 7616183 7639788 7670745 7708822 7753817 7805260 7863051 7927735 
2403.044 8000157 8080692 8169817 8266864 8370823 8480416 8595071 8714423 
2406.902 8838642 8968106 9102786 9242482 9386593 9535119 9688101 9846254 
2410.759 10010060 10179660 10353805 10530160 10704990 10874284 11034127 
2414.134 11181382 11313723 11429810 11529153 11611911 11678857 11731380 
2417.510 11771346 11800693 11821087 11833685 11838895 11836988 11828306 
2420.885 11813631 11794700 11773558 11752315 11732673 11715414 11700675 
2424.260 11688353 11679061 11673990 11675249 11685392 11706326 11739652 
2427.635 11785576 11843935 11914697 11997970 12094309 12204368 12328533 
2431.010 12466237 12615923 12775761 12943816 13118903 13300552 13489317 
2434.386 13686064 13891795 14107172 14332691 14568708 14815379 15072824 
2437.761 15340720 15618501 15905017 16199084 16500164 16808548 17125146 
2441.136 17451358 17788274 18135954 18493454 18859350 19231646 19609324 
2444.511 19992224 20380946 20776168 21178396 21586986 22000354 22416348 
2447.887 22832984 23248518 23661932 24072482 24479528 24882324 25279562 
2451.262 25669918 26051832 26423412 26783222 27129328 27459332 27771468 
2454.637 28063680 28334372 28582122 28805020 29001072 29166666 29298082 
2458.012 29390996 29442230 29449924 29414078 29336188 29218228 29062002 
2461.388 28868720 28638994 28373382 28073224 27741198 27381476 27000014 
2464.763 26602786 26196350 25786884 25380296 24982196 24598802 24235786 
2468.138 23899084 23593742 23323470 23090512 22895710 22738878 22619172 
2471.513 22535406 22485924 22468092 22478280 22511850 22563326 22627270 
2474.889 22699180 22775192 22852822 22930604 23007038 23081006 23151246 
2478.264 23216466 23275330 23327386 23371476 23406758 23431656 23444212 
2481.639 23442218 23424104 23389030 23337630 23271906 23194864 23110078 
2485.014 23021154 22931584 22843846 22759934 22680680 22605976 22534848 
2488.390 22465124 22394542 22320448 22241098 22155246 22062750 21964036 
2491.765 21859698 21750126 21635252 21514456 21386872 21251356 21107536 
2495.140 20954616 20792958 20622602 20444220 20258310 20065504 19866506 
2498.515 19661704 19451352 19235214 19013678 18787446 18557564 18326004 
2501.891 18095294 17867918 17646078 17430834 17222490 17020518 16824218 
2505.266 16633412 16448438 16270559 16100695 15940318 15789859 15648969 
2508.641 15516742 15392211 15274306 15161990 15054575 14950753 14849802 
2512.016 14750382 14651841 14554249 14458254 14365225 14276805 14193983 
2515.392 14117475 14046970 13982258 13923133 13869968 13823584 13785001 
2518.767 13754767 13733084 13718926 13711335 13709317 13712190 13719405 
2522.142 13731067 13746765 13765779 13787430 13810825 13835966 13863127 
2525.517 13892923 13926246 13962823 14001421 14040159 14076231 14107412 
2528.893 14132194 14149617 14160229 14163961 14161187 14152014 14136781 
2532.268 14115969 14091051 14063397 14034752 14006280 13978836 13952797 
2535.643 13928607 13907054 13889366 13876674 13869832 13867745 13868771 
2539.018 13869900 13868771 13864392 13857243 13850025 13845886 13847186 
2542.394 13855190 13868635 13885089 13901374 13915572 13926520 13934458 
2545.769 13940343 13944825 13948144 13949854 13949615 13947357 13944038 
2549.144 13940925 13939488 13940651 13944278 13949547 13955193 13960393 
2552.519 13964773 13968947 13973704 13979418 13986125 13993002 13999025 
2555.895 14003268 14005459 14005390 14003679 14000394 13995261 13987425 
2559.270 13975757 13959059 13936784 13908593 13874860 13836103 13792663 
2562.645 13745088 13694237 13640827 13585816 13530711 13476808 13425100 
2566.020 13376882 13332770 13293446 13259693 13231819 13210162 13194860 
2569.396 13185604 13181675 13182188 13186867 13194893 13206542 13221707 
2572.771 13240085 13261708 13286134 13313398 13343669 13377121 13414267 
2576.146 13454763 13497692 13541342 13584210 13624962 13663086 13699058 
2579.521 13734657 13771286 13810688 13853446 13899971 13949786 14002858 
2582.896 14059495 14120042 14184911 14253967 14326184 14400023 14473841 
2586.272 14546609 14617641 14687279 14756381 14825596 14895371 14965946 
2589.647 15037595 15110389 15184877 15261642 15340857 15421838 15503109 
2593.022 15582232 15656732 15725093 15786698 15842674 15894879 15945783 
2596.397 15997587 16051803 16109223 16170332 16235130 16303618 16375799 
2599.773 16451260 16529281 16609039 16689809 16771352 16854186 16939582 
2603.148 17029236 17124628 17226594 17335306 17449944 17569166 17691700 
2606.523 17816306 17941946 18068076 18194204 18320474 18446748 18573678 
2609.898 18701268 18829970 18959264 19088284 19215922 19340446 19460396 
2613.274 19574556 19682332 19783338 19877466 19964502 20044060 20115894 
2616.649 20179962 20236474 20286222 20330318 20369556 20404906 20436824 
2620.024 20465616 20491804 20515806 20538630 20560862 20583028 20605298 
2623.399 20627640 20649878 20672152 20695224 20720352 20748990 20782424 
2626.775 20821250 20865366 20913726 20965292 21018844 21074074 21130772 
2630.150 21189216 21249930 21312984 21378136 21445282 21513866 21583470 
2633.525 21653712 21724140 21794336 21864054 21932984 22001050 22068816 
2636.900 22136870 22206016 22276464 22348250 22420988 22494158 22567164 
2640.276 22640184 22713460 22787762 22863578 22941538 23021330 23102636 
2643.651 23184448 23266312 23347804 23428790 23509510 23590174 23671344 
2647.026 23753718 23837964 23925096 24015538 24110202 24209020 24311680 
2650.401 24417378 24525206 24634884 24746206 24859554 24975598 25094904 
2653.777 25217684 25343764 25472868 25604752 25739382 25876904 26018128 
2657.152 26163058 26312050 26464226 26618710 26774342 26929854 27084644 
2660.527 27238220 27390546 27541758 27692212 27842012 27991262 28140316 
2663.902 28289386 28438718 28588210 28738070 28888054 29037876 29187432 
2667.278 29336686 29485954 29635308 29785390 29936444 30088938 30243366 
2670.653 30399842 30558862 30720216 30883870 31049366 31216170 31383752 
2674.028 31551578 31719252 31886920 32054406 32221310 32387174 32551066 
2677.403 32712340 32870672 33026020 33179604 33332598 33487004 33644364 
2680.779 33806364 33974272 34149120 34332076 34523860 34725812 34938672 
2684.154 35163380 35399996 35649044 35910396 36183432 36467776 36762148 
2687.529 37065060 37374856 37689904 38009232 38332804 38661152 38995692 
2690.904 39337960 39689100 40049356 40418020 40794096 41176548 41564364 
2694.280 41957344 42355796 42760280 43170888 43587780 44010500 44438476 
2697.655 44871360 45308796 45750568 46196812 46647056 47101200 47558852 
2701.030 48019508 48483056 48949024 49416724 49884704 50350992 50813164 
2704.405 51268184 51713528 52146964 52566324 52970140 53356684 53724156 
2707.781 54070352 54393880 54692808 54966296 55213880 55435292 55630824 
2711.156 55800756 55945492 56065964 56163016 56237724 56291056 56323192 
2714.531 56333756 56321648 56285400 56223504 56135040 56019748 55878336 
2717.906 55711920 55522376 55311832 55082960 54839136 54584216 54322908 
2721.281 54059768 53799528 53545664 53301692 53070132 52853180 52653204 
2724.657 52472612 52313816 52178796 52068996 51984884 51926288 51892272 
2728.032 51881968 51894400 51928680 51984100 52059548 52153804 52265304 
2731.407 52392124 52533116 52686608 52851608 53027004 53211608 53403820 
2734.782 53602008 53804404 54009488 54216056 54423516 54630804 54837332 
2738.158 55042040 55243572 55440560 55631768 55816164 55993436 56163432 
2741.533 56326856 56484940 56639156 56791240 56944096 57099608 57260172 
2744.908 57427068 57601368 57783272 57972408 58168028 58369044 58573680 
2748.283 58779852 58984868 59185388 59378288 59560480 59730320 59886988 
2751.659 60031156 60164036 60287280 60402336 60510224 60612044 60708252 
2755.034 60799332 60885552 60966756 61042104 61110368 61169760 61218396 
2758.409 61254488 61276620 61283520 61274020 61246284 61198404 61128296 
2761.784 61033940 60914524 60769988 60601724 60411704 60202472 59976640 
2765.160 59736516 59484784 59224084 58957428 58688016 58418848 58152572 
2768.535 57891420 57637160 57392276 57158908 56940356 56739432 56559136 
2771.910 56400572 56263896 56147216 56047984 55963212 55890168 55827432 
2775.285 55773552 55727928 55688752 55653348 55617836 55577840 55528172 
2778.661 55463940 55381160 55276008 55146156 54990212 54808164 54601460 
2782.036 54373340 54128524 53872556 53611300 53350468 53094132 52845284 
2785.411 52605292 52374032 52150664 51933012 51719204 51506764 51293616 
2788.786 51078068 50859240 50636948 50411608 50184076 49955476 49726884 
2792.162 49499416 49274144 49052324 48836000 48626672 48426636 48237684 
2795.537 48060808 47896732 47745584 47606804 47479712 47363776 47258072 
2798.912 47161844 47074168 46994524 46922016 46856424 46797452 46745088 
2802.287 46698892 46658380 46622264 46589176 46557644 46526552 46495648 
2805.663 46464928 46434872 46406444 46379420 46353500 46327696 46300712 
2809.038 46271300 46238752 46202232 46161288 46115300 46063572 46005256 
2812.413 45939764 45866700 45786356 45699252 45606168 45507880 45405272 
2815.788 45299376 45191892 45085056 44982328 44888040 44807328 44745248 
2819.164 44706500 44695300 44714136 44764972 44848324 44963772 45110092 
2822.539 45284888 45484920 45706616 45945660 46197512 46457808 46721912 
2825.914 46985368 47243956 47493536 47730276 47950564 48151272 48329484 
2829.289 48483016 48610144 48710248 48783648 48831920 48857504 48864028 
2832.665 48855836 48836816 48810752 48781052 48750060 48720552 48694348 
2836.040 48673852 48660952 48657732 48665700 48686676 48722776 48776492 
2839.415 48851908 48953696 49087308 49259408 49475908 49743156 50067528 
2842.790 50455480 50913852 51450288 52071352 52782272 53583936 54471516 
2846.166 55430772 56437432 57457736 58445268 59348012 60111820 60682304 
2849.541 61017124 61088096 60886848 60425832 59736744 58867836 57871732 
2852.916 56804836 55719188 54655644 53646652 52713356 51867108 51111724 
2856.291 50444988 49860432 49348524 48898072 48498096 48137576 47807796 
2859.667 47501112 47211856 46935344 46668048 46406148 46146656 45887284 
2863.042 45626336 45363816 45100832 44840280 44585612 44341372 44112892 
2866.417 43905276 43724328 43575252 43462848 43390304 43359916 43371012 
2869.792 43421392 43506720 43620896 43755844 43903444 44055020 44202316 
2873.167 44338768 44459988 44563916 44651120 44724056 44786240 44841344 
2876.543 44892448 44942168 44992252 45044368 45100536 45162624 45233188 
2879.918 45314124 45406964 45512220 45629576 45758224 45896676 46043348 
2883.293 46196628 46353944 46512720 46669600 46821288 46964804 47098176 
2886.668 47220796 47333812 47439240 47540628 47641300 47745512 47857072 
2890.044 47979908 48118440 48277008 48460528 48675148 48927960 49227080 
2893.419 49582748 50005924 50507624 51097932 51783704 52565724 53436836 
2896.794 54379984 55367420 56359256 57310188 58169392 58886728 59422548 
2900.169 59749216 59857288 59755640 59471332 59044192 58518548 57942496 
2903.545 57359188 56803512 56304636 55883200 55553588 55326512 55209480 
2906.920 55208088 55327036 55571324 55946248 56457812 57111928 57913112 
2910.295 58861344 59949560 61159996 62462180 63815756 65168484 66460916 
2913.670 67636464 68639640 69426120 69967712 70251456 70282544 70079904 
2917.046 69675472 69106432 68410696 67626504 66785732 65914840 65035768 
2920.421 64164536 63313364 62491680 61705232 60958328 60253020 59589712 
2923.796 58968132 58387084 57845008 57340132 56870324 56433092 56025668 
2927.171 55644576 55286768 54948172 54625132 54313936 54010764 53712232 
2930.547 53415324 53117760 52817632 52514268 52207380 51897200 51584072 
2933.922 51268816 50952492 50636948 50325020 50020424 49727140 49449692 
2937.297 49191604 48956148 48745652 48561824 48406592 48282152 48190628 
2940.672 48134320 48114588 48130912 48180556 48258272 48355704 48462048 
2944.048 48565156 48651432 48706656 48718812 48677260 48575644 48412744 
2947.423 48192772 47925664 47624920 47307172 46989208 46685312 46407332 
2950.798 46162468 45953504 45779652 45637196 45521052 45424728 45342224 
2954.173 45268080 45197336 45126340 45052384 44973292 44887932 44795828 
2957.549 44697612 44594312 44487996 44380968 44275032 44171868 44072068 
2960.924 43975668 43882184 43791648 43704248 43621408 43544704 43476176 
2964.299 43417328 43368664 43330296 43301744 43282888 43273812 43275604 
2967.674 43289368 43316276 43356840 43410700 43477092 43554996 43643500 
2971.050 43742320 43851576 43971012 44100348 44238268 44382804 44530576 
2974.425 44677632 44819044 44948524 45059036 45142812 45191268 45196896 
2977.800 45153692 45058224 44910380 44712964 44471992 44194832 43890504 
2981.175 43569060 43240096 42913612 42598704 42302396 42029644 41782280 
2984.551 41558640 41354504 41163724 40980600 40800360 40620624 40441116 
2987.926 40263204 40088164 39915848 39742796 39562812 39366544 39142372 
2991.301 38880188 38571952 38214620 37811272 37371140 36908328 36438444 
2994.676 35977384 35537480 35125800 34743832 34388380 34053644 33732804 
2998.052 33419866 33111762 32807026 32506142 32210104 31920050 31636100 
3001.427 31358358 31086488 30820122 30559572 30305112 30057370 29816866 
3004.802 29584122 29359480 29143668 28937458 28741682 28557176 28384312 
3008.177 28222376 28070360 27926100 27787470 27652342 27518988 27386522 
3011.552 27255014 27124990 26997368 26873450 26754326 26640692 26532866 
3014.928 26430702 26333734 26241542 26153592 26069882 25990266 25914642 
3018.303 25842898 25774436 25708656 25644434 25581416 25519390 25458462 
3021.678 25399056 25341446 25285670 25231448 25178182 25125866 25075246 
3025.053 25027544 24985180 24950752 24926538 24914326 24914396 24925554 
3028.429 24945452 24970474 24996094 25017154 25028910 25026842 25007816 
3031.804 24970544 24915554 24845238 24762796 24672060 24576678 24479072 
3035.179 24381560 24285644 24192766 24104318 24021702 23945612 23876084 
3038.554 23812200 23752494 23694998 23638594 23582758 23527978 23475374 
3041.930 23426376 23382000 23342700 23308472 23278826 23253412 23231846 
3045.305 23213634 23198534 23185776 23174626 23164562 23155196 23146808 
3048.680 23139854 23135206 23133388 23134262 23137196 23140972 23144432 
3052.055 23146528 23146458 23144152 23139714 23133494 23125840 23117488 
3055.431 23109206 23101972 23096800 23094110 23094110 23096242 23099910 
3058.806 23104382 23109870 23116650 23126156 23139610 23157956 23181512 
3062.181 23209336 23240618 23274178 23309486 23346580 23385846 23428194 
3065.556 23473624 23521926 23572262 23623444 23674598 23724950 23774016 
3068.932 23821548 23867228 23910602 23951284 23988856 24023136 24054200 
3072.307 24082392 24107994 24131218 24152094 24170974 24188106 24204536 
3075.682 24221386 24239816 24260592 24283718 24308738 24334492 24359794 
3079.057 24383698 24405778 24426422 24445770 24464594 24483244 24502034 
3082.433 24521316 24541720 24563914 24588668 24616580 24647966 24682510 
3085.808 24719618 24758518 24798402 24838958 24879938 24921694 24964298 
3089.183 25007816 25052324 25097958 25144580 25192156 25241104 25291290 
3092.558 25342816 25395752 25449926 25505404 25562332 25620954 25681588 
3095.934 25744588 25810126 25878558 25949780 26023722 26100176 26178366 
3099.309 26257662 26336834 26414856 26490920 26564744 26636536 26707142 
3102.684 26777232 26847472 26918078 26988694 27058970 27128482 27197300 
3106.059 27266056 27335494 27406320 27478992 27552984 27627766 27702490 
3109.435 27776590 27849926 27922742 27995680 28068946 28143038 28217780 
3112.810 28293382 28369846 28447562 28526638 28607568 28689964 28773616 
3116.185 28857776 28941990 29026010 29110116 29194412 29279012 29363414 
3119.560 29446592 29527090 29603524 29675360 29742986 29807426 29870778 
3122.936 29934812 30000844 30069336 30140148 30212924 30286992 30362352 
3126.311 30438934 30516986 30596794 30677860 30759798 30841714 30922614 
3129.686 31001678 31078942 31154224 31228490 31302660 31377804 31455134 
3133.061 31535436 31618818 31705278 31793542 31882748 31971652 32059648 
3136.437 32146770 32233194 32319706 32407060 32495536 32585244 32675900 
3139.812 32766898 32857984 32948770 33039142 33128820 33217732 33305478 
3143.187 33392136 33478092 33563956 33650736 33739612 33830936 33924900 
3146.562 34020992 34118332 34216300 34314144 34412192 34510692 34610436 
3149.938 34711492 34813868 34916764 35019580 35121272 35221512 35320056 
3153.313 35417432 35513712 35609408 35704260 35798228 35890892 35982060 
3156.688 36071664 36160024 36247756 36335796 36425364 36517616 36613568 
3160.063 36714116 36819200 36928132 37039872 37152720 37265236 37376016 
3163.438 37484760 37591548 37697348 37803284 37910116 38018344 38127648 
3166.814 38237124 38345800 38452072 38555008 38653908 38748300 38838444 
3170.189 38924832 39008228 39088960 39168040 39245248 39320872 39395204 
3173.564 39468136 39539480 39609492 39677848 39744252 39808376 39869940 
3176.939 39929140 39986612 40043544 40101068 40160372 40221980 40285524 
3180.315 40350168 40414784 40478576 40541536 40604616 40669016 40735720 
3183.690 40805344 40877200 40950268 41022476 41092404 41159280 41222884 
3187.065 41284024 41343644 41402832 41462468 41523456 41586640 41652500 
3190.440 41721288 41793112 41866848 41941544 42015668 42087944 42158112 
3193.816 42226360 42293960 42361604 42429844 42498424 42566724 42633796 
3197.191 42699188 42763352 42827524 42892876 42960544 43030376 43101580 
3200.566 43172572 43241892 43309024 43374084 43438056 43501888 43566024 
3203.941 43630860 43695604 43759692 43822288 43883284 43942488 43999976 
3207.317 44055460 44109040 44160644 44211084 44261676 44314324 44370912 
3210.692 44432424 44498052 44566300 44634596 44701028 44764568 44825840 
3214.067 44886608 44948960 45014488 45083368 45154136 45224912 45293456 
3217.442 45358776 45420940 45481352 45542248 45605136 45671424 45741220 
3220.818 45814116 45888980 45964516 46039736 46113348 46185096 46254528 
3224.193 46321984 46388416 46455188 46523636 46594968 46669524 46746564 
3227.568 46825128 46903452 46980384 47055188 47127716 47198596 47268488 
3230.943 47337876 47407124 47476532 47546064 47616156 47687080 47759192 
3234.319 47832656 47907312 47982612 48057736 48132356 48205840 48278008 
3237.694 48348776 48418336 48487056 48555784 48625412 48697316 48772416 
3241.069 48851384 48933712 49018124 49102852 49186004 49266720 49344852 
3244.444 49422072 49500604 49582568 49669336 49761252 49856792 49954432 
3247.820 50052024 50148744 50243960 50338156 50432036 50525976 50620344 
3251.195 50714508 50808396 50901336 50993180 51083956 51173824 51262628 
3254.570 51350372 51436824 51521616 51604932 51686692 51767464 51847768 
3257.945 51927744 52007744 52087600 52167252 52246544 52325476 52403864 
3261.321 52481736 52559292 52636264 52712644 52788444 52862944 52935668 
3264.696 53005964 53073280 53137644 53199584 53260224 53321620 53385464 
3268.071 53453244 53525128 53600580 53677844 53754452 53828748 53899488 
3271.446 53966228 54029524 54090620 54150592 54210540 54271056 54332256 
3274.822 54394632 54458220 54523280 54590152 54658912 54729832 54802748 
3278.197 54877784 54954676 55033428 55113320 55193452 55273220 55351800 
3281.572 55428592 55504224 55579684 55656252 55735692 55819140 55907316 
3284.947 56000036 56096920 56196844 56299016 56402608 56506900 56611488 
3288.323 56716024 56820584 56925584 57031780 57140536 57253024 57370416 
3291.698 57492992 57620436 57752312 57887556 58025388 58166056 58309620 
3295.073 58456944 58609056 58766496 58929876 59099084 59274252 59454652 
3298.448 59639652 59828496 60020048 60213472 60408240 60604580 60803028 
3301.823 61005344 61212788 61426668 61647604 61874956 62107896 62345008 
3305.199 62585012 62827060 63071200 63317776 63567824 63822860 64083992 
3308.574 64352744 64630380 64917244 65213264 65517268 65827348 66141240 
3311.949 66457240 66774064 67091576 67410872 67733536 68060896 68393896 
3315.324 68732352 69075696 69423160 69774056 70128152 70485584 70846696 
3318.700 71211512 71579792 71950928 72323600 72697136 73070048 73441128 
3322.075 73809576 74174064 74534160 74889808 75241912 75591552 75939888 
3325.450 76287912 76635312 76981080 77323648 77661016 77991984 78315512 
3328.825 78630656 78936736 79232328 79515744 79785184 80039408 80277632 
3332.201 80500312 80708064 80900672 81077864 81237872 81378640 81498944 
3335.576 81598808 81679704 81744696 81795968 81835176 81861296 81871856 
3338.951 81863496 81832608 81777568 81697576 81593456 81466560 81317464 
3342.326 81146192 80951456 80732248 80486912 80214776 79915680 79589648 
3345.702 79237224 78859056 78456680 78031840 77587568 77127400 76654400 
3349.077 76171728 75681272 75183992 74679936 74168912 73650480 73124120 
3352.452 72589504 72046320 71495008 70936576 70372888 69807128 69242768 
3355.827 68683880 68133760 67594144 67065820 66548148 66039928 65540268 
3359.203 65048964 64566100 64092100 63627556 63172280 62725604 62287372 
3362.578 61856996 61434836 61022048 60619436 60228164 59848996 59482352 
3365.953 59127940 58786300 58457132 58140564 57836416 57543524 57260320 
3369.328 56985084 56715572 56450036 56187116 55926120 55666420 55407436 
3372.704 55148304 54888200 54626372 54362448 54095948 53827060 53555260 
3376.079 53279588 52998852 52711376 52416272 52113116 51802596 51485764 
3379.454 51164056 50838420 50508780 50174484 49834084 49486156 49129824 
3382.829 48764668 48391036 48009736 47622372 47230476 46835832 46440552 
3386.205 46045704 45652432 45260984 44870664 44480984 44090956 43700916 
3389.580 43311260 42923236 42538512 42157968 41782280 41411144 41044036 
3392.955 40680552 40320356 39963796 39610872 39261424 38914612 38569564 
3396.330 38225224 37881296 37538224 37197548 36860896 36529364 36203312 
3399.706 35881788 35562944 35245160 34927140 34608996 34291516 33975592 
3403.081 33662268 33351344 33042040 32733348 32424516 32115802 31808122 
3406.456 31503514 31203318 30908382 30618730 30333180 30050446 29769740 
3409.831 29490386 29213266 28939440 28670176 28405856 28146750 27891580 
3413.207 27638924 27387686 27136772 26886248 26637100 26390842 26149298 
3416.582 25913728 25685140 25462890 25246022 25032808 24821172 24610232 
3419.957 24399748 24190872 23985248 23784866 23591118 23404136 23223106 
3423.332 23046624 22872518 22699112 22525284 22350830 22176062 22001122 
3426.708 21826668 21652876 21479954 21308322 21138668 20971376 20807000 
3430.083 20645672 20486838 20329900 20174166 20019076 19864530 19710348 
3433.458 19557192 19404818 19253328 19102652 18953138 18805714 18661768 
3436.833 18523330 18392264 18269326 18154092 18044692 17938080 17831080 
3440.208 17720794 17605740 17485748 17362066 17236832 17112462 16990402 
3443.584 16871684 16755339 16640160 16523499 16403187 16277438 16146086 
3446.959 16009893 15871853 15735365 15603869 15479966 15364714 15257145 
3450.334 15155128 15055570 14955143 14851379 14742738 14628675 14509572 
3453.709 14386905 14261945 14136507 14012508 13891214 13774262 13662538 
3457.085 13556211 13454763 13357371 13262187 13167365 13071334 12972662 
3460.460 12870497 12764876 12656380 12546376 12436674 12329045 12224713 
3463.835 12124734 12028764 11935879 11844887 11754630 11664425 11574273 
3467.210 11484480 11395692 11308044 11221298 11134570 11047247 10958888 
3470.586 10869561 10780389 10692288 10606276 10522793 10441295 10360728 
3473.961 10280211 10198724 10116336 10033490 9951270 9870591 9792231 9716833 
3477.818 9644023 9573461 9504806 9437145 9370138 9302937 9235308 9167349 
3481.676 9099639 9033157 8969357 8909186 8853217 8801176 8752218 8705126 
3485.533 8658647 8612105 8565196 8517887 8470279 8422170 8373255 8323535 
3489.391 8273314 8223673 8176503 8133152 8095241 8062903 8035967 8012340 
3493.248 7990605 7969411 7948084 7926723 7906037 7886737 7869563 7855156 
3497.105 7844259 7837478 7836297 7841391 7853267 7871554 7894295 7919096 
3500.963 7943257 7964586 7982472 7998334 8014399 8034616 8062362 8100237 
3504.820 8149762 8210538 8280744 8357784 8438386 8519847 8599566 8676866 
3508.678 8752218 8827415 8905196 8987726 9076767 9172189 9272810 9376435 
3512.535 9481269 9585892 9690031 9794231 9898962 10004194 10108739 10210325 
3516.393 10306403 10394901 10474727 10545810 10609332 10666446 10718167 
3519.768 10764969 10806341 10841398 10868779 10887024 10894668 10890557 
3523.143 10873536 10842756 10797780 10738850 10665868 10579352 10479107 
3526.518 10364970 10236411 10093410 9937133 9769118 9592125 9408837 9221701 
3530.376 9032785 8843173 8654083 8466090 8280135 8096625 7915654 7735771 
3534.233 7555120 7371511 7183532 6991089 6795736 6600740 6409765 6225261 
3538.091 6049033 5881005 5720360 5566219 5417634 5274802 5138018 5006842 
3541.948 4880898 4758375 4637293 4515708 4392485 4266954 4139653 4011519 
3545.805 3883290 3756168 3631556 3510553 3395095 3286010 3183928 3087310 
3549.663 2993850 2899876 2802153 2699019 2590242 2478427 2367373 2261344 
3553.520 2163399 2075098 1996001 1924341 1858616 1797226 1738505 1681556 
3557.378 1625280 1568013 1508559 1445423 1378208 1307347 1234438 1161408 
3561.235 1090649 1024153 963446 909321 861477 818651 777888 734904 684591 
3565.575 622769 546757 457424 359752 261572 170972 94276 33665 -12690 -49499 
3570.396 -82429 -116218 -153780 -195976 -241744 -289097 -335981 -380940 
3574.254 -422783 -461510 -497289 -530714 -562549 -594646 -628826 -666873 
3578.111 -710309 -759562 -813705 -871213 -928978 -984455 -1034867 -1078068 
3581.969 -1112275 -1136764 -1151239 -1157319 -1157584 -1157022 -1161252 
3585.344 -1176485 -1207810 -1257205 -1322715 -1398784 -1476557 -1546887 
3588.719 -1603308 -1642888 -1666456 -1678107 -1683322 -1687382 -1694808 
3592.094 -1708901 -1730815 -1760285 -1795461 -1832483 -1868412 -1899918 
3595.470 -1925221 -1944650 -1959493 -1972159 -1985451 -2001580 -2022061 
3598.845 -2047059 -2076046 -2107834 -2140312 -2171106 -2197579 -2217260 
3602.220 -2228402 -2230182 -2223127 -2208985 -2190722 -2172556 -2158841 
3605.595 -2153698 -2160654 -2181919 -2218084 -2267166 -2325405 -2386800 
3608.971 -2444397 -2492894 -2529296 -2553903 -2569845 -2581736 -2594911 
3612.346 -2612367 -2635190 -2660977 -2686399 -2707078 -2720414 -2726637 
3615.721 -2728020 -2728810 -2733420 -2745668 -2767794 -2799695 -2839133 
3619.096 -2881760 -2923066 -2958182 -2983587 -2997835 -3000929 -2994545 
3622.472 -2981448 -2964105 -2944524 -2923988 -2903121 -2882188 -2862965 
3625.847 -2848745 -2845223 -2859706 -2899204 -2966639 -3057227 -3157236 
3629.222 -3248113 -3311975 -3341206 -3337820 -3312436 -3278006 -3245285 
3632.597 -3221737 -3210094 -3208449 -3212692 -3218777 -3223907 -3227722 
3635.973 -3231406 -3237161 -3245745 -3256828 -3268700 -3279453 -3288299 
3639.348 -3295435 -3302538 -3311515 -3323911 -3339398 -3356364 -3371981 
3642.723 -3382864 -3387236 -3384047 -3374250 -3360276 -3345218 -3332625 
3646.098 -3325687 -3327397 -3339266 -3361822 -3394337 -3434543 -3479347 
3649.474 -3524934 -3567034 -3601079 -3623358 -3630981 -3623489 -3602623 
3652.849 -3572095 -3537982 -3507548 -3487334 -3483225 -3497195 -3526841 
3656.224 -3564997 -3602525 -3630718 -3645044 -3645340 -3634727 -3618396 
3659.599 -3600882 -3585568 -3574133 -3567100 -3564339 -3565555 -3571011 
3662.975 -3580508 -3593587 -3608439 -3622438 -3632558 -3636107 -3631441 
3666.350 -3619119 -3601407 -3582545 -3568283 -3564011 -3574297 -3600224 
3669.725 -3638308 -3680167 -3714794 -3734012 -3732665 -3713250 -3683025 
3673.100 -3653258 -3635449 -3640411 -3673234 -3730760 -3799642 -3862865 
3676.476 -3906212 -3924338 -3921711 -3906935 -3889202 -3874720 -3864868 
3679.851 -3857643 -3848612 -3834785 -3815046 -3791628 -3768273 -3748696 
3683.226 -3734603 -3725011 -3716864 -3707008 -3693538 -3677703 -3663214 
3686.601 -3656478 -3662589 -3684569 -3720346 -3763248 -3805127 -3838135 
3689.977 -3858497 -3866970 -3867167 -3863325 -3858398 -3854490 -3851436 
3693.352 -3849170 -3847594 -3846641 -3846871 -3848382 -3850024 -3849794 
3696.727 -3844966 -3833209 -3813667 -3787752 -3758747 -3732632 -3715155 
3700.102 -3711016 -3722613 -3748794 -3784664 -3822699 -3855903 -3877807 
3703.478 -3885459 -3878726 -3859745 -3831566 -3798065 -3762032 -3726160 
3706.853 -3692421 -3662392 -3637191 -3617969 -3605515 -3600783 -3604628 
3710.228 -3618100 -3641594 -3674713 -3715418 -3759700 -3801941 -3836099 
3713.603 -3857282 -3863292 -3854260 -3832847 -3803583 -3771361 -3740615 
3716.979 -3714433 -3694622 -3681218 -3673333 -3670770 -3673004 -3680758 
3720.354 -3693998 -3712231 -3733552 -3754674 -3772084 -3782923 -3786044 
3723.729 -3782201 -3774153 -3765350 -3758780 -3755824 -3755496 -3755496 
3727.104 -3751751 -3741239 -3722613 -3696889 -3667419 -3639655 -3619217 
3730.479 -3611266 -3618100 -3638735 -3668503 -3699978 -3726259 -3743703 
3733.855 -3753262 -3759142 -3767222 -3782004 -3803945 -3829267 -3851633 
3737.230 -3865229 -3867134 -3857643 -3838956 -3813437 -3782595 -3746232 
3740.605 -3704215 -3658088 -3612185 -3575677 -3561086 -3580639 -3641101 
3743.980 -3736476 -3846411 -3940920 -3996374 -4004483 -3972933 -3918034 
3747.356 -3857774 -3807755 -3777569 -3770244 -3782365 -3806868 -3835770 
3750.731 -3863784 -3889498 -3912583 -3931923 -3944302 -3945221 -3931266 
3754.106 -3902370 -3861485 -3814849 -3768536 -3728854 -3699452 -3681481 
3757.481 -3674056 -3675173 -3683222 -3696626 -3713940 -3732665 -3748827 
3760.857 -3758485 -3757926 -3746232 -3725438 -3700437 -3677078 -3659928 
3764.232 -3651648 -3651418 -3655558 -3659632 -3660191 -3656544 -3651418 
3767.607 -3648592 -3651418 -3661768 -3678425 -3697349 -3713513 -3722711 
3770.982 -3722974 -3715517 -3702639 -3688117 -3674877 -3664955 -3658482 
3774.358 -3654441 -3651057 -3646424 -3639491 -3631014 -3622898 -3618396 
3777.733 -3620663 -3631901 -3651812 -3677637 -3703624 -3723828 -3734012 
3781.108 -3732566 -3721627 -3705168 -3688019 -3674286 -3665973 -3663214 
3784.483 -3664133 -3666926 -3670245 -3673891 -3678721 -3685851 -3695641 
3787.859 -3707566 -3719952 -3730727 -3737790 -3739662 -3735753 -3725996 
3791.234 -3711049 -3691567 -3669423 -3647048 -3627695 -3615504 -3614223 
3794.609 -3625855 -3649775 -3682631 -3717126 -3744721 -3758189 -3752736 
3797.984 -3729183 -3692224 -3650169 -3613829 -3592995 -3594967 -3621123 
3801.360 -3665218 -3714203 -3752835 -3771197 -3765580 -3740976 -3706482 
3804.735 -3673990 -3653817 -3652338 -3669686 -3699419 -3730300 -3750371 
3808.110 -3752539 -3736049 -3705628 -3667879 -3629174 -3593127 -3560790 
3811.485 -3530883 -3502486 -3475468 -3452327 -3437896 -3436910 -3453872 
3814.861 -3488944 -3537358 -3587935 -3628352 -3648165 -3643039 -3615570 
3818.236 -3573738 -3528583 -3491771 -3473890 -3482535 -3518328 -3574757 
3821.611 -3637815 -3693144 -3729183 -3741863 -3734209 -3713513 -3688479 
3824.986 -3666203 -3651090 -3643401 -3640148 -3636008 -3626545 -3609754 
3828.362 -3586554 -3560429 -3535682 -3516981 -3506496 -3504951 -3511130 
3831.737 -3522075 -3534696 -3545180 -3550734 -3549090 -3539067 -3521385 
3835.112 -3498739 -3476158 -3459394 -3454530 -3465377 -3491147 -3527104 
3838.487 -3565095 -3597201 -3617772 -3625723 -3622701 -3613467 -3603083 
3841.863 -3595197 -3592469 -3595492 -3603083 -3613106 -3622963 -3629437 
3845.238 -3629535 -3621025 -3602722 -3574330 -3537325 -3493875 -3446607 
3848.613 -3398020 -3350216 -3305398 -3265905 -3235813 -3221342 -3230123 
3851.988 -3270213 -3345382 -3450815 -3569860 -3679280 -3758485 -3796620 
3855.364 -3796193 -3766434 -3719886 -3666598 -3614748 -3569039 -3531869 
3858.739 -3503998 -3485230 -3475008 -3471787 -3473627 -3477835 -3481911 
3862.114 -3484376 -3485460 -3487498 -3493546 -3505937 -3523620 -3542846 
3865.489 -3556978 -3559278 -3546757 -3521188 -3489109 -3460348 -3444964 
3868.865 -3450683 -3478459 -3521615 -3567396 -3603313 -3621419 -3620926 
3872.240 -3607191 -3588362 -3572194 -3563255 -3562105 -3565391 -3567494 
3875.615 -3563813 -3551687 -3531771 -3507745 -3483916 -3465574 -3456896 
3878.990 -3460348 -3475731 -3500120 -3528024 -3552673 -3567856 -3570288 
3882.365 -3560001 -3540743 -3518263 -3499988 -3492133 -3497885 -3515272 
3885.741 -3537884 -3556058 -3561086 -3549025 -3521286 -3484113 -3446312 
3889.116 -3416430 -3401406 -3404397 -3423136 -3451538 -3481122 -3503735 
3892.491 -3514154 -3511492 -3497687 -3476619 -3451998 -3426752 -3402951 
3895.866 -3382009 -3365011 -3353635 -3349492 -3353602 -3366063 -3384968 
3899.242 -3406962 -3426949 -3441315 -3447758 -3446509 -3440723 -3435233 
3902.617 -3434050 -3440033 -3452952 -3470406 -3487696 -3501007 -3507581 
3905.992 -3507384 -3501829 -3493218 -3483686 -3474186 -3464555 -3453313 
3909.367 -3438915 -3420572 -3398447 -3373921 -3349032 -3326048 -3306648 
3912.743 -3291686 -3281032 -3274816 -3272153 -3273139 -3277546 -3285570 
3916.118 -3296783 -3310627 -3326246 -3342193 -3357548 -3371422 -3382305 
3919.493 -3389209 -3390326 -3384507 -3371422 -3352320 -3330027 -3308687 
3922.868 -3293133 -3286688 -3290864 -3304116 -3322136 -3339530 -3351235 
3926.244 -3354260 -3348802 -3337754 -3324865 -3314639 -3310068 -3311811 
3929.619 -3318815 -3327956 -3336274 -3340549 -3339102 -3331244 -3317828 
3932.994 -3301091 -3283465 -3268009 -3257321 -3252882 -3255151 -3263405 
3936.369 -3274718 -3285767 -3292969 -3293528 -3286589 -3273139 -3256368 
3939.745 -3240812 -3230419 -3228281 -3235353 -3250875 -3271396 -3292804 
3943.120 -3310956 -3322300 -3325325 -3320393 -3308983 -3293791 -3277546 
3946.495 -3262649 -3250744 -3242095 -3236504 -3233313 -3231505 -3230419 
3949.870 -3229860 -3229762 -3230748 -3231965 -3233708 -3235155 -3236043 
3953.246 -3236306 -3236438 -3237260 -3239628 -3243279 -3248146 -3252619 
3956.621 -3255348 -3254625 -3250053 -3241798 -3231307 -3220881 -3212396 
3959.996 -3207759 -3207627 -3211936 -3219500 -3228676 -3237720 -3244758 
3963.371 -3248508 -3248508 -3244561 -3237063 -3227393 -3216507 -3205456 
3966.747 -3194668 -3184439 -3173946 -3163256 -3151710 -3139374 -3126710 
3970.122 -3114801 -3104603 -3097200 -3092957 -3092134 -3094141 -3098451 
3973.497 -3104208 -3110623 -3116841 -3121940 -3125032 -3125328 -3122400 
3976.872 -3116281 -3107432 -3096345 -3083909 -3071243 -3058707 -3047093 
3980.248 -3036959 -3028207 -3021066 -3015999 -3013005 -3012610 -3014551 
3983.623 -3018961 -3025541 -3033833 -3043079 -3052325 -3060649 -3067196 
3986.998 -3071111 -3072625 -3072295 -3070979 -3069828 -3069696 -3071210 
3990.373 -3074335 -3078514 -3082659 -3086640 -3089601 -3091871 -3093516 
3993.749 -3094602 -3095457 -3095884 -3095819 -3095325 -3094075 -3092364 
3997.124 -3090226 -3087693 -3085028 -3081935 -3078974 -3076244 -3074335 
4000.499 -3074138 
##END=
