##TITLE=1153_2_b
##JCAMP-DX=5.01  $$ Nicolet v. 1
##DATATYPE=INFRARED SPECTRUM
##ORIGIN=UniL
##OWNER=Nicolet
##LONGDATE=2011/09/29
##TIME=11:02:33
##SPECTROMETER/DATA SYSTEM=Nicolet iS5
##DATA PROCESSING=
Ratio against background
%Transmittance->Absorbance
Truncated
ElementMultiply or ElementDivide
##COMMENTS=
Number of sample scans: 32
Collection length: 51.20 sec
Sample gain: 2.0
Background collected on: Jeu Sep 29 10:35:30 2011 (GMT+02:00);
Number of background scans: 32
Background gain: 2.0
Sample spacing:  1.000
Number of scan points: 12415
Resolution points: 8192
Number of FFT points: 65536
Apodization: N-B fort;
Phase correction: Mertz;
Laser frequency: 15798.0 cm-1
Number of rejected sample scans: 0
Number of rejected background scans: 0
Bench serial number: ASB1000141;
##RESOLUTION=4.000
##XUNITS=1/CM
##YUNITS=ABSORBANCE
##FIRSTX=649.893372
##LASTX=4000.122314
##FIRSTY=0.090102
##MAXX=4000.122314
##MINX=649.893372
##MAXY=0.245221
##MINY=-0.002165
##XFACTOR=1.000000
##YFACTOR=1.000000E-009
##NPOINTS=6950
##DELTAX=0.482117
##ZPD=6100
##XYDATA=(X++(Y..Y))
649.893 90102336 89491568 88945216 88470720 88054632 87671872 87300032 
653.268 86932584 86580336 86271376 86032952 85883280 85824048 85841896 
656.643 85914896 86021720 86148648 86285880 86424856 86554784 86661272 
660.018 86732232 86763912 86763952 86752304 86753960 86794504 86893080 
663.393 87061208 87304688 87626024 88025864 88498584 89024648 89559168 
666.767 90020752 90310128 90347904 90127784 89725872 89261664 88831784 
670.142 88476608 88192512 87950760 87720088 87481592 87236352 86998776 
673.517 86786976 86606104 86442168 86263496 86035296 85734184 85357896 
676.892 84926624 84472064 84025496 83604656 83210464 82831632 82454528 
680.267 82068976 81672136 81267152 80856440 80439096 80011160 79568400 
683.642 79112016 78649360 78192592 77752000 77331088 76923800 76518120 
687.016 76103504 75677288 75248336 74835240 74460096 74138136 73874112 
690.391 73660688 73484104 73331152 73195056 73077816 72988512 72938456 
693.766 72935400 72982792 73079576 73222656 73409736 73640152 73913424 
697.141 74227672 74578344 74958984 75363760 75790456 76241664 76723704 
700.516 77241544 77795000 78375312 78967336 79552920 80116256 80649416 
703.890 81151632 81627032 82078832 82505880 82902160 83260264 83575448 
707.265 83849872 84092688 84317696 84538072 84763352 84999832 85253016 
710.640 85531760 85851704 86232096 86690688 87236272 87860456 88536368 
714.015 89218696 89856824 90400896 90812088 91069744 91171136 91131200 
717.390 90977440 90751520 90506592 90300376 90198240 90259744 90526424 
720.765 91014040 91699224 92518424 93364600 94108480 94620448 94785528 
724.139 94540656 93883848 92882464 91653880 90345496 89104656 88037232 
727.514 87202488 86606752 86218480 85985288 85855256 85792560 85776368 
730.889 85798856 85856832 85944544 86051976 86168576 86286976 86405944 
734.264 86530632 86667912 86820688 86986136 87155584 87319960 87473656 
737.639 87617552 87757272 87898992 88044328 88188864 88323984 88442608 
741.013 88544168 88637256 88737224 88858168 89007888 89183952 89374808 
744.388 89566008 89747304 89916280 90078608 90242368 90412080 90584792 
747.763 90751440 90900672 91025040 91125648 91210824 91291816 91376736 
751.138 91466720 91556672 91639232 91709984 91770928 91829744 91896064 
754.513 91975832 92069608 92173048 92281136 92393344 92514608 92653664 
757.888 92817624 93007384 93215176 93428488 93634592 93828320 94014496 
761.262 94206176 94417584 94658272 94929432 95224824 95537288 95865112 
764.637 96217192 96614888 97086568 97660320 98359392 99193264 100153824 
768.012 101209160 102302872 103358528 104282648 104994072 105445712 
770.905 105652232 105699352 105733808 105932120 106429152 107272616 
773.797 108377816 109541560 110465824 110836800 110432112 109161336 
776.690 107104120 104464416 101523536 98549888 95730840 93165816 90856808 
780.065 88744464 86741376 84771928 82790568 80783688 78764616 76762888 
783.440 74814776 72954016 71210608 69610048 68169432 66899240 65801980 
786.815 64874576 64111144 63508072 63066372 62794356 62704584 62809980 
790.189 63122040 63648536 64394476 65367492 66580208 68050744 69800592 
793.564 71846064 74188368 76803296 79638048 82606504 85587680 88445168 
796.939 91026672 93180600 94787592 95771160 96125736 95921464 95307296 
800.314 94487480 93671088 93054392 92762696 92821848 93145696 93545272 
803.689 93773552 93555424 92674296 91020504 88618760 85625896 82290824 
807.063 78902960 75697792 72824696 70318776 68112944 66073448 64049624 
810.438 61930932 59663676 57262928 54791208 52336800 49982796 47786532 
813.813 45780980 43974496 42361092 40929188 39667244 38564568 37609868 
817.188 36790784 36093628 35505120 35015236 34617756 34309592 34089012 
820.563 33953024 33896416 33912936 33996844 34145716 34362196 34653032 
823.938 35027376 35493796 36058308 36721152 37476276 38307796 39189980 
827.312 40086784 40949760 41727160 42370772 42845148 43140696 43277908 
830.687 43310928 43314260 43377820 43593972 44036280 44754356 45758744 
834.062 47013316 48426744 49853672 51119624 52023244 52383000 52077888 
837.437 51064948 49399980 47219280 44723872 42125324 39610000 37325536 
840.812 35354704 33725180 32422912 31409826 30637468 30057156 29628248 
844.186 29315310 29088362 28925912 28811994 28738672 28704230 28710352 
847.561 28758108 28845596 28967316 29115924 29286314 29477088 29691858 
850.936 29937048 30218466 30537816 30892088 31274386 31677444 32096644 
854.311 32531924 32987054 33468500 33983296 34538032 35140136 35799348 
857.686 36528108 37342688 38261804 39303824 40487776 41833244 43360320 
861.060 45091416 47046180 49232800 51637100 54210428 56864164 59462480 
864.435 61846528 63849880 65318620 66150384 66302472 65805644 64754100 
867.810 63299568 61629580 59927684 58370976 57103388 56220492 55779052 
871.185 55793256 56242780 57076672 58220080 59581688 61045688 62485024 
874.560 63769400 64765484 65365760 65498428 65137416 64307748 63079284 
877.935 61557224 59855156 58087836 56355296 54726332 53243740 51921324 
881.309 50752196 49716852 48792804 47963476 47221164 46568708 46015128 
884.684 45572200 45247892 45044040 44955948 44975900 45097592 45319824 
888.059 45648272 46093160 46665428 47370760 48205324 49155280 50201000 
891.434 51320272 52495088 53715716 54980772 56295580 57667960 59104856 
894.809 60608392 62172276 63777036 65385400 66941252 68360736 69544088 
898.183 70386168 70784800 70669456 70011032 68830912 67196032 65211296 
901.558 63007868 60714500 58455352 56336584 54432564 52794656 51448720 
904.933 50399772 49639472 49150532 48914016 48910568 49125148 49547356 
908.308 50170352 50989860 52002888 53206628 54598304 56174708 57930340 
911.683 59855688 61932232 64128272 66401340 68697776 70959744 73140624 
915.058 75209528 77162144 79020832 80833528 82665424 84582632 86645584 
918.432 88889800 91313360 93864024 96435176 98876944 100995376 102598776 
921.807 103532048 103707656 103144568 101976448 100453992 98890096 97636752 
925.182 97038264 97352000 98736640 101210240 104650400 108788808 113237184 
928.557 117563048 121290536 123987288 125330208 125103768 123237920 
931.450 119792920 114945312 108955528 102134576 94841048 87421176 80191136 
934.824 73430928 67339360 62047344 57622252 54073656 51375952 49483372 
938.199 48345404 47906276 48099968 48846012 50025292 51477816 53018580 
941.574 54432640 55516348 56113512 56124484 55532464 54396620 52842140 
944.949 51026600 49111316 47246284 45538492 44053512 42818784 41829304 
948.324 41061372 40481264 40056624 39757284 39557624 39437328 39377896 
951.698 39362988 39379132 39415120 39464540 39524672 39596896 39684236 
955.073 39790364 39918464 40070724 40248408 40452752 40685172 40945864 
958.448 41234292 41547848 41882096 42231764 42592676 42962556 43342012 
961.823 43733636 44141020 44566264 45009380 45468548 45940944 46424400 
965.198 46918584 47424308 47943756 48478496 49028880 49594600 50175112 
968.573 50770740 51383600 52016856 52673632 53356460 54066600 54804212 
971.947 55570196 56367144 57199156 58072084 58991700 59961084 60981932 
975.322 62053768 63175732 64348436 65574832 66859008 68205632 69618448 
978.697 71099360 72650128 74273200 75973440 77758616 79638120 81620160 
982.072 83710384 85910008 88214928 90615032 93094008 95623416 98157480 
985.447 100633880 102964568 105042936 106761952 108016152 108725176 
988.339 108848144 108385040 107381048 105916944 104109368 102091112 99997912 
991.714 97967152 96112672 94521792 93254688 92338632 91776816 91554456 
995.089 91648440 92032224 92680120 93569688 94678920 95985192 97466904 
998.464 99101472 100867664 102746392 104716304 106749704 108809792 110842616 
1001.839 112781752 114556064 116092576 117334600 118248288 118827224 
1004.731 119094992 119102272 118926776 118658504 118398664 118251112 
1007.624 118303624 118628720 119275440 120266304 121603408 123273608 
1010.517 125256848 127529888 130069584 132854776 135860720 139061792 
1013.409 142433136 145950528 149595072 153351168 157197424 161098176 
1016.302 164991712 168778592 172334608 175516816 178184512 180235136 
1019.195 181618176 182354320 182532512 182312816 181909456 181549648 
1022.087 181475136 181899696 182978752 184812064 187426080 190784400 
1024.980 194794928 199333536 204264112 209436816 214708656 219938208 
1027.873 224974992 229676096 233905008 237542032 240505600 242750864 
1030.766 244270080 245081792 245221376 244733984 243667376 242078800 
1033.659 240031536 237586416 234798704 231705280 228320176 224639456 
1036.552 220652080 216354000 211759744 206906112 201849696 196663536 
1039.446 191424640 186211920 181108144 176187312 171516416 167143616 
1042.339 163084608 159317904 155781088 152387520 149035664 145636176 
1045.232 142135792 138524640 134842000 131162304 127589408 124233248 
1048.125 121191720 118551000 116369536 114677640 113480184 112757824 
1051.018 112472384 112570656 112996432 113692928 114606064 115690096 
1053.911 116900256 118187088 119497104 120763568 121909824 122861216 
1056.804 123544224 123898784 123886480 123489488 122715880 121598544 
1059.697 120198744 118601896 116909232 115239128 113705536 112409672 
1062.590 111438608 110850824 110680560 110938808 111614488 112676472 
1065.483 114070424 115725608 117548624 119428400 121254968 122917504 
1068.376 124322128 125403432 126119208 126452016 126402184 125982168 
1071.269 125212032 124115672 122723352 121067744 119183272 117109864 
1074.162 114889968 112572592 110219848 107900976 105694664 103685528 
1077.055 101947656 100545112 99523392 98903824 98686312 98847528 99346472 
1080.431 100118528 101078168 102127824 103150960 104032016 104675520 
1083.324 105014416 105031336 104762096 104296168 103757560 103288200 
1086.217 103038616 103136712 103683760 104746152 106344960 108455688 
1089.110 111002592 113872048 116907808 119926408 122751536 125214192 
1092.003 127180848 128569544 129343344 129512264 129120392 128241032 
1094.896 126961800 125372664 123567040 121627384 119623344 117615296 
1097.789 115648672 113756392 111959824 110264352 108657472 107105952 
1100.682 105561976 103964616 102251752 100378376 98322616 96097080 93745672 
1104.057 91341696 88974256 86730616 84695128 82934600 81494384 80402888 
1107.433 79669808 79290744 79249984 79523904 80083232 80891528 81910864 
1110.808 83098352 84404328 85775680 87149800 88455080 89620088 90572096 
1114.183 91247288 91600896 91606784 91261232 90579400 89593736 88348624 
1117.558 86893488 85284224 83574528 81810688 80033072 78269792 76538512 
1120.934 74850440 73212664 71631800 70116624 68677008 67322264 66059256 
1124.309 64890116 63813076 62824340 61922260 61109988 60398108 59803476 
1127.684 59347708 59052924 58935720 59005328 59259480 59684360 60252604 
1131.059 60926192 61659176 62396228 63083036 63671136 64123280 64423448 
1134.435 64578668 64619920 64593972 64558908 64574556 64688252 64933552 
1137.810 65321928 65842004 66459604 67121008 67763008 68312728 68700832 
1141.185 68870832 68778704 68399832 67727536 66770120 65547860 64090288 
1144.560 62436508 60630068 58719080 56755252 54785568 52853852 50997684 
1147.936 49244600 47615232 46123408 44776800 43578840 42529744 41626756 
1151.311 40864316 40234376 39728092 39336400 39051768 38869640 38787972 
1154.686 38806740 38926104 39144908 39460076 39866484 40357516 40927004 
1158.061 41569104 42278944 43052400 43885224 44773236 45712136 46697564 
1161.437 47724096 48784908 49868460 50957408 52028696 53052088 53993540 
1164.812 54819440 55495792 55993856 56290796 56369368 56221168 55846984 
1168.187 55257300 54471776 53517032 52425508 51228924 49958748 48643868 
1171.562 47308720 45975788 44665880 43397188 42187540 41053176 40007248 
1174.938 39061156 38223196 37499028 36892636 36406516 36042468 35801828 
1178.313 35685448 35693968 35828564 36090892 36484460 37014432 37686724 
1181.688 38507972 39483628 40617680 41912568 43369472 44987476 46762248 
1185.063 48682564 50727916 52862872 55036852 57188992 59245312 61130240 
1188.438 62774836 64115292 65104276 65713116 65932812 65776840 65278872 
1191.814 64492904 63482104 62316208 61066892 59795792 58557072 57394016 
1195.189 56334700 55396256 54583952 53892920 53309820 52814900 52385696 
1198.564 51995416 51616572 51222548 50784744 50276212 49672976 48955220 
1201.939 48111960 47144596 46068508 44910896 43708536 42504016 41335188 
1205.315 40234596 39225336 38318872 37517924 36818916 36214588 35696452 
1208.690 35255836 34884808 34576344 34324364 34125464 33978424 33885384 
1212.065 33850604 33879724 33978068 34149300 34395048 34715260 35108340 
1215.440 35571360 36100576 36689888 37330372 38011724 38721568 39448032 
1218.816 40181964 40916736 41648632 42376288 43098908 43816864 44531864 
1222.191 45248884 45976856 46728480 47520300 48369444 49291104 50297232 
1225.566 51393928 52581432 53853088 55195068 56585936 57994180 59382924 
1228.941 60709548 61929172 63003620 63901164 64601660 65098308 65398344 
1232.317 65525092 65515192 65424272 65321856 65283500 65393568 65731696 
1235.692 66365472 67352984 68735424 70539328 72779560 75460216 78574472 
1239.067 82101088 86004720 90230256 94700552 99327776 104008320 108629088 
1242.442 113080944 117248864 121020760 124299104 126997560 129055008 
1245.335 130440248 131150024 131206544 130649728 129536200 127931448 
1248.229 125906616 123539424 120900152 118044616 115007408 111795160 
1251.122 108391512 104766192 100893960 96767184 92409784 87876440 83254088 
1254.497 78650512 74172096 69924224 65992208 62430584 59266884 56497884 
1257.872 54094896 52008788 50178460 48539700 47025872 45580404 44159396 
1261.247 42731980 41284572 39817312 38341600 36875144 35438896 34053820 
1264.623 32737170 31502624 30359582 29312508 28361888 27504022 26732618 
1267.998 26039024 25414722 24853026 24349528 23902376 23511678 23177634 
1271.373 22899238 22674744 22501486 22377412 22302310 22277372 22304822 
1274.748 22386414 22521796 22707806 22937486 23200002 23481284 23762958 
1278.124 24022892 24238798 24388358 24454220 24428174 24311750 24116506 
1281.499 23858966 23558620 23231496 22887992 22533730 22171460 21804126 
1284.874 21438458 21084788 20756600 20468638 20233386 20060612 19957320 
1288.249 19928458 19978102 20109924 20326290 20627328 21009594 21466448 
1291.625 21987596 22560428 23169876 23797222 24419412 25010308 25540088 
1295.000 25981472 26315358 26534028 26644534 26667574 26634808 26580382 
1298.375 26538044 26537340 26599652 26740160 26966766 27279676 27669822 
1301.750 28117832 28595782 29066748 29491698 29836244 30072248 30183480 
1305.125 30166110 30027082 29781946 29451486 29061648 28639136 28209612 
1308.501 27797430 27420720 27091380 26815012 26591936 26419714 26296278 
1311.876 26221092 26195400 26220248 26295504 26417638 26580630 26778500 
1315.251 27006044 27261364 27545430 27860702 28208974 28590970 29005428 
1318.626 29450564 29925760 30431186 30967302 31532656 32120690 32719020 
1322.002 33309412 33868512 34373204 34801944 35139164 35378320 35524788 
1325.377 35597140 35624804 35649728 35718108 35871604 36143280 36547496 
1328.752 37077328 37705552 38391840 39092768 39767924 40391040 40950672 
1332.127 41449596 41901472 42326392 42747884 43187760 43665596 44196628 
1335.503 44788992 45442832 46149016 46892268 47650728 48401296 49122852 
1338.878 49796776 50408632 50948464 51410228 51791956 52095784 52326820 
1342.253 52491720 52596728 52645724 52638580 52572156 52440988 52240152 
1345.628 51967932 51626160 51219864 50755212 50236376 49663912 49034148 
1349.004 48341664 47582996 46760696 45887472 44985196 44087436 43233472 
1352.379 42463496 41818760 41334312 41036644 40942732 41055324 41360332 
1355.754 41824924 42402628 43035424 43660284 44222568 44676092 44988688 
1359.129 45144872 45143768 44999420 44738708 44403940 44050360 43738472 
1362.505 43532360 43483756 43621080 43945972 44432168 45034296 45691596 
1365.880 46340080 46916480 47359008 47618416 47660788 47472984 47064236 
1369.255 46463596 45713460 44857140 43937320 42990792 42046440 41133376 
1372.630 40282544 39527540 38906132 38451640 38183760 38104388 38196424 
1376.006 38432344 38781232 39220480 39739384 40338932 41030924 41834412 
1379.381 42775636 43884088 45191820 46726564 48498280 50484212 52611652 
1382.756 54762680 56768844 58435980 59583248 60046984 59717508 58561052 
1386.131 56641912 54131040 51277092 48377852 45689792 43382176 41529360 
1389.507 40118580 39087620 38351844 37831264 37455108 37163224 36908868 
1392.882 36652716 36364256 36026196 35635952 35205632 34755284 34305680 
1396.257 33869764 33449996 33042290 32641928 32250180 31878504 31546910 
1399.632 31277910 31090510 30992994 30983316 31051394 31184732 31371712 
1403.008 31603422 31875938 32188554 32541602 32935042 33365656 33827500 
1406.383 34313500 34817384 35336228 35871100 36425904 37005376 37611960 
1409.758 38244216 38896816 39562488 40234160 40907636 41581828 42257656 
1413.133 42936584 43619576 44307060 45000008 45701204 46415296 47147660 
1416.509 47903020 48683080 49486828 50310400 51149036 51996164 52844536 
1419.884 53682124 54490184 55244396 55918888 56493092 56956448 57317404 
1423.259 57604924 57868744 58164772 58540728 59025708 59624528 60326036 
1426.634 61113536 61975068 62902844 63890300 64927472 65995992 67071432 
1430.010 68132912 69169136 70185048 71198120 72232768 73310528 74445272 
1433.385 75642544 76906040 78244328 79674584 81224376 82923624 84795616 
1436.760 86838448 89026640 91321008 93676152 96046280 98375392 100595872 
1440.135 102612040 104304888 105557840 106258112 106322528 105708104 
1443.028 104408792 102456752 99915288 96883552 93482808 89840360 86093424 
1446.404 82368400 78781584 75446888 72458600 69881576 67737448 66002356 
1449.779 64620456 63526860 62675492 62048108 61655700 61521260 61660396 
1453.154 62061752 62685288 63459368 64293452 65095620 65772988 66261096 
1456.529 66546760 66685432 66778548 66925020 67192824 67603160 68149696 
1459.905 68815776 69584336 70438736 71356752 72310400 73256072 74133536 
1463.280 74876856 75421464 75726904 75793464 75665496 75414376 75107496 
1466.655 74795840 74502896 74230544 73967368 73691424 73369528 72948608 
1470.030 72356000 71503648 70305248 68717720 66778740 64627656 62462332 
1473.406 60476024 58794456 57454296 56432792 55685628 55178252 54896248 
1476.781 54840264 55010860 55396328 55967772 56687140 57513416 58416496 
1480.156 59383836 60419204 61540308 62769860 64130924 65642504 67322920 
1483.531 69196064 71293688 73654168 76312520 79285104 82548320 86017640 
1486.906 89551304 92935808 95903120 98173920 99469528 99576152 98404064 
1490.282 96018384 92640248 88576712 84156552 79639040 75180136 70860424 
1493.657 66695476 62678976 58824580 55176480 51817896 48856280 46385872 
1497.032 44459292 43074684 42192256 41751200 41691308 41963696 42526232 
1500.407 43339776 44366252 45562488 46881008 48274936 49684196 51036180 
1503.783 52240192 53161648 53627496 53437656 52411416 50486668 47794996 
1507.158 44643188 41367404 38203908 35247172 32490964 29896084 27433532 
1510.533 25096624 22907376 20900862 19104176 17532388 16180443 15029123 
1513.908 14052274 13222664 12513739 11898452 11351645 10855054 10400840 
1517.284 9995413 9653407 9388082 9201023 9077241 8985425 8889807 8762226 
1521.141 8599025 8425616 8284121 8208411 8206384 8261494 8343328 8423791 
1524.999 8485078 8526166 8559654 8603081 8667672 8753131 8850072 8948116 
1528.856 9043747 9142782 9256124 9394108 9558320 9739095 9918318 10075606 
1532.713 10199673 10295546 10384924 10493226 10638363 10821695 11031205 
1536.089 11249452 11460972 11657346 11835524 11997016 12142622 12269871 
1539.464 12373736 12451984 12514217 12579597 12668900 12794051 12951190 
1542.839 13122523 13284461 13418845 13519431 13596619 13671155 13765916 
1546.214 13894497 14056997 14241777 14433146 14619285 14795838 14967420 
1549.590 15143668 15333066 15536762 15748834 15958810 16158123 16344937 
1552.965 16524980 16709574 16910920 17136726 17385860 17650910 17919744 
1556.340 18180038 18418814 18620608 18769074 18851666 18871944 18855784 
1559.715 18845888 18878660 18967120 19105250 19274006 19450278 19610364 
1563.091 19736076 19817706 19856448 19864390 19858806 19855684 19861234 
1566.466 19871048 19871430 19847290 19786460 19686250 19554730 19410534 
1569.841 19276326 19170902 19105526 19082952 19100126 19150332 19223438 
1573.216 19305910 19378070 19417014 19401768 19320180 19180148 19011014 
1576.592 18855266 18746690 18699228 18705732 18747764 18805714 18865266 
1579.967 18920464 18972208 19024860 19082260 19146004 19214260 19283496 
1583.342 19349660 19409288 19457796 19488154 19489956 19451594 19362618 
1586.717 19219144 19026936 18802982 18572468 18364094 18206194 18120166 
1590.093 18119648 18211170 18394132 18659692 18988512 19351602 19706326 
1593.468 20002388 20192492 20236196 20111624 19819822 19383856 18842980 
1596.843 18240748 17621544 17020450 16463373 15970943 15557985 15235800 
1600.218 15011596 14886352 14855973 14911899 15045211 15247948 15513720 
1603.594 15836421 16206890 16610485 17027962 17434182 17801806 18105002 
1606.969 18319264 18425242 18410032 18266906 17996580 17606360 17112324 
1610.344 16538402 15915329 15280037 14666304 14099711 13593577 13146907 
1613.719 12747985 12378441 12020997 11662384 11299100 10940199 10605155 
1617.094 10317363 10095106 9945744 9865066 9841069 9856490 9892691 9932930 
1620.952 9963238 9976629 9975273 9970052 9976460 10008398 10072961 10167686 
1624.809 10284213 10412752 10546625 10682678 10820132 10958072 11094356 
1628.185 11225209 11346986 11458931 11564337 11668543 11777338 11893071 
1631.560 12013366 12130287 12232654 12307706 12343089 12329726 12264248 
1634.935 12152129 12008496 11854490 11712828 11598162 11514761 11457944 
1638.310 11417632 11380556 11333585 11267815 11179512 11072602 10956577 
1641.686 10843402 10742518 10656836 10582068 10507450 10419879 10305792 
1645.061 10156392 9971001 9758580 9536677 9328158 9154828 9031601 8965028 
1648.918 8953223 8987861 9054877 9132901 9194524 9202850 9119670 8922783 
1652.776 8631269 8312964 8046970 7880698 7812074 7809814 7837713 7868517 
1656.633 7886839 7886906 7869866 7840210 7801987 7756684 7702920 7636955 
1660.490 7555592 7456378 7339731 7208326 7068305 6927892 6796813 6684078 
1664.348 6595929 6534404 6496161 6473156 6454088 6424797 6372105 6287113 
1668.205 6167519 6018896 5854507 5690918 5542055 5417466 5320484 5249514 
1672.063 5199447 5162059 5126317 5078912 5006674 4901808 4767118 4618137 
1675.920 4476906 4362998 4284756 4237877 4209304 4184379 4152665 4111387 
1679.778 4066233 4027337 4003828 3997340 3999012 3989783 3946915 3851564 
1683.635 3701293 3517768 3339631 3202320 3120181 3086176 3082271 3090647 
1687.492 3097488 3094985 3080469 3053941 3017238 2973532 2927796 2886800 
1691.350 2857949 2847777 2858516 2886600 2921724 2948778 2951714 2919389 
1695.207 2853146 2769840 2695251 2649311 2637476 2648911 2663079 2654378 
1699.065 2601042 2494222 2346319 2190506 2062380 1983819 1953896 1957857 
1702.922 1976396 1992806 1995036 1976429 1936922 1882276 1822446 1767681 
1706.780 1724800 1696392 1680658 1673307 1669050 1664759 1659071 1653750 
1710.637 1652220 1657974 1673074 1697522 1728592 1762591 1796361 1827470 
1714.494 1854822 1877251 1892259 1894589 1878515 1840248 1781954 1713656 
1718.352 1650557 1606123 1587699 1594417 1619360 1653583 1688541 1718878 
1722.209 1743163 1762957 1781355 1801617 1825441 1852626 1882509 1914224 
1726.067 1947173 1980690 2013244 2041873 2063079 2075031 2077961 2076363 
1729.924 2076796 2084919 2102399 2123741 2135395 2118014 2053125 1930531 
1733.781 1759364 1568478 1396323 1271622 1202241 1179083 1183701 1197855 
1737.639 1205863 1197722 1170345 1127057 1076300 1028305 992171 972179 
1741.496 968659 978522 997153 1019172 1040328 1058795 1074938 1091712 
1745.354 1112706 1141176 1177987 1220981 1265175 1304522 1332838 1346000 
1749.211 1341912 1320541 1283619 1234637 1178917 1123569 1076233 1042587 
1753.069 1025714 1024054 1031294 1038003 1033951 1010802 965870 903908 
1756.926 835582 773705 727503 699326 684458 674503 659536 632060 589589 
1761.266 534548 473213 413444 361974 323110 298275 287300 288560 299369 
1765.605 315451 331500 342243 344067 336838 324536 313395 308189 310444 
1769.945 316247 318037 306763 277122 229944 174088 122613 86389 70382 73000 
1774.767 88476 110781 136036 163149 192485 224342 257527 288428 313063 
1779.106 328449 334583 334617 334152 337700 347317 360913 373846 381639 
1783.446 381706 374576 363997 354844 351031 354015 362571 374277 387576 
1787.785 401803 417557 435102 453510 469398 477923 473975 454140 418983 
1792.125 373382 323972 278116 240122 211115 190264 175712 166000 159934 
1796.465 156652 154133 149659 140477 124568 101733 73895 44600 17992 -2948 
1801.286 -16864 -24584 -26970 -25313 -20642 -12888 -2418 9608 21935 33102 
1806.108 42247 49869 57623 66637 78037 90995 103788 114261 120856 123839 
1810.930 125165 127319 132191 140444 151084 162320 172728 182109 191291 
1815.270 202131 216319 234718 257096 282625 310079 338695 368242 398122 
1819.609 427772 456462 483230 507910 531065 553459 575787 597386 616000 
1823.949 628742 634051 632293 627481 625291 631264 647623 672545 699957 
1828.288 722027 732349 728897 715688 701185 694979 703674 728167 764843 
1832.628 807398 850820 891922 930804 969423 1010238 1054045 1100515 1148352 
1836.968 1196925 1247763 1304655 1371826 1453169 1550056 1660867 1781455 
1840.825 1906370 2030588 2149480 2259579 2358711 2446804 2525682 2599742 
1844.682 2674847 2756468 2847210 2946210 3049136 3148783 3237036 3308012 
1848.540 3357695 3385844 3394627 3386713 3364306 3327477 3275293 3206159 
1852.397 3120348 3020408 2910416 2795484 2680148 2567010 2457500 2351815 
1856.255 2250719 2155440 2067108 1985882 1910763 1839016 1767548 1694396 
1860.112 1620025 1546631 1477837 1416900 1364713 1320375 1281791 1247231 
1863.969 1216495 1191376 1173701 1164265 1161109 1159415 1152804 1136392 
1867.827 1108155 1071185 1032025 998381 975766 966169 967696 976530 989647 
1872.167 1004725 1020832 1037571 1053348 1065671 1072214 1070886 1061718 
1876.024 1046772 1029368 1012363 997020 982441 966501 947340 924229 898463 
1880.364 872201 847467 824627 802086 777124 747517 712867 675598 638995 
1884.703 606610 580830 561089 545231 530534 515175 499252 483728 470592 
1889.043 461172 456163 455201 458253 466346 480643 501773 529340 560227 
1893.382 589921 614540 630932 639593 643774 648320 657080 672080 692124 
1897.722 714227 736000 756080 774867 794153 815697 839267 863801 886411 
1902.062 905270 919946 931269 940898 950030 958531 964741 967032 964608 
1906.401 958332 951026 945580 943820 945813 949598 952487 952886 951093 
1910.741 948668 948170 951591 959062 969124 980448 992038 1004293 1018607 
1915.080 1035147 1052817 1067830 1075038 1069922 1051156 1020998 985164 
1918.938 949698 918485 891424 865760 837341 803945 766735 730258 700288 
1923.277 681969 676826 682401 694680 709282 723919 738323 754056 771780 
1927.617 790601 807962 820245 825025 822602 814402 804045 794684 787580 
1931.957 783332 781904 783863 791298 806203 829108 858124 888370 912940 
1936.296 926188 926188 915330 899625 886212 880302 883555 894080 907660 
1940.636 920510 931202 940068 948602 958298 968194 976131 981112 983935 
1944.975 987721 997418 1017411 1048632 1088889 1132273 1171940 1204201 
1948.833 1228390 1246932 1264511 1285280 1310604 1339685 1370064 1398783 
1952.690 1424247 1444592 1458621 1463608 1457723 1439572 1411049 1378208 
1956.548 1348260 1329216 1326391 1338488 1360026 1382163 1397886 1404268 
1960.405 1403537 1400844 1401343 1407393 1416933 1426607 1434751 1442198 
1964.262 1453534 1474014 1505566 1544270 1582478 1610247 1621189 1617730 
1968.120 1608385 1606190 1621455 1657708 1708899 1764787 1812497 1844440 
1971.977 1861078 1869098 1877018 1892159 1917652 1952298 1994603 2045468 
1975.835 2106594 2181681 2270470 2365641 2454634 2522183 2557011 2556111 
1979.692 2524949 2473595 2413450 2352548 2291821 2229304 2162367 2091278 
1983.550 2020335 1957390 1908766 1877151 1860113 1850064 1838850 1822579 
1987.407 1801085 1778328 1760462 1751846 1752744 1761593 1775766 1794165 
1991.264 1818886 1853491 1899647 1956825 2018737 2076729 2124440 2157805 
1995.122 2177452 2187675 2193303 2196533 2197566 2193603 2182680 2165430 
1998.979 2145984 2129801 2123608 2129502 2145118 2164698 2181781 2191005 
2002.837 2191105 2184711 2175420 2167528 2163799 2164798 2171191 2183646 
2006.694 2202694 2228404 2259812 2292187 2320435 2340955 2354081 2364441 
2010.552 2379700 2406454 2447037 2498055 2550312 2593209 2620942 2632743 
2014.409 2635076 2637810 2650744 2677448 2717123 2763071 2807256 2844908 
2018.266 2874759 2897441 2916287 2931598 2942140 2947010 2947978 2948411 
2022.124 2955250 2975734 3012100 3061783 3115810 3163135 3194509 3205524 
2025.981 3198114 3179556 3158662 3141140 3129893 3124086 3121116 3119047 
2029.839 3118613 3121950 3131528 3149984 3177019 3212935 3258434 3312686 
2033.696 3375292 3444454 3514862 3578667 3629150 3661728 3676230 3678636 
2037.553 3675528 3673657 3676798 3683381 3688928 3689597 3682579 3669079 
2041.411 3653575 3639775 3629384 3621165 3611475 3596073 3574458 3549002 
2045.268 3525217 3508716 3503171 3508282 3520541 3535239 3547866 3555449 
2049.126 3556719 3550238 3534537 3508282 3470772 3425017 3376962 3334589 
2052.983 3306008 3295525 3301000 3315390 3328245 3331049 3320565 3300600 
2056.841 3279667 3268015 3272289 3293021 3324872 3359431 3388215 3405547 
2060.698 3410990 3406916 3396464 3383073 3367846 3351551 3335490 3322669 
2064.555 3316091 3318829 3331116 3349347 3367946 3379934 3380668 3368581 
2068.413 3346375 3317961 3288280 3260838 3236401 3215472 3197647 3182960 
2072.270 3172547 3166773 3164536 3163802 3161132 3154023 3141674 3125621 
2076.128 3109068 3095119 3085942 3080970 3078534 3077032 3075664 3075397 
2079.985 3078567 3086443 3098823 3113473 3126656 3135300 3138437 3137602 
2083.843 3135700 3136468 3141240 3149083 3157861 3164269 3166706 3165705 
2087.700 3162901 3160097 3158228 3155859 3150552 3140373 3124820 3105364 
2091.557 3086076 3070492 3060581 3056644 3057078 3059881 3064152 3070525 
2095.415 3080469 3094885 3113273 3132329 3148049 3157460 3159830 3157193 
2099.272 3153889 3153722 3158395 3167106 3176418 3183194 3186198 3186899 
2103.130 3189236 3197747 3215205 3241642 3274525 3309881 3344706 3377897 
2106.987 3410590 3444721 3482228 3523347 3566741 3610907 3654410 3697015 
2110.844 3739624 3782773 3825858 3867276 3904218 3933808 3954806 3967746 
2114.702 3974166 3976273 3976173 3974468 3971892 3969652 3969619 3975303 
2118.559 3990752 4017773 4056366 4103192 4153201 4200839 4242327 4275955 
2122.417 4302256 4323239 4340307 4354731 4367617 4379632 4393053 4411195 
2126.274 4436501 4470412 4511423 4555652 4596906 4630360 4652531 4664152 
2130.132 4668540 4670248 4673597 4681836 4695468 4714225 4737640 4765577 
2133.989 4798006 4834860 4874699 4914810 4953048 4986932 5016260 5042104 
2137.846 5066206 5088499 5108615 5124070 5132218 5132586 5127054 5119276 
2141.704 5113744 5113174 5116292 5120249 5119679 5111465 5095238 5075358 
2145.561 5057122 5047032 5047702 5058932 5076464 5095674 5112269 5123299 
2149.419 5127859 5124540 5110861 5085315 5045288 4991390 4927042 4858013 
2153.276 4789865 4726753 4668339 4611741 4554481 4497797 4448351 4419463 
2157.134 4426593 4480656 4583578 4724944 4883043 5034260 5157331 5240191 
2160.991 5279900 5281979 5254847 5209607 5157297 5106805 5066575 5042607 
2164.848 5035199 5040194 5048741 5048708 5029467 4985390 4917190 4831644 
2168.706 4739448 4649416 4567840 4496591 4432853 4372603 4312898 4252632 
2172.563 4193077 4136474 4084929 4039577 4001855 3972361 3952298 3943337 
2176.421 3944006 3950459 3957113 3955876 3940863 3910738 3868948 3822047 
2180.278 3778828 3744905 3721444 3705904 3692170 3674726 3651369 3622969 
2184.135 3591630 3560326 3530596 3501368 3471941 3442684 3415766 3395595 
2187.993 3386746 3391187 3408085 3433499 3461387 3487239 3509150 3527021 
2191.850 3542187 3556117 3568210 3577498 3582743 3584647 3586251 3592064 
2195.708 3606130 3630353 3663633 3701192 3737218 3767231 3788321 3799719 
2199.565 3802226 3796075 3780433 3754931 3720374 3679405 3638205 3602588 
2203.423 3577231 3563066 3557554 3554480 3548935 3538813 3525952 3516265 
2207.280 3515998 3528458 3552910 3582877 3610306 3628047 3632792 3624940 
2211.137 3609537 3592398 3578300 3569981 3569012 3574992 3587988 3607666 
2214.995 3632491 3659823 3685854 3705704 3716665 3719339 3716999 3716130 
2218.852 3722146 3737753 3761281 3787686 3810181 3823117 3824922 3816599 
2222.710 3802159 3785680 3768701 3751155 3731704 3708678 3682379 3654477 
2226.567 3627413 3602855 3581440 3561963 3543356 3526286 3513025 3507447 
2230.425 3512524 3529460 3554982 3583211 3606831 3620430 3622167 3614850 
2234.282 3603089 3593033 3588222 3589057 3592699 3595873 3595071 3589425 
2238.139 3580171 3569781 3561061 3556785 3557821 3564736 3577531 3595572 
2241.997 3617823 3642615 3666840 3687424 3701927 3709380 3711017 3710650 
2245.854 3712220 3720007 3735982 3760045 3789658 3821345 3850929 3874731 
2249.712 3890678 3897966 3897298 3891012 3882588 3875600 3873227 3876971 
2253.569 3885864 3896897 3905355 3907094 3899605 3883056 3859287 3831474 
2257.427 3802460 3773113 3742666 3710483 3675796 3640477 3608301 3583445 
2261.284 3569647 3568578 3578333 3595171 3614215 3631856 3646090 3657551 
2265.141 3667743 3678803 3691635 3706305 3721611 3736951 3751255 3763621 
2268.999 3773481 3779330 3779530 3772979 3759978 3741964 3722614 3705503 
2272.856 3693874 3688928 3689563 3693339 3697516 3700089 3700992 3701727 
2276.714 3704601 3711251 3722346 3737452 3754864 3773247 3791496 3808543 
2280.571 3824421 3838594 3850561 3860122 3867778 3874263 3880849 3888973 
2284.428 3898869 3909902 3920334 3928191 3932003 3931400 3927355 3921637 
2288.286 3915954 3910938 3907094 3903684 3900541 3898434 3899237 3905522 
2292.143 3919665 3942735 3974501 4012355 4053490 4094161 4131223 4162534 
2296.001 4187123 4205055 4217200 4225732 4233259 4242762 4257216 4278130 
2299.858 4305938 4338868 4374143 4408451 4439480 4466160 4489461 4511356 
2303.716 4533688 4558063 4585186 4614319 4644560 4675272 4706052 4737037 
2307.573 4769128 4802328 4836736 4872186 4908242 4944469 4981134 5017970 
2311.430 5054775 5090880 5125076 5156358 5184290 5209138 5232210 5255417 
2315.288 5280336 5308342 5339738 5374390 5411394 5450280 5490142 5530679 
2319.145 5571522 5612167 5652312 5691522 5729493 5765284 5797922 5825256 
2323.003 5844398 5852794 5848059 5829756 5799769 5762329 5722711 5687023 
2326.860 5660268 5645297 5642611 5650567 5666109 5685747 5706193 5725195 
2330.718 5741277 5753700 5762463 5768272 5772939 5778379 5787210 5801649 
2334.575 5822805 5850678 5884061 5921075 5959132 5996858 6032873 6067144 
2338.432 6099367 6129846 6158512 6185634 6211212 6235177 6257732 6278339 
2342.290 6295147 6305502 6305502 6290810 6258673 6208019 6141541 6065665 
2346.147 5990206 5926416 5885304 5876672 5905792 5974820 6081289 6219144 
2350.005 6379300 6550549 6722001 6884464 7032103 7163219 7280021 7386541 
2353.862 7486582 7582532 7674928 7763093 7845878 7923517 7996174 8065096 
2357.719 8130654 8192811 8250451 8303405 8351130 8394198 8433724 8469739 
2361.577 8501465 8527687 8546509 8556748 8559080 8555565 8548705 8540967 
2365.434 8532857 8523327 8510386 8491362 8465110 8431731 8393016 8350589 
2369.292 8306174 8260346 8213171 8164685 8115192 8065467 8017133 7970727 
2373.149 7926756 7884611 7843720 7803674 7765387 7730779 7701841 7680661 
2377.007 7668216 7663900 7666395 7673714 7684809 7699379 7718334 7742855 
2380.864 7773989 7812445 7858125 7910323 7968331 8031140 8097705 8166812 
2384.721 8236538 8304587 8368728 8426764 8477375 8519813 8554314 8580911 
2388.579 8599938 8611497 8615620 8613152 8605312 8593922 8581046 8567899 
2392.436 8554822 8541271 8526233 8508629 8488525 8466900 8445379 8425616 
2396.294 8409299 8396901 8388591 8384638 8385314 8391597 8404805 8425852 
2400.151 8455042 8491869 8535222 8584256 8638366 8698061 8764153 8837729 
2404.009 8919197 9008124 9104071 9206234 9314210 9428544 9549445 9676987 
2407.866 9810803 9949236 10090528 10233460 10377458 10522997 10671335 
2411.241 10823427 10978868 11136337 11292435 11443621 11586490 11718512 
2414.616 11838180 11944870 12038507 12119113 12186750 12241481 12283880 
2417.992 12314864 12335829 12348032 12352839 12351748 12345953 12336953 
2421.367 12326249 12315103 12304536 12294787 12285005 12274541 12262850 
2424.742 12250478 12239573 12233744 12236505 12250955 12279244 12321443 
2428.117 12376770 12444414 12523698 12615036 12719120 12836743 12967849 
2431.493 13111083 13264203 13424860 13591320 13762701 13939351 14121959 
2434.868 14311665 14508818 14713637 14926164 15146516 15375562 15614036 
2438.243 15862813 16122187 16392108 16671561 16959978 17256690 17561506 
2441.618 17874408 18195518 18524158 18860076 19202554 19551022 19905702 
2444.994 20267336 20636498 21013524 21397628 21786880 22178470 22569364 
2448.369 22956944 23339484 23716694 24088802 24456776 24821696 25183132 
2451.744 25540300 25891148 26232638 26561608 26875038 27170842 27447438 
2455.119 27704184 27940270 28154174 28344096 28506046 28636022 28730318 
2458.495 28786076 28802080 28778572 28716796 28617830 28482482 28310640 
2461.870 28102314 27858122 27579994 27271488 26937926 26585738 26221128 
2465.245 25850564 25480000 25114494 24759396 24419868 24100324 23805340 
2468.620 23538330 23301270 23095368 22920824 22777600 22665422 22584442 
2471.996 22533800 22512340 22517330 22545352 22591562 22651250 22719920 
2475.371 22793592 22868922 22943460 23014866 23081916 23143382 23198814 
2478.746 23248484 23292566 23331022 23363014 23386616 23399100 23398086 
2482.121 23381722 23349658 23303402 23245618 23179556 23108542 23035338 
2485.497 22961764 22889214 22818318 22749074 22681236 22614074 22546120 
2488.872 22475804 22401694 22322610 22238032 22148376 22053896 21954870 
2492.247 21851510 21742880 21628184 21506344 21376430 21238240 21091292 
2495.622 20935630 20771234 20598696 20418486 20231682 20040346 19845938 
2498.998 19649640 19452012 19252636 19050686 18845714 18637522 18427250 
2502.373 18217286 18009946 17807572 17611468 17421694 17237936 17059940 
2505.748 16887736 16722314 16565183 16417949 16281016 16154272 16036227 
2509.123 15924782 15817933 15713826 15611254 15509256 15407557 15305503 
2512.499 15203406 15102053 15002781 14907853 14819802 14740167 14670074 
2515.874 14609314 14556853 14511285 14471854 14437941 14409819 14387830 
2519.249 14372144 14362109 14357451 14356732 14359677 14365602 14374712 
2522.624 14386940 14402113 14419615 14438866 14459727 14482268 14507174 
2526.000 14535028 14566173 14599513 14633370 14665071 14691392 14710758 
2529.375 14721451 14723440 14717339 14704348 14685566 14662637 14637277 
2532.750 14610958 14585498 14562267 14541983 14524817 14510257 14497068 
2536.125 14485008 14474046 14464420 14457089 14452225 14449348 14447292 
2539.500 14444689 14440647 14434824 14428418 14422630 14418622 14417629 
2542.876 14419101 14422184 14426226 14430371 14434481 14439243 14444757 
2546.251 14450924 14457432 14463153 14467195 14469695 14471203 14472881 
2549.626 14475896 14480760 14487304 14494361 14500699 14505426 14508339 
2553.001 14509880 14510531 14511114 14511833 14511970 14511251 14509367 
2556.377 14506455 14503028 14499877 14497170 14494395 14490353 14483227 
2559.752 14471579 14454178 14430713 14401667 14367691 14329711 14288585 
2563.127 14245339 14200419 14154376 14107891 14061446 14015349 13970453 
2566.502 13927239 13886902 13850777 13820402 13796972 13781342 13773201 
2569.878 13771662 13774911 13781307 13789140 13797657 13806720 13816571 
2573.253 13828132 13842363 13860322 13882900 13910509 13942909 13979349 
2576.628 14018086 14056894 14094234 14128873 14160811 14191450 14223118 
2580.003 14257904 14297795 14343341 14393892 14448252 14504844 14562506 
2583.379 14620759 14680048 14740475 14802523 14865985 14930314 14995304 
2586.754 15060510 15125382 15189817 15253988 15317688 15380883 15444292 
2590.129 15508054 15572684 15638767 15705992 15773848 15840957 15905395 
2593.504 15966028 16022338 16074633 16124457 16173771 16224019 16276751 
2596.880 16332274 16390627 16451638 16515205 16581362 16649973 16721211 
2600.255 16794530 16869514 16945510 17022378 17100468 17180400 17262932 
2603.630 17348858 17438422 17531698 17628410 17728628 17832462 17940048 
2607.005 18051530 18166496 18283910 18402808 18522086 18641186 18760010 
2610.381 18879178 18999174 19119930 19241102 19361266 19478520 19590986 
2613.756 19697032 19795650 19886416 19969150 20043816 20110756 20170312 
2617.131 20222972 20269594 20311082 20348026 20381432 20411158 20437274 
2620.506 20460022 20479510 20496424 20511742 20526646 20542382 20560098 
2623.882 20580630 20604778 20632990 20665514 20702384 20743010 20786630 
2627.257 20831924 20877672 20923634 20969534 21016168 21064822 21116370 
2630.632 21171648 21230620 21292662 21357044 21422934 21489356 21556066 
2634.007 21622506 21688332 21753296 21817122 21879630 21941068 22002306 
2637.383 22063762 22126026 22189210 22253202 22317482 22381460 22445166 
2640.758 22508814 22573308 22639102 22707072 22777532 22850306 22924772 
2644.133 23000436 23076604 23152818 23229014 23304976 23381162 23458446 
2647.508 23537668 23619842 23706054 23796976 23892536 23991972 24094196 
2650.884 24197774 24302010 24406652 24512166 24619736 24730350 24845028 
2654.259 24963736 25086374 25212274 25340814 25471322 25603592 25737310 
2657.634 25872686 26009228 26147186 26286316 26426510 26568088 26710878 
2661.009 26854734 26999344 27144212 27288636 27432402 27575332 27717676 
2664.385 27859500 28001052 28142084 28282278 28421172 28558486 28694210 
2667.760 28829166 28964164 29100584 29239458 29381530 29527126 29676212 
2671.135 29828188 29982524 30138336 30294952 30451516 30607638 30762714 
2674.510 30916742 31069760 31221866 31373172 31523500 31672810 31820744 
2677.885 31967446 32112804 32257746 32402776 32549244 32697872 32849838 
2681.261 33006218 33168122 33336960 33514346 33701616 33900072 34110484 
2684.636 34332788 34566876 34812072 35067532 35332488 35606352 35887868 
2688.011 36175868 36469364 36767308 37069680 37376520 37688748 38007456 
2691.386 38333784 38667960 39010044 39359324 39715204 40076936 40444276 
2694.762 40817320 41196220 41580880 41970956 42365804 42764704 43167228 
2698.137 43573344 43983516 44398216 44817980 45242896 45672824 46106864 
2701.512 46544436 46984224 47425008 47865432 48303632 48738012 49166112 
2704.887 49585836 49995100 50391960 50774540 51141280 51490612 51820996 
2708.263 52131684 52421544 52690088 52936788 53160972 53362120 53539444 
2711.638 53692732 53822256 53928524 54012452 54074932 54116176 54136144 
2715.013 54133592 54107544 54056468 53979620 53877168 53749876 53598856 
2718.388 53426192 53233744 53023860 52799372 52563408 52319684 52072212 
2721.764 51825328 51582692 51348652 51126148 50918508 50728436 50558248 
2725.139 50409708 50284324 50182736 50105012 50051096 50020012 50010980 
2728.514 50023396 50056116 50108656 50179760 50268884 50375068 50497352 
2731.889 50634900 50786308 50950064 51123988 51305512 51491732 51680424 
2735.265 51869832 52058840 52247480 52435604 52623544 52810860 52996756 
2738.640 53179996 53359572 53534460 53704392 53869480 54030240 54187376 
2742.015 54341908 54494728 54646888 54800192 54955844 55115388 55279732 
2745.390 55449372 55624500 55804860 55989896 56178856 56370728 56564044 
2748.766 56756764 56946248 57129616 57304172 57467876 57619944 57760032 
2752.141 57889264 58008304 58118328 58220272 58315112 58404176 58488332 
2755.516 58568636 58645312 58717792 58784328 58842640 58890256 58924716 
2758.891 58944332 58948392 58935984 58906464 58858840 58791460 58702996 
2762.267 58592524 58460052 58306512 58133668 57943820 57739180 57521960 
2765.642 57294460 57059176 56818508 56575404 56332552 56092280 55856856 
2769.017 55627624 55406644 55195896 54997808 54815192 54650424 54505172 
2772.392 54379424 54272332 54181636 54105028 54040144 53985400 53939292 
2775.768 53900728 53867304 53836396 53803992 53765928 53717740 53655464 
2779.143 53575804 53476220 53355112 53211420 53045532 52858568 52653316 
2782.518 52433584 52204168 51969872 51735176 51503744 51277692 51058164 
2785.893 50845236 50638288 50436132 50237488 50040648 49843672 49645300 
2789.269 49444384 49239960 49032444 48822132 48610216 48398000 48187000 
2792.644 47978132 47773212 47573568 47380776 47196600 47022400 46859048 
2796.019 46707452 46567636 46439520 46322868 46217116 46121932 46036460 
2799.394 45960060 45891924 45831424 45778068 45731316 45690824 45656516 
2802.770 45627072 45601456 45578088 45555308 45531980 45507548 45482124 
2806.145 45456296 45431280 45407588 45385408 45364112 45342960 45320672 
2809.520 45296216 45268232 45235428 45196344 45149720 45094212 45029152 
2812.895 44954292 44870956 44780512 44685124 44586640 44487076 44387608 
2816.271 44289672 44194756 44105148 44023700 43954364 43901612 43869644 
2819.646 43862500 43883356 43934348 44016368 44129028 44270772 44438992 
2823.021 44630264 44840796 45066424 45303164 45547432 45795596 46044304 
2826.396 46289912 46528652 46757004 46971044 47167052 47342120 47494236 
2829.771 47621892 47724804 47803804 47860548 47897396 47917672 47924852 
2833.147 47922256 47913192 47900544 47886888 47874900 47866504 47864248 
2836.522 47870168 47886296 47914156 47956080 48014100 48091528 48192588 
2839.897 48322408 48486720 48692384 48945280 49251688 49618036 50050612 
2843.272 50556352 51143332 51818312 52587340 53451708 54406876 55437888 
2846.648 56519016 57613928 58672620 59639124 60455380 61063804 61420028 
2850.023 61495528 61282836 60796624 60071524 59158808 58113972 56995960 
2853.398 55858668 54744376 53686396 52706620 51816856 51021496 50318772 
2856.773 49702920 49164780 48693348 48277488 47905572 47567468 47254856 
2860.149 46960744 46679856 46408544 46143124 45881504 45621628 45362640 
2863.524 45104728 44848984 44598316 44355904 44125912 43913380 43722680 
2866.899 43559024 43426888 43329964 43270844 43251080 43269708 43324404 
2870.274 43411032 43523680 43655116 43797880 43943880 44085824 44217540 
2873.650 44334804 44435140 44518536 44586860 44642748 44689900 44731584 
2877.025 44771364 44812140 44856776 44907920 44968072 45039372 45123548 
2880.400 45221160 45332076 45455044 45588612 45730544 45878704 46031412 
2883.775 46186308 46341112 46493616 46641340 46782060 46914524 47038244 
2887.151 47153868 47263204 47369132 47474500 47583364 47699248 47825812 
2890.526 47967288 48127768 48312336 48527032 48779276 49077628 49432544 
2893.901 49855008 50356016 50945296 51629520 52409580 53278428 54219812 
2897.276 55206508 56199028 57152216 58014668 58735432 59273984 59602328 
2900.652 59710968 59609400 59325492 58900164 58378480 57808936 57234916 
2904.027 56690880 56205476 55799284 55486492 55277852 55181032 55201992 
2907.402 55346120 55618812 56025972 56574800 57272112 58123292 59129004 
2910.777 60282292 61565128 62945628 64381712 65818324 67193368 68447040 
2914.153 69521304 70369536 70961896 71284712 71343160 71156856 70758512 
2917.528 70186608 69480192 68678328 67813592 66913076 65999188 65088956 
2920.903 64195224 63328432 62495624 61701680 60949256 60239316 59571236 
2924.278 58943880 58355436 57804164 57287952 56804912 56352768 55928800 
2927.654 55530280 55153684 54795116 54451044 54117112 53789368 53464376 
2931.029 53139180 52811644 52480800 52146516 51808976 51468828 51126932 
2934.404 50784260 50442196 50103080 49769392 49444904 49133760 48839780 
2937.779 48567232 48319412 48099264 47909644 47753016 47631764 47547872 
2941.155 47502444 47494940 47522404 47579632 47658088 47746548 47832432 
2944.530 47901616 47939984 47935872 47880156 47768144 47600188 47382216 
2947.905 47124432 46840336 46545212 46254160 45979472 45731168 45514720 
2951.280 45331856 45180900 45057640 44956900 44872424 44798764 44731180 
2954.656 44665916 44600116 44531752 44459180 44381260 44296896 44206204 
2958.031 44109332 44007752 43903336 43797916 43693404 43590896 43491080 
2961.406 43393892 43299764 43209096 43123060 43043660 42972320 42910944 
2964.781 42860256 42820320 42790736 42771032 42760828 42760240 42770004 
2968.156 42790668 42822696 42866468 42921696 42988124 43065428 43153248 
2971.532 43251556 43359804 43477496 43603496 43736276 43873312 44011416 
2974.907 44146376 44272276 44381776 44466780 44517692 44526284 44485792 
2978.282 44392564 44246376 44050764 43812684 43540784 43245332 42937388 
2981.657 42626700 42322664 42033188 41763272 41515980 41291348 41086540 
2985.033 40896896 40716652 40540664 40365004 40188180 40010264 39833292 
2988.408 39658788 39487328 39316120 39139976 38950420 38737072 38490524 
2991.783 38203476 37873236 37502680 37100208 36678784 36252476 35835364 
2995.158 35438140 35066456 34721112 34398632 34093528 33799204 33510338 
2998.534 33224132 32939512 32657146 32378356 32104884 31837500 31576838 
3001.909 31323030 31076024 30835844 30602554 30376458 30157728 29946526 
3005.284 29742772 29546882 29359054 29179354 29008156 28845418 28690814 
3008.659 28543978 28404122 28270396 28142012 28018014 27897550 27779944 
3012.035 27664914 27552066 27441826 27334542 27230776 27131234 27036296 
3015.410 26946070 26860760 26780122 26704076 26632484 26565166 26501874 
3018.785 26441864 26384750 26329652 26276214 26224330 26174038 26125404 
3022.160 26078430 26032658 25987418 25942358 25897584 25854258 25814346 
3025.536 25780624 25755908 25742442 25741316 25752004 25772678 25800210 
3028.911 25830976 25860726 25885204 25900608 25903034 25889882 25859462 
3032.286 25811672 25748172 25671536 25585528 25494162 25400602 25307832 
3035.661 25217964 25132326 25051902 24977318 24908992 24846782 24790368 
3039.037 24739014 24691594 24647160 24604728 24563950 24525102 24488466 
3042.412 24454814 24424986 24399572 24379036 24363474 24352470 24344796 
3045.787 24339224 24334424 24329026 24322894 24316236 24309892 24305022 
3049.162 24302570 24302500 24304356 24307056 24309366 24310734 24311120 
3052.538 24311014 24311400 24312802 24315148 24317882 24320230 24321386 
3055.913 24321036 24319530 24317602 24316306 24316902 24320020 24326432 
3059.288 24336912 24351488 24370660 24394492 24422566 24454184 24488012 
3062.663 24523138 24559076 24595716 24633904 24674478 24718634 24766410 
3066.039 24817522 24870746 24924398 24976686 25026314 25072436 25114634 
3069.414 25153252 25189206 25223196 25256276 25289148 25321740 25353880 
3072.789 25384968 25414266 25441316 25466158 25489734 25513030 25537594 
3076.164 25564054 25592734 25622958 25653784 25683944 25713050 25740754 
3079.540 25767440 25793810 25820006 25846168 25872158 25897796 25923188 
3082.915 25948936 25975704 26004126 26034594 26066750 26099964 26133814 
3086.290 26168124 26203530 26241226 26282374 26328030 26378166 26432216 
3089.665 26488560 26545970 26603140 26659260 26714436 26769090 26823752 
3093.041 26879266 26936128 26995042 27056396 27120580 27187738 27257590 
3096.416 27329356 27402262 27475324 27547866 27619150 27689176 27757938 
3099.791 27825230 27891296 27956630 28021796 28088210 28157250 28230084 
3103.166 28307386 28388806 28473106 28558272 28642322 28723804 28802080 
3106.542 28877324 28950244 29021688 29092116 29161670 29230454 29298684 
3109.917 29367066 29436452 29508330 29583130 29661170 29741850 29824176 
3113.292 29907160 29989590 30071146 30151692 30231254 30310014 30388044 
3116.667 30465626 30542828 30620188 30698414 30778008 30858932 30940760 
3120.042 31022424 31102610 31180426 31255302 31327554 31398318 31468886 
3123.418 31540390 31613826 31689062 31765948 31843704 31921688 31999402 
3126.793 32076702 32153976 32231268 32309000 32387388 32466326 32545316 
3130.168 32624248 32702230 32779186 32855090 32930608 33006608 33084516 
3133.543 33165190 33249206 33336316 33425734 33516244 33607168 33697752 
3136.919 33787992 33877932 33967964 34057872 34147472 34236484 34324292 
3140.294 34411152 34497596 34584420 34672588 34762496 34853856 34946172 
3143.669 35038544 35130396 35221728 35313156 35405496 35499548 35595780 
3147.044 35693828 35793052 35892188 35990772 36087976 36184296 36279996 
3150.420 36376108 36473180 36571720 36671644 36772680 36874312 36975936 
3153.795 37076932 37176832 37275056 37371540 37466376 37559972 37652904 
3157.170 37745816 37839396 37934196 38030640 38128840 38228916 38330708 
3160.545 38433828 38537988 38642752 38747324 38851380 38954260 39056008 
3163.921 39156692 39256780 39357076 39458300 39561220 39666120 39772720 
3167.296 39880508 39988028 40093908 40196612 40294980 40388496 40477340 
3170.671 40562308 40644424 40725200 40805488 40885936 40966544 41046876 
3174.046 41126020 41202740 41275716 41344044 41407388 41465820 41520540 
3177.422 41573552 41626680 41681716 41739888 41801028 41864256 41928148 
3180.797 41991576 42053884 42115688 42178048 42242572 42309992 42380856 
3184.172 42453924 42528024 42601812 42673892 42744376 42813480 42881940 
3187.547 42950700 43020208 43090528 43161920 43234680 43308584 43383568 
3190.923 43459184 43534484 43608184 43679480 43747744 43813568 43877748 
3194.298 43941900 44006580 44072180 44137644 44202316 44265124 44325920 
3197.673 44385920 44446480 44508844 44573460 44639700 44705764 44769820 
3201.048 44830800 44888812 44945212 45002216 45061312 45123692 45189316 
3204.424 45257052 45325236 45392800 45458796 45522780 45584860 45644848 
3207.799 45703004 45759700 45815848 45872740 45931812 45993984 46058820 
3211.174 46124732 46189112 46249660 46304988 46355456 46403056 46450692 
3214.549 46501212 46556168 46615404 46677268 46739808 46801544 46862072 
3217.925 46921872 46982192 47044260 47107888 47172260 47236124 47298044 
3221.300 47357572 47414920 47471060 47526988 47584140 47643224 47704644 
3224.675 47769368 47837908 47910640 47987788 48068544 48151012 48233352 
3228.050 48313040 48388556 48459712 48526956 48591912 48656212 48721112 
3231.426 48786876 48853760 48920952 48988080 49054812 49121072 49186820 
3234.801 49252396 49317644 49382456 49447428 49513080 49580040 49649164 
3238.176 49721052 49795772 49873180 49952684 50033808 50115684 50197692 
3241.551 50278704 50357392 50432896 50503976 50570868 50634640 50697452 
3244.927 50762104 50831264 50906624 50988892 51077320 51170284 51266024 
3248.302 51363164 51460732 51558140 51655420 51752124 51847728 51941340 
3251.677 52032280 52119616 52203384 52284028 52362256 52439040 52515392 
3255.052 52592240 52669892 52748708 52828448 52908944 52989828 53070804 
3258.427 53151912 53233368 53315064 53397340 53479816 53561784 53642228 
3261.803 53720516 53795740 53868020 53938092 54006184 54073168 54138692 
3265.178 54202320 54262756 54319416 54372324 54422724 54472904 54524932 
3268.553 54580796 54641404 54705852 54772564 54839552 54904780 54967088 
3271.928 55026620 55084204 55141156 55198908 55258320 55319660 55382816 
3275.304 55447224 55511868 55576184 55639300 55701000 55761608 55822080 
3278.679 55883348 55946736 56012740 56081160 56151368 56222300 56292564 
3282.054 56362016 56431284 56501316 56573892 56650180 56730636 56815180 
3285.429 56902692 56991920 57082076 57172812 57264100 57356620 57451044 
3288.805 57547724 57646884 57748416 57852276 57958132 58066096 58175984 
3292.180 58287756 58401868 58518664 58638900 58764032 58894624 59031592 
3295.555 59175060 59324272 59478704 59637068 59798912 59963744 60132028 
3298.930 60304032 60479792 60659444 60842288 61028144 61216792 61408652 
3302.306 61604340 61804812 62010844 62222172 62438424 62658340 62880672 
3305.681 63104340 63328856 63554556 63782408 64014448 64252420 64498132 
3309.056 64753176 65017640 65290660 65570520 65854536 66140428 66426700 
3312.431 66713096 67000904 67292552 67590384 67895864 68209816 68530912 
3315.807 68857248 69187080 69519008 69852392 70187624 70524864 70864480 
3319.182 71206120 71548888 71891416 72233120 72573136 72910904 73246704 
3322.557 73580296 73911432 74240368 74567288 74892520 75216856 75540648 
3325.932 75863368 76184008 76500776 76811640 77115488 77411544 77699728 
3329.308 77980408 78254008 78519952 78777608 79025712 79262832 79487656 
3332.683 79699032 79895016 80073824 80232912 80370000 80483840 80575096 
3336.058 80645664 80699648 80740432 80770632 80790584 80798328 80790824 
3339.433 80764096 80715808 80644392 80549808 80433112 80294728 80134592 
3342.809 79952048 79745688 79514672 79259088 78979528 78677320 78353880 
3346.184 78010104 77646552 77263352 76860992 76440512 76003232 75551680 
3349.559 75088160 74615248 74134832 73648160 73155328 72655848 72148800 
3352.934 71633208 71108968 70577296 70040392 69501896 68965696 68435472 
3356.310 67914080 67402552 66900708 66407360 65921052 65440908 64967340 
3359.685 64501016 64043560 63596516 63160592 62735900 62322216 61918744 
3363.060 61524772 61139892 60763584 60395824 60036596 59686144 59344784 
3366.435 59013600 58693212 58384924 58089316 57806436 57535464 57274988 
3369.811 57022752 56776100 56532904 56290904 56048324 55803844 55556828 
3373.186 55306940 55054528 54800456 54544956 54288328 54029900 53768404 
3376.561 53502228 53229772 52950116 52663268 52370444 52072324 51770416 
3379.936 51464800 51154928 50839500 50516968 50185752 49845308 49495180 
3383.312 49135800 48767484 48391516 48008588 47620224 47228148 46833952 
3386.687 46439372 46045744 45653608 45263120 44874116 44486640 44100788 
3390.062 43716780 43335568 42957616 42583680 42214528 41850940 41493816 
3393.437 41143836 40801596 40466536 40136932 39810052 39483520 39154516 
3396.813 38821884 38486140 38149316 37813732 37481944 37155280 36833664 
3400.188 36515744 36200000 35884700 35569272 35253316 34937196 34621560 
3403.563 34306540 33992364 33679488 33368662 33061382 32759250 32464042 
3406.938 32176208 31895302 31619888 31347636 31076308 30804756 30532022 
3410.313 30258962 29986892 29717190 29451062 29189028 28931012 28676868 
3413.689 28426196 28179062 27935570 27696804 27462898 27234728 27012460 
3417.064 26795804 26583164 26373696 26165768 25957694 25749580 25541668 
3420.439 25335124 25131940 24933626 24741118 24554446 24372516 24194270 
3423.814 24017884 23842548 23667740 23493700 23320848 23149220 22978916 
3427.190 22809588 22641092 22473430 22306948 22142274 21979998 21820292 
3430.565 21662628 21506240 21350362 21194260 21038076 20882470 20728692 
3433.940 20577782 20431128 20289486 20152994 20022130 19896614 19775918 
3437.315 19659764 19546656 19435136 19323054 19208512 19090188 18967432 
3440.691 18840870 18711994 18583362 18457360 18336304 18221016 18111530 
3444.066 18005524 17900374 17792210 17677584 17554054 17421694 17282034 
3447.441 17139486 16999050 16865104 16740909 16627250 16522501 16423730 
3450.816 16327390 16230142 16129959 16026121 15918801 15808553 15696064 
3454.192 15581579 15465545 15348306 15230515 15113409 14998563 14887039 
3457.567 14779657 14676346 14576349 14478329 14380843 14282489 14182206 
3460.942 14079927 13975893 13871098 13767216 13665924 13568484 13475988 
3464.317 13388397 13304344 13222356 13140452 13056925 12971058 12882886 
3467.693 12792823 12701924 12610738 12519673 12428764 12338385 12248604 
3471.068 12160477 12074481 11991294 11910984 11832766 11755720 11678993 
3474.443 11601872 11524525 11447567 11372052 11298590 11227691 11159284 
3477.818 11092623 11027195 10962388 10897828 10833346 10768840 10704039 
3481.194 10638975 10574633 10511319 10450459 10393103 10339621 10289846 
3484.569 10243197 10198350 10154120 10109791 10064992 10019961 9974968 
3487.944 9929776 9883607 9835951 9786503 9735809 9685288 9637112 9593582 
3491.802 9555610 9524077 9497119 9473650 9452146 9431694 9412562 9396174 
3495.659 9383647 9376503 9375453 9380464 9390824 9406332 9426004 9449301 
3499.516 9475343 9502842 9529835 9554730 9575832 9592802 9607199 9621494 
3503.374 9639619 9665231 9700942 9748380 9806770 9873981 9946965 10022674 
3507.231 10098429 10173046 10246962 10321910 10400365 10485047 10577485 
3510.606 10677448 10783514 10892970 11002521 11110230 11215144 11317736 
3513.982 11419435 11521804 11625252 11728758 11830383 11927399 12017284 
3517.357 12099079 12172472 12238788 12299355 12355293 12407045 12454132 
3520.732 12495222 12528779 12552754 12565442 12565135 12550708 12521106 
3524.107 12476228 12416319 12341896 12253853 12152470 12038370 11911665 
3527.483 11773081 11623720 11465156 11299509 11128179 10952397 10772509 
3530.858 10588757 10401214 10211003 10019588 9828595 9639449 9452011 9265160 
3534.715 9077003 8885580 8690557 8492950 8296009 8103309 7918117 7742753 
3538.573 7577069 7420380 7271193 7127616 6989203 6855716 6726846 6602388 
3542.430 6481262 6362085 6243345 6123696 6002267 5879090 5754103 5627271 
3546.288 5498866 5369728 5240694 5113744 4990921 4873861 4762931 4657722 
3550.145 4555920 4455214 4353426 4250223 4146376 4044661 3947985 3858852 
3554.002 3778628 3707174 3642749 3584046 3529092 3475782 3423080 3369382 
3557.860 3313153 3253393 3189135 3120415 3048469 2975467 2903912 2836704 
3561.717 2776443 2724358 2681649 2647244 2619375 2594675 2567743 2532714 
3565.575 2484092 2417482 2332027 2230969 2121577 2012479 1911794 1825008 
3569.432 1752777 1693664 1643772 1598940 1555476 1511318 1465403 1418030 
3573.290 1370463 1323632 1279132 1238193 1201144 1167887 1137356 1107159 
3577.147 1074739 1037538 993898 943920 889133 832395 777456 727503 685255 
3581.487 652368 629738 617726 615934 623168 636872 652999 665775 668562 
3585.826 654957 620778 565469 492883 411089 330405 259550 204717 168121 
3590.166 147537 138787 136268 134777 129308 116879 95469 65577 29424 -10503 
3594.988 -50261 -87133 -119100 -145467 -166632 -184384 -200679 -217536 
3598.845 -237009 -260090 -286713 -315685 -344920 -371340 -392163 -405338 
3602.702 -409906 -405901 -395109 -379020 -360083 -340848 -323301 -310785 
3606.560 -305984 -312109 -331478 -364685 -409774 -461709 -515326 -565197 
3610.417 -607981 -644045 -675045 -704421 -734556 -765748 -795779 -820782 
3614.275 -837020 -841881 -836722 -824618 -811323 -802493 -803287 -816879 
3618.132 -843898 -882853 -929507 -979298 -1027033 -1068251 -1100477 -1121959 
3621.990 -1132799 -1133757 -1125858 -1109664 -1085703 -1053973 -1015000 
3625.365 -971099 -927061 -890094 -870452 -878752 -922366 -1000984 -1104013 
3629.222 -1212502 -1305438 -1369884 -1402681 -1411037 -1405918 -1398124 
3632.597 -1396076 -1402781 -1417576 -1436401 -1455357 -1471406 -1483591 
3635.973 -1493728 -1503502 -1514002 -1525426 -1536289 -1545137 -1551410 
3639.348 -1555769 -1559763 -1565541 -1574224 -1585349 -1596541 -1604497 
3642.723 -1605751 -1597894 -1580629 -1554712 -1523346 -1490195 -1459022 
3646.098 -1433363 -1416090 -1408560 -1411434 -1424347 -1446308 -1476161 
3649.474 -1512681 -1553755 -1596079 -1635956 -1668304 -1690121 -1700023 
3652.849 -1699131 -1691771 -1684180 -1682893 -1694049 -1720584 -1761110 
3656.224 -1809386 -1856865 -1895168 -1919547 -1929476 -1927266 -1917435 
3659.599 -1903448 -1888141 -1872833 -1858416 -1845317 -1834133 -1825554 
3662.975 -1820044 -1816612 -1813148 -1806944 -1795065 -1775762 -1749164 
3666.350 -1717251 -1684147 -1655266 -1636418 -1632919 -1648202 -1682233 
3669.725 -1730485 -1783285 -1829183 -1857855 -1863563 -1847627 -1817074 
3673.100 -1783747 -1760912 -1762067 -1796022 -1862210 -1948245 -2035154 
3676.476 -2104767 -2147368 -2164875 -2164809 -2156797 -2147664 -2139751 
3679.851 -2130915 -2117264 -2095271 -2064570 -2028030 -1991092 -1958767 
3683.226 -1933731 -1915324 -1899555 -1881774 -1858680 -1830503 -1801137 
3686.601 -1778236 -1768997 -1778863 -1808099 -1850794 -1897906 -1939867 
3689.977 -1970675 -1989475 -1998644 -2001811 -2002305 -2002734 -2003394 
3693.352 -2004944 -2008176 -2013552 -2021830 -2033076 -2045608 -2056359 
3696.727 -2061767 -2058733 -2046004 -2025359 -2000755 -1978162 -1963715 
3700.102 -1961901 -1974897 -2001448 -2036473 -2072847 -2103811 -2123133 
3703.478 -2127255 -2115484 -2088775 -2049631 -2001448 -1947421 -1890879 
3706.853 -1835320 -1783714 -1738999 -1703884 -1680682 -1671308 -1677315 
3710.228 -1699693 -1737514 -1788664 -1848320 -1910046 -1966816 -2011903 
3713.603 -2041387 -2054018 -2051214 -2036341 -2013816 -1988189 -1962990 
3716.979 -1940790 -1923142 -1910277 -1902129 -1898368 -1898863 -1903349 
3720.354 -1911102 -1920305 -1928552 -1932676 -1929641 -1918095 -1898302 
3723.729 -1872635 -1845120 -1820110 -1801797 -1792624 -1792558 -1799883 
3727.104 -1810211 -1819384 -1823706 -1821562 -1814005 -1804239 -1795989 
3730.479 -1793548 -1798761 -1810508 -1824399 -1834133 -1834429 -1824069 
3733.855 -1807175 -1791535 -1786948 -1800708 -1834397 -1882170 -1933302 
3737.230 -1975919 -2002206 -2009133 -1997985 -1972687 -1937327 -1894706 
3740.605 -1846769 -1796121 -1746689 -1705897 -1684972 -1694874 -1743553 
3743.980 -1827831 -1931026 -2025986 -2089104 -2109581 -2091512 -2048016 
3747.356 -1994753 -1946134 -1912322 -1897906 -1901964 -1920536 -1948212 
3750.731 -1981395 -2018895 -2059624 -2100052 -2135102 -2157193 -2160556 
3754.106 -2143279 -2107801 -2059887 -2006791 -1956129 -1913477 -1882269 
3757.481 -1863563 -1857129 -1862276 -1877221 -1900116 -1927167 -1952830 
3760.857 -1971334 -1977997 -1971071 -1952698 -1928354 -1905065 -1888405 
3764.232 -1882005 -1885205 -1894145 -1903217 -1907803 -1906516 -1901403 
3767.607 -1896817 -1896817 -1903811 -1917930 -1935677 -1952335 -1963781 
3770.982 -1967904 -1965430 -1958603 -1950719 -1944089 -1940065 -1937855 
3774.358 -1935414 -1930465 -1920767 -1905428 -1885799 -1865047 -1847693 
3777.733 -1838818 -1841589 -1856799 -1881543 -1909287 -1932577 -1945738 
3781.108 -1946101 -1935578 -1918920 -1902887 -1892859 -1891803 -1900281 
3784.483 -1914862 -1931818 -1947289 -1958767 -1965760 -1969224 -1970015 
3787.859 -1968828 -1965068 -1958042 -1947124 -1932313 -1914499 -1895102 
3791.234 -1875835 -1857393 -1840566 -1825818 -1813973 -1806647 -1806251 
3794.609 -1814632 -1832681 -1858713 -1887646 -1912223 -1925056 -1920470 
3797.984 -1897345 -1859505 -1814632 -1774409 -1750352 -1751639 -1781338 
3801.360 -1833671 -1894442 -1946233 -1977206 -1982417 -1966651 -1940329 
3804.735 -1916248 -1905922 -1916083 -1946200 -1988189 -2029053 -2054974 
3808.110 -2058469 -2039375 -2003658 -1958834 -1911926 -1866466 -1822617 
3811.485 -1778500 -1732465 -1684543 -1638300 -1600436 -1577987 -1577888 
3814.861 -1602483 -1647839 -1702168 -1751078 -1781503 -1786915 -1768865 
3818.236 -1735534 -1699197 -1673090 -1668700 -1694181 -1749989 -1827204 
3821.611 -1909584 -1980372 -2026085 -2042047 -2031328 -2001910 -1963715 
3824.986 -1925155 -1892628 -1868412 -1851190 -1836904 -1821133 -1801071 
3828.362 -1776652 -1749890 -1724775 -1705534 -1694874 -1693818 -1701508 
3831.737 -1714445 -1728802 -1740022 -1744609 -1740484 -1727416 -1707185 
3835.112 -1683982 -1663650 -1652262 -1655101 -1674344 -1708076 -1749923 
3838.487 -1791634 -1825455 -1845944 -1852477 -1846604 -1832516 -1814599 
3841.863 -1796187 -1780348 -1768964 -1763024 -1762760 -1767710 -1775828 
3845.238 -1783978 -1788862 -1786684 -1774640 -1751540 -1717449 -1673717 
3848.613 -1622653 -1566895 -1509875 -1455621 -1410047 -1380156 -1375004 
3851.988 -1402979 -1467740 -1564815 -1677909 -1784374 -1864222 -1907440 
3855.364 -1915984 -1899028 -1867785 -1831229 -1795659 -1764212 -1737877 
3858.739 -1716261 -1699098 -1685632 -1675301 -1667512 -1660514 -1653286 
3862.114 -1645463 -1638068 -1633909 -1636055 -1646288 -1662792 -1680483 
3865.489 -1691408 -1688009 -1667281 -1631203 -1587594 -1547713 -1523445 
3868.865 -1524139 -1551840 -1599710 -1654111 -1700947 -1730287 -1740088 
3872.240 -1734973 -1722597 -1710782 -1704181 -1703620 -1705897 -1706095 
3875.615 -1699957 -1685071 -1662330 -1635032 -1607039 -1583468 -1568446 
3878.990 -1564947 -1573762 -1593471 -1619550 -1645958 -1666126 -1675632 
3882.365 -1672892 -1660547 -1643482 -1628991 -1623940 -1632358 -1653253 
3885.741 -1680714 -1705006 -1716426 -1709858 -1685566 -1649226 -1609052 
3889.116 -1573960 -1551410 -1545897 -1556693 -1579110 -1606147 -1629915 
3892.491 -1645132 -1650315 -1645925 -1634305 -1618065 -1598918 -1578087 
3895.866 -1556000 -1533516 -1511790 -1492506 -1477482 -1467773 -1463447 
3899.242 -1463315 -1465065 -1466386 -1466254 -1464735 -1463976 -1466816 
3902.617 -1475533 -1491483 -1513507 -1538930 -1563758 -1584623 -1599380 
3905.992 -1608227 -1612816 -1615127 -1617140 -1619517 -1621894 -1622554 
3909.367 -1619781 -1611990 -1598555 -1580464 -1558839 -1536289 -1514431 
3912.743 -1495016 -1478769 -1466188 -1457008 -1450899 -1447464 -1446176 
3916.118 -1446539 -1448455 -1451790 -1456545 -1463315 -1471967 -1480982 
3919.493 -1488775 -1492176 -1487850 -1474378 -1451988 -1423620 -1394755 
3922.868 -1372130 -1361395 -1365921 -1385078 -1414340 -1446737 -1474345 
3926.244 -1491846 -1496997 -1491417 -1478736 -1463976 -1451592 -1443501 
3929.619 -1440133 -1440199 -1441255 -1441487 -1439604 -1435344 -1429036 
3932.994 -1421903 -1415000 -1409386 -1406215 -1406215 -1409485 -1415727 
3936.369 -1423092 -1429135 -1431216 -1426626 -1414439 -1395647 -1373451 
3939.745 -1352345 -1337217 -1331898 -1338009 -1354988 -1379132 -1404927 
3943.120 -1427187 -1440661 -1442808 -1433528 -1414736 -1390065 -1364104 
3946.495 -1340982 -1323871 -1314787 -1313598 -1319016 -1328232 -1338505 
3949.870 -1347192 -1352774 -1354922 -1353600 -1349868 -1344814 -1339199 
3953.246 -1333913 -1329883 -1327637 -1327769 -1330511 -1335565 -1341709 
3956.621 -1347952 -1352147 -1352973 -1349934 -1343096 -1333979 -1324466 
3959.996 -1316571 -1311616 -1310493 -1312343 -1316076 -1319874 -1321955 
3963.371 -1320932 -1316175 -1307949 -1296816 -1284263 -1272039 -1261467 
3966.747 -1253703 -1249408 -1248087 -1249111 -1250730 -1251324 -1249474 
3970.122 -1244452 -1236259 -1225587 -1213758 -1202094 -1191917 -1184218 
3973.497 -1179327 -1177080 -1177080 -1178534 -1180616 -1182367 -1182764 
3976.872 -1181079 -1176783 -1169249 -1158410 -1144729 -1128767 -1111780 
3980.248 -1095255 -1080547 -1068516 -1060187 -1055592 -1054435 -1056055 
3983.623 -1059360 -1063591 -1068351 -1073209 -1078068 -1083323 -1089008 
3986.998 -1094957 -1101303 -1107582 -1113630 -1119315 -1124437 -1129031 
3990.373 -1133724 -1138780 -1144464 -1151338 -1159236 -1167596 -1175957 
3993.749 -1182764 -1186960 -1187324 -1183127 -1174833 -1163102 -1150049 
3997.124 -1137590 -1128205 -1123347 -1123545 -1128668 -1136929 -1146381 
4000.499 -1154742 
##END=
