##TITLE=1153_3_a
##JCAMP-DX=5.01  $$ Nicolet v. 1
##DATATYPE=INFRARED SPECTRUM
##ORIGIN=UniL
##OWNER=Nicolet
##LONGDATE=2011/09/29
##TIME=11:50:48
##SPECTROMETER/DATA SYSTEM=Nicolet iS5
##DATA PROCESSING=
Ratio against background
%Transmittance->Absorbance
Truncated
ElementMultiply or ElementDivide
##COMMENTS=
Number of sample scans: 32
Collection length: 51.20 sec
Sample gain: 2.0
Background collected on: Jeu Sep 29 11:48:06 2011 (GMT+02:00);
Number of background scans: 32
Background gain: 2.0
Sample spacing:  1.000
Number of scan points: 12415
Resolution points: 8192
Number of FFT points: 65536
Apodization: N-B fort;
Phase correction: Mertz;
Laser frequency: 15798.0 cm-1
Number of rejected sample scans: 0
Number of rejected background scans: 0
Bench serial number: ASB1000141;
##RESOLUTION=4.000
##XUNITS=1/CM
##YUNITS=ABSORBANCE
##FIRSTX=649.893372
##LASTX=4000.122314
##FIRSTY=0.093384
##MAXX=4000.122314
##MINX=649.893372
##MAXY=0.265222
##MINY=-0.003551
##XFACTOR=1.000000
##YFACTOR=1.000000E-009
##NPOINTS=6950
##DELTAX=0.482117
##ZPD=6100
##XYDATA=(X++(Y..Y))
649.893 93383952 92744032 92189800 91717640 91302688 90913376 90526992 
653.268 90141888 89778712 89469824 89243960 89113768 89071424 89095424 
656.643 89161080 89252104 89366672 89510384 89688200 89894976 90112816 
660.018 90316936 90487080 90615328 90711752 90798000 90900392 91039216 
663.393 91221376 91440992 91683672 91930128 92156288 92335512 92434376 
666.767 92418392 92270560 92012072 91711584 91453952 91301384 91267936 
670.142 91326936 91429296 91522920 91569880 91549464 91464056 91332456 
673.517 91179064 91018496 90849336 90654512 90411952 90107392 89741072 
676.892 89328128 88891704 88452520 88021440 87598864 87180096 86760712 
680.267 86342264 85930080 85528328 85136016 84743784 84338336 83907424 
683.642 83447464 82965408 82476472 81996616 81535240 81093320 80663424 
687.016 80236768 79808672 79381640 78964864 78570536 78207232 77878320 
690.391 77583008 77319888 77090400 76901336 76761424 76678040 76652936 
693.766 76680176 76748296 76845368 76963832 77103768 77272184 77478832 
697.141 77731864 78035128 78387336 78785232 79226368 79711248 80241840 
700.516 80818240 81434512 82076584 82724984 83358536 83960528 84524024 
703.890 85050408 85546288 86017920 86466424 86887624 87274704 87622624 
707.265 87931776 88208960 88464376 88708536 88948392 89189768 89440352 
710.640 89712752 90028296 90412568 90888384 91467656 92142976 92884344 
714.015 93640592 94353144 94963248 95423184 95706640 95807392 95740672 
717.390 95537824 95247960 94934296 94666392 94522984 94576864 94880456 
720.765 95456208 96280216 97279696 98328352 99270008 99946272 100215000 
724.139 99995912 99284000 98159096 96762264 95270904 93861224 92658136 
727.514 91729424 91078776 90664064 90420360 90284104 90213048 90184912 
730.889 90194288 90241232 90323384 90432072 90556784 90688976 90827280 
734.264 90976256 91142360 91327552 91526184 91725536 91911752 92075800 
737.639 92217416 92344448 92468936 92600848 92743576 92894768 93049552 
741.013 93204544 93361808 93526944 93704840 93895816 94093168 94285992 
744.388 94463344 94620080 94759768 94892328 95028392 95173864 95326816 
747.763 95479080 95621680 95750008 95867792 95984536 96111432 96254416 
751.138 96411672 96574328 96731496 96875720 97005656 97125936 97242560 
754.513 97359048 97474032 97583648 97686000 97784720 97891016 98019104 
757.888 98179872 98376384 98601232 98840424 99079448 99310736 99535944 
761.262 99764968 100009056 100276064 100567376 100880880 101215264 101577416 
764.637 101983488 102459904 103036264 103738416 104584288 105577864 
767.530 106705856 107931560 109193504 110408864 111475912 112303576 
770.423 112838120 113091856 113155400 113188336 113383640 113889104 
773.315 114758376 115899296 117090168 118005872 118305112 117747376 
776.208 116237960 113869976 110871520 107555464 104219840 101073192 98228384 
779.583 95691480 93400264 91261112 89190496 87135512 85076208 83021888 
782.958 80998880 79041736 77183392 75453680 73878120 72473792 71250976 
786.332 70211576 69351592 68664664 68146784 67799568 67631736 67657368 
789.707 67890792 68345304 69029944 69951360 71118216 72543688 74246000 
793.082 76246368 78559624 81185624 84096944 87236840 90513928 93799952 
796.457 96950768 99805328 102203240 104019688 105175720 105668080 105573896 
799.832 105052600 104320600 103596520 103082720 102904264 103079240 
802.724 103505472 103972704 104210112 103919752 102871176 100953448 98205408 
806.099 94809800 91048696 87244568 83655752 80441528 77631896 75144448 
809.474 72824888 70503936 68061712 65445028 62679320 59841996 57037716 
812.849 54362936 51882716 49633488 47622516 45841180 44273192 42902240 
816.224 41712572 40687648 39810196 39062968 38429700 37899120 37464500 
819.598 37122872 36872440 36710764 36633792 36637108 36718624 36880660 
822.973 37129800 37475912 37928880 38494868 39174644 39962596 40846076 
826.348 41804496 42808252 43819320 44787564 45659536 46385688 46928588 
829.723 47278096 47456352 47521628 47555672 47658272 47933988 48467308 
833.098 49317604 50499884 51975364 53640544 55327752 56833952 57924132 
836.473 58385380 58076284 56945492 55057500 52569652 49713248 46730956 
839.847 43834716 41192136 38896816 36980696 35430016 34204932 33255540 
843.222 32531708 31992018 31599824 31322814 31135892 31018368 30956912 
846.597 30944850 30979794 31060506 31184520 31346784 31541280 31763594 
849.972 32012064 32288156 32594852 32933362 33301148 33692628 34100300 
853.347 34519268 34948904 35394028 35863000 36365696 36911396 37508096 
856.721 38164220 38890804 39701772 40615352 41651444 42828952 44167616 
860.096 45687324 47409416 49358772 51557620 54016504 56719688 59612440 
863.471 62594080 65509484 68176912 70406392 72021944 72906672 73012776 
866.846 72376008 71104592 69371152 67388896 65363640 63493692 61938384 
870.221 60802152 60146984 59988128 60303840 61041036 62121236 63448556 
873.596 64900816 66343584 67638240 68643240 69244288 69366440 68983256 
876.970 68123184 66861288 65309256 63586124 61810352 60084236 58476392 
880.345 57027584 55748688 54627836 53639384 52754732 51951608 51217664 
883.720 50554264 49971980 49487756 49116320 48866664 48740904 48735568 
887.095 48846380 49071692 49415460 49885632 50491212 51236380 52116776 
890.470 53118324 54221612 55404612 56649164 57945868 59292560 60693772 
893.844 62155720 63683184 65275260 66922664 68602456 70274904 71881528 
897.219 73337000 74541048 75388824 75779336 75643800 74955680 73738616 
900.594 72061608 70031048 67779008 65434976 63124000 60953336 58999596 
903.969 57316464 55932720 54855904 54079844 53588848 53364928 53389656 
907.344 53648868 54133216 54837560 55759348 56897516 58250884 59817276 
910.719 61593264 63571780 65740100 68075896 70542760 73093568 75671208 
914.093 78216312 80682688 83042632 85296520 87471392 89619680 91808624 
917.468 94103616 96561624 99210920 102039224 104979640 107907864 110653152 
920.843 112999176 114734680 115691792 115781840 115036464 113616392 
923.736 111813032 109984256 108528128 107829496 108171736 109722768 
926.628 112490152 116322584 120904576 125788512 130483416 134457664 
929.521 137240192 138491504 138000160 135718400 131736384 126263560 
932.414 119588344 112043656 104006000 95836592 87866384 80391848 73627672 
935.789 67720488 62751980 58740968 55668036 53489448 52152904 51598624 
939.163 51754920 52533524 53805456 55396780 57106108 58696512 59940808 
942.538 60660280 60735076 60135832 58918380 57214464 55195820 53042652 
945.913 50926372 48972352 47260360 45826488 44668964 43763392 43072632 
949.288 42560584 42193348 41942128 41784396 41699220 41667524 41673288 
952.663 41702940 41747660 41804420 41874584 41962236 42072244 42208392 
956.037 42372524 42565264 42786532 43036012 43313492 43618040 43947548 
959.412 44298404 44666324 45047196 45439152 45842432 46258984 46691736 
962.787 47142232 47610352 48093972 48590652 49098292 49616660 50146736 
966.162 50690192 51248388 51821784 52409992 53013228 53633008 54272220 
969.537 54935088 55624952 56343488 57090880 57866056 58668560 59500744 
972.912 60367268 61275244 62231616 63241532 64307436 65429276 66606356 
976.286 67838496 69127488 70476072 71887584 73364464 74908112 76520568 
979.661 78205768 79970960 81827008 83785728 85857000 88046520 90353896 
983.036 92772616 95289264 97884208 100526576 103167640 105742504 108160048 
986.411 110310224 112082896 113370608 114092952 114210176 113726080 
989.304 112689872 111186560 109336424 107275800 105143176 103078856 
992.196 101200000 99596488 98330848 97430736 96898496 96716472 96858160 
995.571 97293880 97995592 98940856 100109344 101481680 103039416 104762904 
998.946 106632368 108628232 110726344 112894752 115091832 117258280 
1001.839 119323672 121214624 122858408 124200032 125209240 125883280 
1004.731 126248136 126355696 126283272 126119376 125963928 125920656 
1007.624 126078408 126512664 127276152 128395128 129875528 131706712 
1010.517 133870648 136344832 139105936 142131344 145393488 148861968 
1013.409 152506032 156294688 160202448 164208480 168287856 172403408 
1016.302 176493456 180459232 184178048 187508816 190313472 192492656 
1019.195 193999968 194861456 195171360 195095536 194854112 194679904 
1022.087 194820272 195494896 196863776 199029536 202019200 205793664 
1024.980 210254720 215269920 220693760 226365680 232132080 237841920 
1027.873 243333440 248453024 253053792 257006464 260222080 262650336 
1030.766 264280048 265126496 265222192 264608768 263332032 261449360 
1033.659 259028800 256139664 252850208 249211232 245251088 240979040 
1036.552 236395872 231508288 226340704 220939872 215370672 209713888 
1039.446 204051808 198467104 193043888 187855936 182967984 178424176 
1042.339 174233648 170364272 166738816 163253328 159786144 156229056 
1045.232 152515728 148629840 144612768 140549376 136559920 132773488 
1048.125 129306096 126260280 123706176 121680664 120191928 119219760 
1051.018 118723824 118647056 118928696 119507536 120324440 121329528 
1053.911 122473856 123704288 124964144 126183656 127283664 128187208 
1056.804 128819048 129118072 129045112 128582328 127738160 126545696 
1059.697 125067848 123391528 121620192 119875800 118276264 116926928 
1062.590 115918512 115312104 115142880 115421096 116133616 117245776 
1065.483 118698952 120417816 122303400 124239152 126109496 127798184 
1068.376 129207032 130268696 130940840 131209088 131078512 130567688 
1071.269 129703568 128516360 127041776 125316728 123378592 121269248 
1074.162 119031880 116715768 114381832 112097824 109940208 107990448 
1077.055 106320024 104989432 104040776 103491720 103337976 103552528 
1079.948 104090672 104885048 105849376 106886368 107882200 108725472 
1082.842 109325936 109621896 109601776 109305272 108825208 108287968 
1085.735 107837176 107624992 107781544 108410216 109579888 111313144 
1088.628 113584848 116316352 119387960 122634360 125860616 128879544 
1091.521 131512104 133617952 135112944 135961392 136177728 135811888 
1094.414 134943696 133666096 132073704 130263416 128320368 126316432 
1097.307 124314760 122362952 120496216 118736848 117089120 115537072 
1100.200 114039960 112539744 110963104 109234744 107299256 105128272 
1103.093 102734048 100165680 97507704 94863592 92334904 90020832 88000144 
1106.468 86326344 85033440 84133464 83621848 83480472 83682304 84193192 
1109.844 84971784 85974424 87153288 88453696 89818888 91183360 92473328 
1113.219 93616792 94541520 95184720 95504056 95475648 95098384 94389008 
1116.594 93380872 92118280 90650144 89032128 87317616 85553584 83781264 
1119.969 82029240 80315144 78649120 77035960 75479768 73986728 72564592 
1123.344 71221656 69964320 68794888 67711696 66711044 65790912 64954372 
1126.720 64212240 63581676 63085952 62748916 62589720 62619916 62840192 
1130.095 63238508 63789240 64454356 65186740 65928072 66620456 67211232 
1133.470 67659416 67947008 68080592 68092872 68032760 67961112 67939456 
1136.845 68016288 68224824 68576072 69058408 69637384 70259128 70860464 
1140.221 71367960 71711552 71833984 71690768 71258240 70531336 69521216 
1143.596 68250608 66750608 65060548 63222676 61283368 59292632 57296916 
1146.971 55340624 53463064 51693000 50051688 48551744 47198044 45990928 
1150.346 44927468 44003536 43214076 42553496 42016580 41598056 41293608 
1153.722 41100488 41017236 41043236 41177636 41417884 41759696 42197036 
1157.097 42722656 43329964 44013396 44768428 45591560 46479268 47427780 
1160.472 48432672 49488644 50588548 51722824 52876680 54029412 55155416 
1163.847 56222604 57196172 58043524 58732284 59235704 59532928 59608448 
1167.223 59455108 59074224 58477376 57684876 56724216 55628492 54429860 
1170.598 53159328 51845340 50511308 49179508 47871240 46605928 45403468 
1173.973 44281964 43255836 42336728 41532352 40847312 40284728 39847052 
1177.348 39537156 39358164 39312860 39403912 39633412 40004124 40519784 
1180.724 41186380 42010740 43000672 44163176 45502508 47021404 48719628 
1184.099 50595064 52641272 54844024 57179732 59607724 62069972 64497016 
1187.474 66804052 68904024 70718272 72174504 73220592 73826312 73984768 
1190.849 73714000 73055040 72070368 70831720 69418112 67910280 66377944 
1194.225 64882688 63474052 62184852 61035128 60031272 59168036 58430560 
1197.600 57796520 57240660 56733656 56245644 55748236 55212152 54610516 
1200.975 53920156 53122252 52207380 51177140 50046672 48841968 47597600 
1204.350 46353648 45146524 44007716 42960504 42017820 41184852 40460244 
1207.726 39838664 39312204 38871560 38507140 38209084 37969016 37781416 
1211.101 37644444 37560692 37536020 37578288 37694712 37890264 38167404 
1214.476 38526548 38965680 39482284 40072504 40730480 41447520 42212520 
1217.851 43012308 43833468 44665552 45500960 46335696 47168420 47999004 
1221.227 48828104 49657448 50491136 51337092 52206932 53116484 54082736 
1224.602 55121408 56245416 57462316 58772644 60169092 61636340 63149520 
1227.977 64672604 66163892 67576024 68860544 69977984 70897640 71602960 
1231.352 72092864 72381840 72501240 72495448 72427672 72374080 72415584 
1234.728 72641704 73135568 73967680 75198096 76868512 79004656 81619160 
1238.103 84712128 88270712 92265152 96650200 101358600 106299336 111371544 
1241.478 116459080 121438200 126192480 130602064 134553312 137949296 
1244.371 140706768 142768384 144106752 144721600 144636816 143892192 
1247.264 142543584 140656240 138302704 135564624 132518096 129225584 
1250.157 125728936 122040232 118146848 114021264 109639648 104996896 
1253.050 100120192 95069104 89936536 84837704 79885776 75192624 70848880 
1256.426 66911996 63411048 60342104 57674960 55357788 53326188 51513072 
1259.801 49848356 48272192 46736972 45208364 43669696 42117988 40562308 
1263.176 39018852 37507264 36048048 34658128 33351668 32138742 31024240 
1266.551 30009400 29091266 28263606 27517894 26845394 26239396 25695474 
1269.927 25212346 24790650 24430908 24132722 23893834 23710744 23580834 
1273.302 23503284 23479570 23512798 23606372 23761732 23976424 24243460 
1276.677 24549994 24878710 25206798 25507092 25753236 25919602 25987594 
1280.052 25949674 25809632 25582084 25287146 24947276 24580534 24198334 
1283.427 23806252 23406548 23001904 22598962 22208458 21845170 21525146 
1286.803 21262110 21067048 20947662 20909172 20955660 21090770 21316674 
1290.178 21632850 22035212 22516316 23065038 23667460 24308386 24968228 
1293.553 25623838 26248688 26812650 27288354 27655944 27906984 28047880 
1296.928 28098672 28090612 28057670 28034590 28052546 28135472 28301374 
1300.304 28561386 28917448 29360862 29870210 30413914 30949618 31431730 
1303.679 31820278 32082372 32199152 32166000 31991198 31692878 31295788 
1307.054 30830652 30328952 29821056 29335410 28893224 28508026 28185888 
1310.429 27926310 27725692 27580630 27489760 27453580 27473770 27549736 
1313.805 27678120 27852398 28065552 28311312 28586688 28891560 29227584 
1317.180 29596608 29998678 30433000 30898206 31394258 31922224 32483074 
1320.555 33075898 33693884 34324436 34948364 35541544 36079980 36541872 
1323.930 36910816 37180620 37356192 37456552 37511820 37564884 37663560 
1327.306 37850896 38161004 38608384 39185268 39862560 40597740 41345648 
1330.681 42064836 42728836 43326816 43862864 44351132 44812100 45269152 
1334.056 45743572 46255008 46818856 47444008 48131912 48874672 49657748 
1337.431 50460432 51260016 52036056 52769700 53446428 54055044 54587520 
1340.807 55039444 55410372 55703668 55924920 56080256 56174256 56207892 
1344.182 56178516 56081124 55911012 55666232 55349020 54964416 54518544 
1347.557 54015380 53454144 52828856 52130676 51352796 50494560 49566484 
1350.932 48590172 47600704 46641152 45756940 44996224 44400932 44004232 
1354.308 43828484 43879764 44144616 44588144 45159944 45797068 46431220 
1357.683 47004124 47466812 47785900 47945976 47946456 47802396 47542144 
1361.058 47210824 46867796 46578076 46410612 46420384 46635876 47055448 
1364.433 47647180 48358220 49120032 49861956 50515184 51013000 51303568 
1367.809 51351524 51143704 50691088 50026000 49194536 48243832 47220204 
1371.184 46163680 45105644 44078160 43115884 42256484 41543032 41013628 
1374.559 40691324 40578860 40657376 40896060 41260740 41726724 42283112 
1377.934 42933328 43692488 44584256 45639584 46891712 48376108 50122564 
1381.310 52140988 54404056 56828060 59279000 61564516 63463852 64771212 
1384.685 65300444 64928128 63617460 61443464 58602536 55377700 52105496 
1388.060 49074472 46472892 44382216 42785984 41612936 40767712 40160484 
1391.435 39712628 39357912 39045784 38734788 38393904 38007276 37574420 
1394.811 37109768 36634728 36169424 35724728 35300684 34890840 34489384 
1398.186 34097400 33727432 33400972 33141478 32968036 32888006 32897904 
1401.561 32986198 33139228 33344832 33594136 33883628 34212964 34583488 
1404.936 34995264 35445760 35928936 36438120 36967096 37513156 38077224 
1408.312 38662856 39274012 39912072 40574784 41256588 41950628 42651448 
1411.687 43356584 44066936 44784624 45511044 46245828 46987400 47734636 
1415.062 48488908 49254544 50038192 50846836 51685352 52555740 53457332 
1418.437 54386596 55336108 56294716 57244404 58160300 59012388 59770964 
1421.813 60414372 60933472 61340340 61670324 61980688 62334148 62782876 
1425.188 63357220 64060688 64879536 65794764 66793232 67866616 69007880 
1428.563 70205456 71438416 72679464 73905536 75105648 76287000 77469800 
1431.938 78681288 79944040 81270720 82665456 84130608 85675936 87322472 
1435.313 89103600 91054784 93201296 95537576 98028400 100622768 103264792 
1438.689 105900752 108467296 110890512 113066232 114866440 116166432 
1441.582 116847224 116822640 116050112 114526040 112287184 109403264 
1444.475 105982152 102156160 98065360 93862376 89689824 85680584 81965160 
1447.850 78650152 75806752 73453960 71558656 70051800 68855648 67915976 
1451.225 67212360 66758612 66582680 66703936 67111176 67760256 68572040 
1454.601 69447928 70289824 71002472 71524160 71848128 72038064 72199512 
1457.976 72430064 72793696 73306840 73960216 74735704 75615128 76580528 
1461.351 77605712 78657736 79685456 80619576 81386592 81916144 82167616 
1464.726 82146872 81909592 81539520 81114840 80693384 80302264 79944632 
1468.102 79608600 79270984 78896400 78428816 77791672 76894376 75650040 
1471.477 74018320 72043032 69871176 67706200 65742992 64104424 62822544 
1474.852 61870828 61203516 60786944 60608996 60672320 60977432 61510608 
1478.227 62239264 63121004 64111300 65177492 66306100 67501784 68783512 
1481.603 70175592 71703112 73386392 75245616 77306784 79603416 82175616 
1484.978 85057584 88262304 91758152 95447000 99170248 102694048 105728984 
1488.353 107977872 109148336 109022432 107517944 104720056 100878168 
1491.246 96328984 91426800 86446408 81550232 76819512 72267320 67885832 
1494.621 63690468 59731952 56103332 52923092 50293064 48267528 46839964 
1497.997 45962232 45564508 45578972 45951992 46637832 47594492 48781128 
1501.372 50149044 51644076 53211420 54780192 56265860 57563536 58520824 
1504.747 58944904 58617440 57348940 55087776 51998964 48435228 44770960 
1508.122 41260960 37999468 34971636 32128464 29434680 26881524 24491796 
1511.498 22302066 20340144 18619950 17134038 15860613 14771738 13840002 
1514.873 13040262 12347146 11736758 11190528 10697993 10261279 9890522 
1518.248 9595343 9374877 9214221 9083669 8950991 8792791 8610584 8431866 
1522.105 8297022 8234748 8246736 8310768 8393590 8467137 8516435 8545292 
1525.963 8571246 8615620 8690590 8793433 8910641 9027440 9136860 9242550 
1529.820 9355207 9485265 9635283 9796975 9953575 10087171 10190108 10271423 
1533.678 10355570 10468245 10624272 10820166 11039701 11261694 11469137 
1537.053 11654112 11815435 11957166 12083134 12193156 12282653 12348850 
1540.428 12399613 12453688 12532325 12648943 12800944 12971740 13137959 
1543.803 13282069 13397624 13493932 13590021 13705248 13849922 14020550 
1547.179 14203912 14383994 14551097 14704348 14853539 15012145 15190882 
1550.554 15390838 15603320 15814565 16013674 16197123 16370740 16546525 
1553.929 16737122 16949608 17182090 17424800 17663678 17885734 18078126 
1557.304 18228690 18327974 18373910 18381306 18381238 18412210 18498850 
1560.680 18642466 18828344 19032474 19230400 19398304 19520004 19589600 
1564.055 19613276 19608180 19595908 19593724 19606688 19627140 19638026 
1567.430 19621698 19565094 19466322 19335284 19192200 19060830 18958744 
1570.805 18895650 18872428 18884646 18924896 18982730 19044972 19092750 
1574.181 19104834 19063182 18961202 18812532 18650942 18520010 18449926 
1577.556 18448234 18501442 18586716 18682312 18773952 18857652 18936628 
1580.931 19018144 19108572 19210588 19323126 19441616 19560346 19673076 
1584.306 19772104 19846598 19883120 19868136 19790588 19647318 19446156 
1587.682 19207230 18958606 18732438 18560744 18467870 18471398 18580560 
1591.057 18796510 19110306 19500248 19932238 20356776 20715764 20955102 
1594.432 21029244 20913622 20609886 20143968 19559896 18907556 18237742 
1597.807 17591938 17001152 16489701 16074117 15765188 15567842 15480172 
1601.183 15495108 15602667 15793638 16061326 16400158 16804174 17262070 
1604.558 17755310 18259270 18743196 19174226 19522844 19762150 19872230 
1607.933 19841324 19665102 19347478 18899596 18341074 17699120 17007216 
1611.308 16304856 15627706 15002713 14443935 13950368 13510338 13105175 
1614.684 12716220 12329181 11938638 11552223 11188658 10872245 10623287 
1618.059 10451918 10356215 10325099 10341114 10384618 10437018 10482399 
1621.434 10512134 10526901 10536881 10557183 10602066 10678908 10786333 
1624.809 10916890 11062372 11217558 11380386 11550725 11727396 11906386 
1628.185 12081226 12246082 12397874 12538703 12674017 12809919 12949039 
1631.560 13088988 13221673 13335025 13415599 13450833 13431695 13355629 
1634.935 13229461 13070139 12900908 12745563 12618754 12524345 12456383 
1638.310 12403772 12352293 12288891 12204743 12097035 11970858 11836375 
1641.686 11705985 11588021 11484208 11388141 11287640 11168531 11017780 
1645.061 10828795 10603934 10356555 10107892 9882048 9700365 9575053 9509277 
1648.918 9497627 9529632 9588941 9652865 9693217 9673532 9558219 9330595 
1652.776 9017190 8690928 8430311 8277029 8221478 8228637 8260582 8290234 
1656.633 8304284 8299049 8277805 8246331 8209491 8167960 8119615 8059493 
1660.490 7982910 7886771 7770716 7637225 7492346 7344786 7204317 7080227 
1664.348 6978967 6902407 6847334 6805429 6765446 6714093 6639564 6534504 
1668.205 6398467 6238874 6068757 5903172 5754338 5628748 5527860 5449005 
1672.063 5386467 5332090 5275439 5203940 5106201 4977145 4822698 4661071 
1675.920 4514804 4402125 4328259 4285960 4260161 4235200 4200973 4155776 
1679.778 4106403 4063624 4035832 4023023 4014796 3991120 3929862 3814994 
1683.635 3649131 3457713 3280735 3150618 3076565 3047401 3042796 3045132 
1687.492 3042096 3028716 3004426 2971263 2932232 2890536 2850111 2816493 
1691.350 2795384 2790748 2802153 2823397 2841440 2840172 2804688 2728993 
1695.207 2622109 2509852 2423113 2380966 2383098 2410752 2437374 2433875 
1699.065 2378601 2266740 2116782 1966810 1854090 1796959 1789640 1813196 
1702.922 1845671 1869431 1872991 1850995 1804945 1742764 1676367 1617065 
1706.780 1572735 1546265 1535625 1536157 1542042 1549091 1554678 1559300 
1710.637 1564554 1572635 1584474 1599139 1614304 1627009 1635789 1640678 
1714.494 1643406 1644769 1644171 1637585 1619725 1587034 1541510 1492533 
1718.352 1453801 1436646 1445622 1477738 1524519 1576260 1624415 1665058 
1722.209 1698055 1726796 1755938 1788941 1827337 1870229 1915488 1961418 
1726.067 2007053 2051427 2092477 2127204 2151511 2162467 2160003 2147915 
1729.924 2132498 2119213 2109590 2098370 2073000 2016307 1913991 1761859 
1733.781 1575595 1386717 1231182 1130645 1085003 1078957 1091081 1103505 
1737.639 1102741 1082810 1044945 996057 946145 904572 877612 866922 870873 
1741.979 886046 908590 934656 960789 984599 1004957 1022426 1038435 1054809 
1746.318 1072281 1089985 1105564 1115862 1117922 1110016 1091580 1063412 
1750.176 1027010 984400 938939 895110 857294 829573 813307 806568 804145 
1754.515 798236 781174 747583 697434 636573 575256 523601 487012 464290 
1758.855 448336 429828 399979 354148 293169 223347 153537 91923 44037 11199 
1763.677 -8382 -17660 -20244 -19780 -20410 -26407 -40951 -64672 -94222 
1768.016 -123108 -143744 -151462 -146957 -136590 -130296 -138047 -165009 
1771.874 -208594 -257607 -297839 -318632 -316844 -296746 -266713 -234525 
1775.731 -204355 -176568 -149011 -119531 -87995 -57152 -31111 -13916 -7156 
1780.071 -8846 -14976 -21172 -25214 -28096 -32668 -41780 -56390 -74743 
1784.410 -93162 -107109 -113734 -112641 -105916 -95051 -81535 -65269 -45656 
1788.750 -23590 -2319 12491 13916 -3876 -42442 -97568 -159279 -216510 
1793.089 -260189 -286713 -297905 -298633 -294329 -288832 -284495 -282673 
1796.947 -284495 -291746 -305984 -328201 -357534 -391832 -426954 -458763 
1800.804 -484248 -502054 -512512 -516682 -515590 -509600 -499109 -484977 
1804.662 -468990 -453500 -440393 -430727 -423544 -416891 -408483 -397790 
1808.519 -385840 -375445 -369651 -370280 -376438 -384648 -390143 -389349 
1812.376 -380708 -365976 -348496 -332108 -319228 -310156 -303335 -295984 
1816.234 -285587 -270355 -249560 -223696 -193592 -160372 -125129 -89452 
1820.091 -54965 -22663 6991 34328 60109 84433 106704 124635 135804 138787 
1824.913 134810 128181 124436 128380 141836 162420 183866 199181 203391 
1829.253 195965 182573 172364 174817 195302 233160 282857 337137 389764 
1833.592 437224 479913 520350 562217 608137 659702 716849 779813 849027 
1837.932 925856 1011101 1105431 1207225 1314393 1423416 1531402 1636488 
1841.789 1737175 1833193 1925373 2015608 2107326 2205425 2314905 2438074 
1845.647 2573843 2716623 2857549 2986210 3092883 3171412 3220345 3242410 
1849.504 3242477 3225886 3195678 3151620 3092283 3015870 2922759 2816060 
1853.362 2700819 2581876 2462532 2344220 2225940 2107060 1988179 1871527 
1857.219 1760229 1656676 1560996 1471022 1383725 1296480 1209318 1124466 
1861.076 1045244 974471 912774 858257 807630 759134 712867 671317 637867 
1865.416 614474 600007 590020 578043 558535 530004 495271 461106 434670 
1869.756 420840 419812 428302 441403 455168 467607 478453 487708 494740 
1874.095 497958 495006 484491 466446 442365 414903 385619 354745 320524 
1878.435 281664 237039 188971 141505 99115 65411 40392 20775 1590 -21370 
1883.257 -50062 -83191 -117079 -147885 -173819 -195181 -214920 -235850 
1887.114 -259958 -286614 -313897 -338663 -358627 -373227 -381999 -385310 
1890.971 -383092 -374319 -359057 -338729 -316414 -296514 -282740 -275952 
1894.829 -273932 -271547 -263137 -245122 -217702 -184384 -150568 -120293 
1898.686 -95548 -75008 -55794 -34888 -11431 13187 36747 57226 73530 86919 
1903.508 99148 111079 122314 130998 135207 133981 128612 121154 114294 
1907.848 108759 103721 96662 86223 72602 58949 49173 47152 53249 65278 78369 
1913.152 87847 91393 89570 85229 80887 76811 70614 57855 34626 530 -40322 
1918.456 -80972 -114562 -138875 -156066 -172362 -194188 -225253 -264163 
1922.313 -305256 -340583 -364619 -375809 -376835 -372796 -368029 -363659 
1926.170 -358097 -349059 -335418 -319625 -306845 -301779 -307010 -321115 
1930.028 -338829 -354455 -364056 -367930 -369949 -375445 -387098 -404113 
1933.885 -422154 -435759 -441551 -440823 -437877 -439002 -448734 -466541 
1937.743 -487624 -505198 -513340 -509600 -496064 -476768 -456909 -440293 
1941.600 -427847 -420201 -417553 -420598 -430462 -445821 -462139 -471638 
1945.458 -466674 -442015 -397890 -341312 -283104 -233234 -197831 -175674 
1949.315 -160206 -143811 -120028 -87995 -51089 -14976 16633 41585 60970 
1953.655 75220 82710 78236 56729 14049 -47577 -121088 -194519 -256448 
1957.994 -300388 -325949 -339557 -347668 -355117 -360613 -359554 -347006 
1961.852 -322407 -291316 -263037 -246381 -245122 -255719 -269395 -275687 
1965.709 -268402 -247440 -219093 -191571 -170341 -156000 -145400 -135165 
1969.566 -125228 -118901 -122644 -140498 -169613 -201805 -223696 -223398 
1973.424 -196572 -147123 -83224 -13783 58916 140444 241581 369900 525061 
1977.763 693950 854505 985131 1069956 1103339 1090716 1043251 971980 886145 
1982.103 792095 695111 602562 524596 470493 446545 450691 473047 499252 
1986.443 515241 512587 493314 466545 443294 433476 439778 457722 479813 
1990.782 499119 512620 522108 533354 550075 573995 603491 635047 665742 
1995.122 695509 724914 754753 783365 806236 817755 813572 793589 762221 
1999.461 727072 695377 671051 653596 637535 616963 589357 554752 517729 
2003.801 483661 456727 437092 423062 411620 403063 399117 403627 419513 
2008.141 445151 476231 505488 528942 546425 563080 585508 619883 665874 
2012.480 717646 765042 799165 815199 814966 804908 794120 790535 796609 
2016.820 812543 836412 866258 902016 944584 992702 1042753 1089753 1128187 
2021.159 1155727 1174598 1190745 1210315 1238126 1272486 1307148 1334699 
2025.017 1349423 1350254 1342643 1334567 1333503 1343407 1363317 1388545 
2028.874 1415304 1442597 1471853 1507395 1551585 1603429 1659803 1716217 
2032.732 1768480 1818187 1868732 1924008 1986348 2053059 2117748 2173356 
2036.589 2215150 2242393 2259079 2271902 2285625 2302680 2322100 2340755 
2040.447 2355746 2366840 2374536 2380966 2387229 2391827 2392660 2388362 
2044.304 2378967 2367673 2359078 2358378 2368939 2391927 2425845 2469596 
2048.161 2521783 2580643 2642743 2702220 2749666 2775009 2771907 2739396 
2052.019 2685349 2622742 2567977 2533947 2526382 2541946 2571643 2603908 
2055.876 2631109 2651511 2668880 2689350 2716656 2750000 2783679 2810291 
2059.734 2824031 2823931 2813926 2800653 2791315 2788381 2790648 2794650 
2063.591 2795784 2792049 2784779 2776343 2769440 2764871 2760837 2754068 
2067.448 2741830 2723791 2701386 2678448 2657845 2640743 2627109 2614975 
2071.306 2602809 2590442 2578643 2568310 2560444 2553678 2546046 2536414 
2075.163 2525216 2514718 2508919 2511618 2523749 2544079 2568343 2591475 
2079.021 2609708 2621542 2627342 2629376 2628842 2626242 2620809 2612142 
2082.878 2600142 2587209 2576209 2569610 2568743 2572910 2579342 2585742 
2086.736 2590709 2593909 2596408 2598542 2598675 2593575 2579443 2552812 
2090.593 2513551 2465031 2413484 2366274 2330128 2308409 2302247 2310541 
2094.450 2330661 2359677 2395059 2433242 2469763 2501054 2523449 2536447 
2098.308 2542680 2546912 2554611 2569177 2590575 2615409 2638810 2656612 
2102.165 2668446 2677548 2690017 2711122 2743898 2786780 2835036 2882664 
2106.023 2924927 2960221 2989913 3017805 3046400 3077032 3109335 3141607 
2109.880 3173114 3204656 3237403 3272789 3311016 3349815 3385143 3413094 
2113.738 3430995 3438910 3439478 3436538 3433700 3433499 3436839 3443586 
2117.595 3453939 3469002 3489811 3517735 3552276 3590895 3629851 3665036 
2121.452 3692938 3712655 3725053 3732606 3738421 3745406 3755232 3769303 
2125.310 3788287 3811618 3838260 3865371 3888773 3904419 3908297 3898836 
2129.167 3877540 3847954 3814292 3780834 3750453 3723883 3701961 3686689 
2133.025 3680006 3686556 3708945 3747278 3798014 3855342 3911072 3959955 
2136.882 3999380 4030313 4054761 4074460 4088107 4092622 4084896 4063591 
2140.740 4032220 3997273 3967512 3949322 3945644 3953034 3965004 3973933 
2144.597 3973933 3962363 3938589 3903851 3858585 3803429 3739491 3670015 
2148.454 3601252 3540350 3492416 3458381 3431663 3400905 3353287 3279366 
2152.312 3177052 3052540 2917988 2785013 2662679 2555278 2462432 2384897 
2156.169 2328629 2303946 2325998 2407387 2550545 2744398 2966793 3190871 
2160.027 3391021 3552910 3670449 3745172 3782839 3790293 3774082 3742365 
2163.884 3703966 3667977 3642415 3629484 3625374 3621532 3605996 3568879 
2167.741 3506578 3421844 3322001 3217107 3115876 3022209 2938203 2864153 
2171.599 2800219 2749799 2716656 2702520 2707221 2725892 2750466 2772841 
2175.456 2786980 2789515 2780511 2760636 2729060 2684116 2624176 2549279 
2179.314 2464398 2378967 2303946 2250952 2227272 2231635 2257880 2295218 
2183.171 2332560 2360977 2377201 2380066 2372437 2358811 2343154 2330395 
2187.029 2324998 2331028 2350283 2383232 2426045 2473228 2518950 2557011 
2190.886 2584576 2600775 2607542 2606942 2601842 2594709 2587942 2584009 
2194.743 2586109 2595942 2614409 2639143 2665880 2689250 2704320 2708921 
2198.601 2704153 2694151 2682949 2674181 2669780 2668813 2670447 2674647 
2202.458 2681749 2693151 2710588 2732994 2757969 2780911 2798052 2806655 
2206.316 2807889 2804388 2800053 2798585 2801320 2807856 2817494 2828566 
2210.173 2840839 2854347 2868989 2883065 2894439 2900476 2899709 2893171 
2214.031 2883832 2875793 2872558 2875527 2882531 2890436 2895406 2895306 
2217.888 2890903 2885033 2880530 2880029 2883932 2890603 2898108 2904612 
2221.745 2908815 2910717 2909616 2904279 2893105 2875560 2852379 2827466 
2225.603 2806322 2793783 2793516 2804621 2821996 2838672 2847977 2845976 
2229.460 2833536 2814859 2794717 2778243 2768039 2763304 2762604 2765138 
2233.318 2770240 2779110 2792883 2811324 2833035 2856182 2878595 2900009 
2237.175 2921891 2946610 2976268 3011366 3049603 3087611 3121650 3149617 
2241.032 3171579 3189569 3205825 3221847 3237336 3250689 3260471 3266279 
2244.890 3270018 3274659 3283706 3299698 3322602 3350616 3380535 3409087 
2248.747 3433633 3452703 3465862 3472743 3473845 3470004 3463057 3456945 
2252.605 3455141 3461788 3479055 3506946 3541920 3579770 3615317 3643885 
2256.462 3662998 3670650 3666005 3648964 3620062 3581440 3536441 3490846 
2260.320 3450299 3419840 3401673 3394260 3393859 3395562 3395161 3392423 
2264.177 3389685 3390820 3399970 3419072 3446257 3477753 3508583 3534470 
2268.034 3553545 3566039 3573021 3576395 3577498 3576963 3575193 3572988 
2271.892 3571351 3571585 3574424 3579269 3585249 3590728 3595071 3598980 
2275.749 3604459 3613346 3627112 3645756 3667108 3688594 3707976 3724184 
2279.607 3737887 3751054 3765225 3781636 3800086 3819407 3838895 3857749 
2283.464 3876470 3895325 3914884 3934142 3951863 3966409 3976674 3982894 
2287.322 3986539 3989314 3992558 3996504 4000082 4001487 3999949 3995534 
2291.179 3989582 3984700 3983195 3986104 3993528 4004296 4017037 4031016 
2295.036 4046467 4064092 4084628 4108276 4133932 4159456 4183375 4203984 
2298.894 4220713 4233728 4243431 4249922 4252934 4251796 4246175 4236839 
2302.751 4224795 4211947 4200137 4190602 4183977 4180499 4180565 4184613 
2306.609 4193613 4208534 4229445 4255175 4283718 4312028 4337228 4357476 
2310.466 4371666 4380435 4384920 4386728 4387598 4388803 4391849 4398074 
2314.323 4408718 4423748 4442627 4463850 4484975 4504225 4520396 4533052 
2318.181 4543699 4554212 4565865 4580263 4597877 4618438 4641880 4667535 
2322.038 4693659 4717240 4733720 4737371 4722633 4686023 4627514 4551098 
2325.896 4464252 4375984 4295798 4230114 4182205 4151528 4135170 4128580 
2329.753 4127543 4129684 4133263 4137746 4143332 4149989 4157817 4167552 
2333.611 4179929 4195788 4216062 4240654 4268727 4298877 4329531 4359316 
2337.468 4387732 4414810 4440685 4465826 4490130 4513599 4536299 4559135 
2341.325 4582842 4608493 4635920 4664018 4690176 4711646 4726452 4735027 
2345.183 4740352 4747990 4764874 4797168 4848966 4921144 5011601 5115756 
2349.040 5226643 5337591 5441522 5532323 5606595 5663222 5704111 5733119 
2352.898 5755312 5774820 5794060 5813604 5832308 5849099 5863339 5875564 
2356.755 5887588 5901358 5918186 5938675 5962827 5989837 6019568 6052057 
2360.613 6087203 6125209 6165469 6206842 6248152 6288760 6328094 6366792 
2364.470 6405495 6443696 6480925 6515736 6546715 6572919 6595021 6613019 
2368.327 6628125 6640472 6649287 6653459 6652551 6647302 6640237 6635324 
2372.185 6636334 6646259 6666076 6694408 6729000 6767297 6807953 6850903 
2376.042 6897828 6950584 7011427 7080934 7159413 7246362 7340978 7442255 
2379.900 7549287 7661202 7776316 7893114 8009910 8125320 8238463 8348630 
2383.757 8454974 8556072 8649859 8733590 8804726 8861637 8904350 8934147 
2387.615 8953967 8966720 8974872 8979979 8982990 8984275 8984106 8982787 
2391.472 8980588 8976867 8970542 8960022 8943482 8920279 8890958 8858120 
2395.329 8824710 8794312 8769732 8752625 8743395 8741603 8747012 8759825 
2399.187 8780315 8809054 8846420 8891837 8944598 9003692 9068105 9138078 
2403.044 9213714 9295524 9384222 9479847 9582403 9691929 9808430 9931845 
2406.902 10061975 10198385 10339995 10485555 10634119 10785722 10941286 
2410.277 11102480 11270637 11445935 11626783 11809307 11988807 12160239 
2413.652 12319432 12463680 12592148 12704381 12801115 12882648 12949210 
2417.027 13000999 13039067 13064334 13078915 13084993 13084515 13079700 
2420.403 13072256 13063344 13054535 13046750 13040399 13035448 13031010 
2423.778 13026468 13021176 13015816 13012504 13014279 13024761 13047193 
2427.153 13083491 13134476 13199676 13278380 13369604 13473561 13590295 
2430.528 13720876 13865316 14023459 14194086 14375946 14567167 14766356 
2433.904 14971947 15183401 15400038 15622038 15849857 16084811 16328560 
2437.279 16582154 16846642 17121836 17407002 17700950 18002588 18311280 
2440.654 18627144 18950818 19283046 19624020 19973800 20331916 20697728 
2444.029 21070980 21451548 21839142 22233426 22633274 23037120 23443652 
2447.405 23851790 24260766 24670586 25081036 25490754 25898112 26300080 
2450.780 26693400 27075828 27445426 27801562 28144240 28473494 28788944 
2454.155 29089636 29373838 29639530 29884548 30106338 30301666 30466870 
2457.530 30597504 30689738 30740272 30747848 30712390 30635476 30519616 
2460.906 30366616 30178542 29956856 29703034 29419608 29109868 28777826 
2464.281 28428530 28067108 27698144 27327414 26960348 26603596 26264174 
2467.656 25948936 25663344 25411422 25194402 25011888 24862290 24744558 
2471.031 24658066 24603150 24580534 24589544 24627872 24691104 24772688 
2474.406 24866080 24965034 25064960 25162804 25257154 25346716 25430708 
2477.782 25507970 25577024 25637192 25687496 25727676 25756998 25774718 
2481.157 25779886 25771940 25750388 25716180 25670762 25616246 25554742 
2484.532 25488012 25417148 25342956 25266110 25187802 25109050 25031052 
2487.907 24954120 24877622 24799876 24718110 24630046 24533832 24428630 
2491.283 24314938 24193780 24066352 23933568 23795470 23651540 23500940 
2494.658 23342036 23173266 22993378 22801380 22597180 22381844 22157546 
2498.033 21926850 21692652 21457500 21221886 20985808 20747912 20506638 
2501.408 20261504 20013732 19765272 19519344 19279168 19046912 18823534 
2504.784 18609160 18402948 18204258 18012776 17828490 17651806 17483264 
2508.159 17323100 17171506 17028926 16895486 16771559 16656721 16549865 
2511.534 16448919 16351266 16254563 16157540 16060261 15964068 15871370 
2514.909 15784053 15703313 15629046 15560905 15498062 15440859 15390770 
2518.285 15349576 15319542 15301728 15295791 15300012 15311956 15328947 
2521.660 15348786 15370309 15392794 15415762 15439005 15462386 15486044 
2525.035 15510389 15536143 15563961 15593737 15624958 15655976 15684830 
2528.410 15709702 15729629 15743989 15753094 15756978 15755190 15747288 
2531.786 15732273 15710011 15681464 15648521 15614208 15581408 15552147 
2535.161 15527593 15507677 15491709 15478696 15468154 15459811 15453424 
2538.536 15448996 15446180 15444395 15443846 15444498 15446798 15451468 
2541.911 15458507 15466918 15475777 15483675 15489477 15493152 15495761 
2545.287 15497958 15500946 15504551 15507539 15508500 15506063 15499641 
2548.662 15490061 15479245 15469047 15461356 15457098 15455382 15455622 
2552.037 15456412 15456755 15456514 15455588 15454523 15453906 15454317 
2555.412 15456206 15460120 15466266 15473819 15481373 15486524 15486765 
2558.788 15479794 15464514 15441717 15413290 15381844 15349507 15317208 
2562.163 15284465 15249596 15210818 15167171 15118554 15066307 15012556 
2565.538 14959292 14908024 14859676 14814762 14773761 14737424 14706952 
2568.913 14682926 14665790 14654824 14649340 14648243 14650642 14656982 
2572.289 14667812 14684401 14707672 14737630 14773692 14814797 14858991 
2575.664 14904664 14950478 14994892 15036806 15075294 15110184 15141918 
2579.039 15171838 15202239 15235354 15273276 15317070 15367082 15422800 
2582.414 15483365 15548610 15618363 15692836 15772128 15855871 15942620 
2585.790 16030967 16118610 16204175 16286829 16366577 16443895 16519574 
2589.165 16593995 16667841 16741358 16814814 16888872 16963494 17038748 
2592.540 17113668 17187500 17258794 17326684 17390760 17451600 17510136 
2595.915 17567854 17626132 17685592 17746646 17809504 17873926 17940290 
2599.291 18008908 18079992 18153988 18231074 18310970 18393752 18479418 
2602.666 18568282 18660590 18756412 18855680 18958086 19063322 19171214 
2606.041 19282180 19396952 19516432 19641286 19771896 19907506 20046940 
2609.416 20188536 20330422 20471382 20610406 20746972 20880698 21011264 
2612.792 21137974 21259604 21374724 21481800 21579360 21666424 21743088 
2616.167 21810362 21870014 21924306 21975642 22025312 22074254 22122192 
2619.542 22168218 22211560 22251564 22288394 22322750 22355644 22387810 
2622.917 22419976 22452390 22485084 22518272 22552436 22588594 22627374 
2626.292 22669438 22714682 22762516 22812242 22863020 22914956 22968610 
2629.668 23024996 23085304 23150234 23219262 23291518 23365148 23438092 
2633.043 23509334 23578210 23644682 23709834 23774786 23840378 23907556 
2636.418 23976496 24046914 24118468 24190558 24262588 24334388 24406302 
2639.793 24478756 24552554 24628398 24706360 24785948 24866430 24946224 
2643.169 25024700 25101012 25175654 25249780 25324726 25402112 25482778 
2646.544 25567394 25655684 25747610 25842652 25940740 26041594 26145568 
2649.919 26252278 26361478 26472818 26585492 26699672 26814836 26931580 
2653.294 27049874 27170668 27294140 27420684 27550512 27683842 27820568 
2656.670 27960446 28103126 28248190 28395172 28543624 28693644 28845136 
2660.045 28998166 29152492 29307724 29463046 29617396 29770202 29921002 
2663.420 30069834 30217046 30363418 30509484 30655744 30802300 30948978 
2666.795 31095742 31242732 31390126 31538322 31687886 31839178 31992658 
2670.171 32148518 32306824 32467362 32630142 32794516 32960028 33125926 
2673.546 33291668 33456978 33621664 33785844 33949404 34112452 34274524 
2676.921 34435004 34593640 34750468 34905776 35060852 35216880 35375552 
2680.296 35537952 35705448 35878584 36058376 36245524 36441072 36646156 
2683.672 36861764 37088188 37325536 37573412 37830976 38097552 38372692 
2687.047 38656008 38947520 39247172 39555048 39870844 40193992 40524076 
2690.422 40860528 41202740 41550436 41903700 42262660 42627908 42999904 
2693.797 43379392 43766580 44161304 44562960 44970608 45383164 45800016 
2697.173 46220656 46645396 47074612 47508428 47946756 48389336 48835440 
2700.548 49284500 49736360 50190732 50647932 51107064 51567356 52026752 
2703.923 52482748 52932108 53371900 53799564 54212416 54608524 54986040 
2707.298 55343296 55678960 55992272 56282684 56550116 56794564 57015988 
2710.674 57214280 57389024 57540612 57669512 57776684 57863784 57931704 
2714.049 57980892 58010692 58019632 58005960 57967900 57904900 57816960 
2717.424 57705156 57571064 57416248 57242328 57051088 56844980 56626736 
2720.799 56400080 56169200 55938636 55712448 55494552 55288612 55097632 
2724.175 54924596 54771964 54641588 54534776 54452056 54393168 54357416 
2727.550 54344612 54354376 54386560 54441316 54518092 54615776 54733096 
2730.925 54867860 55018196 55182652 55359516 55547264 55744092 55947680 
2734.300 56155176 56364352 56573328 56781084 56987804 57193752 57399272 
2737.676 57603828 57806096 58004596 58197768 58384808 58565904 58741952 
2741.051 58913976 59083296 59250476 59415860 59579904 59744120 59910188 
2744.426 60080660 60257816 60443692 60638256 60841332 61051216 61265936 
2747.801 61482628 61699464 61913356 62121620 62321296 62509516 62684028 
2751.177 62843948 62989408 63122124 63243872 63356912 63462860 63562304 
2754.552 63655212 63741116 63819096 63888380 63948108 63997440 64034916 
2757.927 64059532 64069248 64062492 64037532 63992532 63925840 63836024 
2761.302 63721856 63582904 63419180 63231648 63021972 62792524 62545596 
2764.677 62283856 62009812 61726316 61436172 61142828 60849644 60560012 
2768.053 60277344 60004336 59743664 59497628 59268172 59056988 58865596 
2771.428 58694616 58544064 58413048 58299616 58201972 58118180 58046176 
2774.803 57984640 57932044 57886800 57847204 57810448 57773468 57732480 
2778.178 57683324 57621272 57542392 57442344 57317860 57167220 56990484 
2781.554 56789504 56568348 56332400 56087192 55838244 55589812 55344688 
2784.929 55104628 54870152 54641252 54417580 54198228 53982024 53767688 
2788.304 53553164 53336904 53117536 52894532 52667940 52438632 52208168 
2791.679 51977860 51749700 51524748 51304648 51090664 50884236 50686540 
2795.055 50498804 50322044 50156964 50004324 49864892 49738584 49625836 
2798.430 49526376 49439556 49364600 49300532 49246048 49200512 49163220 
2801.805 49133908 49111832 49096324 49085824 49078816 49073580 49068424 
2805.180 49062380 49054956 49046500 49037376 49028548 49020424 49013300 
2808.556 49006628 48999320 48990156 48976916 48957332 48929740 48891916 
2811.931 48843412 48783688 48713028 48632120 48541484 48441712 48333368 
2815.306 48217656 48095896 47971472 47848044 47730388 47623552 47532644 
2818.681 47461932 47415252 47396112 47407200 47450440 47527432 47637972 
2822.057 47780904 47953820 48152788 48373816 48612292 48863916 49124520 
2825.432 49390328 49656560 49918636 50171432 50409896 50629648 50826832 
2828.807 50999100 51145048 51264492 51357568 51425708 51470692 51494604 
2832.182 51500648 51491732 51471176 51442156 51407580 51370436 51333924 
2835.558 51301032 51274636 51257336 51251032 51257000 51276276 51310432 
2838.933 51361708 51434136 51533108 51665088 51837500 52056860 52329100 
2842.308 52660016 53054408 53517856 54056280 54675412 55380372 56172520 
2845.683 57048252 57994748 58989616 60000380 60982196 61883860 62651420 
2849.059 63230804 63578912 63667296 63486712 63048592 62383528 61538556 
2852.434 60565040 59518376 58449704 57399272 56398836 55470000 54624340 
2855.809 53866592 53195504 52605852 52088948 51634372 51231532 50869260 
2859.184 50538000 50229864 49938228 49658340 49386432 49119180 48854056 
2862.560 48588984 48322408 48054072 47784752 47516784 47253708 47000984 
2865.935 46764460 46550560 46365740 46215316 46103104 46031412 46000540 
2869.310 46009528 46055652 46135272 46243396 46373780 46518876 46670592 
2872.685 46820256 46960004 47084324 47189732 47275880 47344824 47400140 
2876.061 47445668 47485588 47522884 47560000 47599300 47643260 47693956 
2879.436 47754052 47825184 47908496 48004036 48111036 48228204 48354148 
2882.811 48487760 48627564 48771932 48918764 49065200 49208008 49344072 
2886.186 49470600 49586096 49690848 49786520 49876748 49966032 50060092 
2889.562 50164512 50284172 50423552 50586688 50777224 50999584 51260016 
2892.937 51566348 51929352 52361136 52873876 53478876 54183512 54988372 
2896.312 55885496 56856988 57873968 58894924 59872804 60754552 61487968 
2899.687 62031176 62355756 62451928 62330056 62018908 61560772 61001608 
2903.063 60390724 59771916 59180112 58644476 58186552 57821920 57562968 
2906.438 57418140 57393524 57493520 57721356 58080680 58576292 59213640 
2909.813 59997604 60929356 62003316 63202672 64496784 65844624 67191976 
2913.188 68477880 69644664 70636984 71411784 71942600 72219264 72248456 
2916.563 72050536 71657432 71104992 70429504 69666992 68847456 67996256 
2919.939 67134584 66278732 65441332 64632380 63857900 63122160 62427100 
2923.314 61773412 61161100 60590028 60060188 59571388 59122552 58711648 
2926.689 58335236 57988236 57665160 57359828 57066468 56780136 56496676 
2930.064 56212908 55926540 55636324 55341828 55042940 54740276 54434144 
2933.440 54125032 53813368 53499416 53184268 52869648 52558508 52254544 
2936.815 51962288 51686172 51430520 51199248 50995784 50823556 50686096 
2940.190 50586576 50527352 50509600 50531520 50588884 50674592 50778824 
2943.565 50889340 50993328 51077360 51127640 51132820 51083508 50973916 
2946.941 50803328 50576044 50301992 49994136 49668964 49343036 49030700 
2950.316 48743872 48490280 48273416 48092896 47945608 47826184 47728016 
2953.691 47644668 47570164 47499336 47428780 47356092 47279976 47199892 
2957.066 47115788 47028088 46937264 46844912 46752504 46662068 46575012 
2960.442 46492508 46414664 46340932 46270376 46202488 46137888 46077608 
2963.817 46024116 45979692 45946028 45924188 45913988 45914500 45924924 
2967.192 45944740 45973836 46012844 46062764 46124624 46199100 46286816 
2970.567 46387936 46502392 46629572 46768888 46918548 47076016 47238084 
2973.943 47400732 47559368 47709120 47844272 47958444 48044708 48095672 
2977.318 48104148 48064396 47972728 47828440 47634240 47396368 47123212 
2980.693 46825128 46513644 46198692 45889788 45594540 45317732 45061608 
2984.068 44826280 44609072 44406072 44212512 44024068 43836916 43649108 
2987.444 43459988 43269636 43078596 42886108 42689464 42483516 42261160 
2990.819 42012928 41730588 41407424 41040832 40633180 40192320 39730636 
2994.194 39261820 38800148 38357020 37939148 37548628 37183256 36838388 
2997.569 36507884 36185916 35868792 35553556 35239588 34926964 34616316 
3000.945 34308980 34006340 33709672 33420366 33139408 32867492 32604746 
3004.320 32350692 32104884 31867132 31637668 31417340 31207412 31008688 
3007.695 30821580 30645716 30479522 30321030 30167922 30018384 29871062 
3011.070 29725528 29581710 29440138 29301450 29166278 29035042 28908240 
3014.446 28786182 28669116 28557212 28450816 28350040 28255154 28166122 
3017.821 28082872 28005364 27933132 27865824 27802906 27743882 27688152 
3021.196 27635076 27583912 27533816 27484076 27434202 27384016 27334366 
3024.571 27286450 27242454 27204954 27176416 27158710 27153030 27159096 
3027.947 27175500 27199450 27227108 27253708 27274206 27283626 27277804 
3031.322 27253778 27210352 27147776 27068422 26975368 26872676 26764510 
3034.697 26654680 26546462 26442286 26343662 26251150 26164464 26082512 
3038.072 26004338 25928746 25855628 25785090 25718078 25655684 25598496 
3041.448 25547222 25501118 25459868 25422592 25389080 25359290 25333402 
3044.823 25311346 25292626 25276190 25260666 25244864 25228708 25212838 
3048.198 25198652 25187802 25181340 25179234 25180288 25182500 25183660 
3051.573 25182184 25177550 25169894 25160274 25149706 25138788 25128114 
3054.948 25118038 25108594 25100450 25094238 25090586 25089884 25092166 
3058.324 25097536 25105542 25116388 25130150 25147636 25168878 25194050 
3061.699 25222670 25254028 25287638 25323182 25360906 25401690 25446552 
3065.074 25496022 25550384 25608970 25670516 25733266 25795322 25854678 
3068.449 25909928 25959594 26003178 26040892 26073468 26102356 26129346 
3071.825 26156020 26183152 26211028 26238866 26265724 26290928 26314020 
3075.200 26335284 26355844 26376230 26397250 26419152 26441724 26464542 
3078.575 26487610 26510678 26533992 26557838 26582108 26606662 26631216 
3081.950 26655314 26678884 26701822 26724550 26746890 26769268 26791364 
3085.326 26813286 26835630 26859176 26885048 26914590 26948396 26986968 
3088.701 27029914 27076640 27126966 27180366 27237092 27296894 27359138 
3092.076 27422308 27484640 27544406 27600542 27653330 27704502 27757020 
3095.451 27813326 27875858 27945182 28020912 28101326 28184226 28267778 
3098.827 28350676 28431748 28510680 28586864 28660126 28730424 28798398 
3102.202 28864894 28931330 28998770 29067990 29139274 29212168 29286102 
3105.577 29360686 29436026 29512764 29591642 29673338 29757568 29843484 
3108.952 29929380 30013732 30095294 30173426 30248766 30322806 30397318 
3112.328 30474084 30554312 30638358 30725620 30814786 30903756 30990824 
3115.703 31074634 31154546 31231338 31306506 31382076 31459764 31540710 
3119.078 31624518 31709914 31794644 31876330 31953320 32025118 32092218 
3122.453 32156188 32219134 32282836 32348584 32417126 32488144 32561242 
3125.829 32636144 32712304 32789946 32869064 32950054 33032920 33117414 
3129.204 33202778 33288054 33372596 33455830 33537898 33619768 33702584 
3132.579 33787528 33875676 33966676 34059876 34153672 34246520 34337276 
3135.954 34425464 34511696 34596796 34682100 34768596 34856516 34945888 
3139.330 35036464 35127416 35218172 35308192 35396656 35483152 35567364 
3142.705 35649836 35731344 35813920 35899384 35989152 36083868 36182784 
3146.080 36284208 36385476 36484784 36581196 36674892 36767056 36859600 
3149.455 36953856 37050480 37149472 37249784 37350376 37450048 37548088 
3152.831 37644120 37738080 37829924 37920312 38010060 38100588 38193600 
3156.206 38290536 38391948 38497616 38605960 38714720 38821848 38925812 
3159.581 39026680 39125548 39224176 39324608 39428148 39535088 39644520 
3162.956 39755544 39866560 39976620 40085548 40193160 40300212 40407184 
3166.332 40514148 40621464 40728660 40834976 40939456 41041340 41139828 
3169.707 41234544 41325784 41413764 41498956 41582084 41662604 41740512 
3173.082 41814964 41885712 41952712 42016544 42078160 42138652 42199264 
3176.457 42259992 42321352 42383340 42446176 42510556 42577252 42646696 
3179.833 42718896 42793188 42867748 42940644 43010548 43076476 43138644 
3183.208 43198336 43257048 43316676 43378552 43443620 43511956 43583492 
3186.583 43657352 43732388 43807448 43880860 43952020 44020292 44085860 
3189.958 44149748 44213176 44277340 44343132 44410840 44480544 44551836 
3193.333 44624904 44699924 44777020 44855892 44936064 45015888 45094064 
3196.709 45169024 45240428 45308316 45374116 45438380 45502580 45566752 
3200.084 45630828 45694800 45758632 45823140 45889052 45956820 46026440 
3203.459 46097024 46167368 46236136 46303220 46368912 46434616 46501248 
3206.834 46568964 46636800 46702840 46764976 46822248 46875248 46926008 
3210.210 46977616 47032776 47093148 47158888 47228588 47300372 47372572 
3213.585 47444192 47515308 47586472 47658016 47729460 47800512 47869724 
3216.960 47936356 48000592 48062400 48122992 48183776 48245460 48308632 
3220.335 48374040 48441856 48511804 48583980 48657468 48731416 48805004 
3223.711 48877380 48948728 49020240 49092912 49168640 49248164 49331380 
3227.086 49417060 49503348 49588172 49670116 49748544 49823492 49895592 
3230.461 49965400 50033436 50100028 50165740 50231204 50296932 50363640 
3233.836 50431552 50499956 50568932 50637768 50706764 50776812 50848812 
3237.212 50923728 51001708 51082540 51164764 51247344 51329448 51411272 
3240.587 51493708 51577504 51662660 51748280 51832236 51912328 51986976 
3243.962 52056448 52122380 52187992 52256520 52330560 52411112 52497740 
3247.337 52588836 52682908 52778456 52875184 52972684 53070992 53169252 
3250.713 53266704 53362416 53455792 53546716 53636268 53726028 53817232 
3254.088 53910552 54006072 54103076 54200100 54295912 54389188 54479104 
3257.463 54565504 54648504 54728324 54805868 54881696 54956596 55031280 
3260.838 55106060 55181072 55256812 55332948 55409580 55486752 55564056 
3264.214 55641372 55717796 55792504 55864548 55933884 56000376 56065288 
3267.589 56129688 56194772 56261600 56330704 56402080 56475580 56551096 
3270.964 56628136 56706356 56784784 56861752 56935444 57004504 57068096 
3274.339 57126668 57182264 57237336 57294612 57355900 57422224 57493256 
3277.715 57568188 57645940 57726048 57808140 57892292 57978580 58066668 
3281.090 58156132 58246488 58337436 58429272 58523020 58619600 58719196 
3284.465 58821888 58927144 59033452 59140280 59246716 59353216 59459972 
3287.840 59567968 59678236 59791344 59907984 60028456 60153112 60281952 
3291.216 60414904 60551744 60692172 60836380 60984904 61138520 61298212 
3294.591 61464956 61638436 61818068 62002240 62189364 62378440 62569208 
3297.966 62762348 62958492 63158788 63363240 63571012 63781260 63992992 
3301.341 64206132 64421684 64641072 64866112 65098888 65340340 65591024 
3304.717 65851064 66119864 66396588 66680096 66968544 67259904 67552528 
3308.092 67845000 68137528 68431448 68729136 69032808 69344096 69663296 
3311.467 69989320 70320752 70656392 70995912 71340232 71690528 72047448 
3314.842 72411392 72780968 73154032 73529264 73905488 74283336 74664112 
3318.218 75049128 75439280 75833936 76231312 76629024 77024760 77416744 
3321.593 77803832 78186048 78563632 78937368 79308128 79677576 80046808 
3324.968 80417248 80788872 81160656 81530600 81895224 82251416 82597000 
3328.343 82931232 83254208 83567016 83870608 84164272 84447312 84717200 
3331.719 84971832 85209344 85428000 85626904 85804624 85959928 86092008 
3335.094 86200776 86287584 86355368 86407760 86447864 86477016 86494448 
3338.469 86496832 86480488 86441232 86376064 86283944 86165016 86019784 
3341.844 85848640 85651528 85428120 85178344 84902528 84601272 84275456 
3345.219 83925184 83549624 83148104 82719896 82266152 81789448 81293728 
3348.595 80783728 80263432 79735216 79199440 78655472 78101752 77537728 
3351.970 76963280 76379240 75786912 75187896 74583336 73974832 73365128 
3355.345 72756952 72154672 71562088 70981712 70414616 69860096 69315992 
3358.720 68780600 68252704 67732568 67221944 66723212 66237940 65766892 
3362.096 65309876 64865300 64431288 64006656 63590340 63181936 62781804 
3365.471 62390144 62007748 61635496 61274328 60925656 60590372 60268512 
3368.846 59959108 59660600 59370424 59085876 58805572 58527912 58252476 
3372.221 57979376 57708148 57438148 57168128 56896348 56620888 56340208 
3375.597 56052584 55757240 55453440 55140628 54819248 54489996 54153972 
3378.972 53812732 53467708 53119408 52767864 52412312 52051704 51684716 
3382.347 51310320 50928124 50538296 50141380 49737992 49329520 48917352 
3385.722 48503060 48088232 47674468 47262688 46853364 46446452 46041472 
3389.098 45638040 45235944 44835172 44436092 44039248 43645076 43254408 
3392.473 42867896 42486552 42110944 41741240 41376920 41016176 40656792 
3395.848 40296432 39933680 39568368 39202236 38838624 38480780 38131300 
3399.223 37791500 37460380 37135684 36814300 36493688 36171764 35847636 
3402.599 35521196 35192268 34861504 34529168 34196616 33865792 33538722 
3405.974 33217944 32904874 32599390 32299682 32003146 31706634 31408328 
3409.349 31108128 30807636 30509876 30218112 29934528 29660034 29393798 
3412.724 29134244 28879130 28626750 28375966 28125680 27875892 27626600 
3416.100 27377982 27130740 26885542 26643724 26406194 26174038 25947282 
3419.475 25726516 25511028 25300704 25095114 24894186 24697976 24506134 
3422.850 24317744 24131848 23947364 23763202 23579118 23394906 23210872 
3426.225 23027618 22845836 22665702 22487910 22312740 22140602 21971670 
3429.601 21805554 21641348 21478006 21314306 21149626 20984068 20818992 
3432.976 20656236 20497050 20342886 20193570 20048570 19906602 19767076 
3436.351 19629846 19495604 19364974 19238434 19115326 18993912 18871944 
3439.726 18746690 18616632 18481424 18341938 18200250 18059128 17920814 
3443.102 17786790 17657742 17532630 17409970 17287410 17162406 17033576 
3446.477 16900482 16764395 16628111 16495001 16368298 16249714 16139071 
3449.852 16034165 15931346 15827108 15718497 15604213 15484773 15361865 
3453.227 15237310 15112996 14989748 14867802 14747468 14628846 14512724 
3456.603 14399578 14289714 14182583 14077052 13971377 13863777 13753297 
3459.978 13639835 13523703 13406646 13289756 13174776 13063071 12955730 
3463.353 12853773 12757335 12666478 12580108 12496893 12414069 12330101 
3466.728 12243662 12154480 12063307 11971675 11880471 11790241 11700505 
3470.104 11610414 11518878 11425456 11330117 11233777 11137935 11043168 
3473.479 10950631 10860491 10773358 10689504 10609468 10533622 10462305 
3476.854 10394833 10329917 10266199 10202353 10137263 10070825 10003245 
3480.229 9935065 9866930 9799111 9731708 9664791 9599239 9535593 9475241 
3484.087 9418759 9367056 9319694 9275688 9233987 9193577 9153509 9113647 
3487.944 9073992 9034646 8995573 8957045 8918792 8880439 8842193 8804017 
3491.802 8765675 8727404 8689306 8651853 8615823 8582735 8553504 8529748 
3495.659 8511737 8499641 8493153 8491159 8492849 8497782 8505520 8515285 
3499.516 8526606 8538499 8550023 8560972 8571887 8585135 8603419 8630424 
3503.374 8669023 8720305 8783898 8857139 8936413 9017663 9097339 9173136 
3507.231 9244073 9310790 9375419 9441107 9511716 9590770 9680646 9782098 
3511.089 9893538 10011552 10132039 10251000 10365344 10474015 10577689 
3514.464 10677754 10775905 10873333 10970169 11065804 11159624 11251118 
3517.839 11340183 11427089 11511222 11591492 11664902 11727873 11776350 
3521.214 11807196 11818227 11809511 11782580 11739924 11684473 11618275 
3524.590 11542696 11457366 11361100 11252071 11128927 10991170 10839699 
3527.965 10676769 10505786 10329816 10151338 9971815 9791146 9608791 9423770 
3531.822 9236052 9046149 8855110 8663683 8472205 8280102 8086666 7891461 
3535.680 7694455 7497032 7301755 7110640 6925569 6747475 6575980 6410539 
3539.537 6250774 6096545 5948215 5806753 5671749 5542760 5418339 5296100 
3543.395 5174029 5050183 4923490 4793316 4659731 4522974 4384385 4245940 
3547.252 4110116 3979784 3857448 3744337 3639441 3541185 3446157 3351484 
3551.109 3255162 3156860 3057745 2959954 2865420 2775209 2689683 2608242 
3554.967 2530348 2455901 2385031 2317836 2254283 2193170 2132831 2071669 
3558.824 2008384 1942513 1874921 1806608 1739204 1673407 1609682 1548127 
3562.682 1488676 1431095 1375216 1319511 1261221 1197224 1122971 1036243 
3566.539 937412 830835 724383 626187 543506 479316 432415 398719 372520 
3570.879 348710 323740 295357 262766 226165 185457 140875 92950 42181 -9675 
3575.700 -61227 -110521 -156728 -199752 -240221 -279230 -317672 -355978 
3579.558 -393818 -430826 -466376 -500201 -531840 -561325 -587896 -610992 
3583.415 -630745 -648015 -665649 -687384 -718215 -762341 -822138 -896112 
3587.273 -979198 -1063426 -1139672 -1200640 -1242668 -1265366 -1271973 
3590.648 -1267645 -1258263 -1249673 -1247195 -1254628 -1274154 -1305240 
3594.023 -1345111 -1389570 -1433693 -1472991 -1505087 -1529487 -1547812 
3597.398 -1562570 -1576997 -1593669 -1614235 -1639059 -1667281 -1697283 
3600.774 -1726623 -1752365 -1772363 -1785265 -1790446 -1789390 -1783813 
3604.149 -1776421 -1769822 -1766786 -1769063 -1778566 -1796814 -1824432 
3607.524 -1861649 -1906879 -1957052 -2007319 -2052962 -2090621 -2118814 
3610.899 -2139257 -2155050 -2170281 -2188480 -2210304 -2234665 -2258563 
3614.275 -2278604 -2293040 -2302302 -2309025 -2316408 -2328305 -2346563 
3617.650 -2371971 -2403078 -2437148 -2471216 -2502843 -2530152 -2552717 
3621.025 -2570208 -2583284 -2592638 -2598567 -2601202 -2599785 -2593165 
3624.400 -2579891 -2559206 -2532491 -2504325 -2482385 -2476685 -2497539 
3627.776 -2550510 -2633148 -2731873 -2826492 -2896539 -2931492 -2932907 
3631.151 -2911251 -2880016 -2851543 -2833438 -2827710 -2831529 -2839100 
3634.526 -2845223 -2846902 -2844992 -2842491 -2843314 -2849700 -2861780 
3637.901 -2876823 -2892128 -2905030 -2914805 -2922770 -2930669 -2940246 
3641.277 -2951666 -2962921 -2970884 -2972332 -2965093 -2948835 -2925436 
3644.652 -2898349 -2872379 -2851905 -2841404 -2844696 -2863986 -2900126 
3648.027 -2951764 -3015637 -3086278 -3156480 -3218546 -3264819 -3289943 
3651.402 -3291160 -3270311 -3231866 -3182728 -3131710 -3087331 -3057358 
3654.778 -3047356 -3058707 -3087857 -3127137 -3166907 -3198615 -3217889 
3658.153 -3224532 -3221737 -3213679 -3204009 -3194833 -3187366 -3180952 
3661.528 -3175229 -3169440 -3163355 -3156578 -3148618 -3138947 -3126710 
3664.903 -3111511 -3093911 -3075520 -3058707 -3046468 -3042684 -3051140 
3668.279 -3074072 -3113057 -3165591 -3225289 -3281657 -3323582 -3342193 
3671.654 -3334828 -3305497 -3263668 -3222657 -3195753 -3194405 -3224368 
3675.029 -3281459 -3350906 -3413898 -3455417 -3470603 -3464654 -3447955 
3678.404 -3431157 -3420539 -3417810 -3419947 -3422215 -3420177 -3411729 
3681.780 -3397822 -3381220 -3364682 -3349229 -3333973 -3317105 -3297375 
3685.155 -3275441 -3254953 -3241009 -3239727 -3254855 -3287050 -3332230 
3688.530 -3382864 -3430894 -3469880 -3497523 -3513859 -3521253 -3520826 
3691.905 -3513793 -3500810 -3482765 -3461630 -3440493 -3421755 -3407784 
3695.281 -3398480 -3392529 -3386973 -3379083 -3366491 -3349624 -3330323 
3698.656 -3312238 -3299447 -3295501 -3302275 -3319670 -3345218 -3374611 
3702.031 -3402195 -3423005 -3433721 -3433097 -3422281 -3403641 -3380398 
3705.406 -3355443 -3331046 -3308292 -3287411 -3268601 -3252388 -3240154 
3708.781 -3234399 -3238082 -3253506 -3281262 -3319571 -3364189 -3408606 
3712.157 -3446772 -3473825 -3487104 -3487038 -3475435 -3455713 -3430500 
3715.532 -3402819 -3375006 -3349032 -3326147 -3307503 -3293528 -3284090 
3718.907 -3278894 -3277250 -3278829 -3283301 -3290305 -3299118 -3308753 
3722.282 -3318091 -3326048 -3332000 -3336537 -3340746 -3346336 -3354358 
3725.658 -3364386 -3374348 -3379938 -3376551 -3360737 -3331178 -3290502 
3729.033 -3243805 -3198582 -3162598 -3141480 -3137664 -3149013 -3169834 
3732.408 -3192662 -3211771 -3225716 -3238345 -3255710 -3283202 -3322497 
3735.783 -3368792 -3412912 -3444832 -3457554 -3450947 -3428757 -3397198 
3739.159 -3361756 -3324931 -3286786 -3246469 -3204535 -3164999 -3136743 
3742.534 -3132006 -3162236 -3231965 -3331967 -3437995 -3518460 -3550767 
3745.909 -3530325 -3469387 -3388321 -3307799 -3245646 -3212429 -3211640 
3749.284 -3238345 -3283104 -3333808 -3380628 -3417547 -3441742 -3451144 
3752.660 -3444109 -3419487 -3378491 -3325325 -3266398 -3210324 -3163716 
3756.035 -3131907 -3116643 -3116544 -3127631 -3146052 -3167828 -3190458 
3759.410 -3211870 -3229663 -3240648 -3241700 -3231373 -3211376 -3185721 
3762.785 -3160953 -3143585 -3137302 -3142203 -3153749 -3165427 -3170295 
3766.161 -3164867 -3150427 -3132894 -3119670 -3117038 -3128223 -3151710 
3769.536 -3181972 -3210916 -3231768 -3240450 -3237063 -3224828 -3208120 
3772.911 -3191576 -3178222 -3168716 -3162039 -3156019 -3148256 -3137269 
3776.286 -3123683 -3110327 -3101379 -3101477 -3113255 -3136019 -3165229 
3779.662 -3193122 -3211673 -3215882 -3205292 -3183978 -3158848 -3137763 
3783.037 -3125394 -3123749 -3130460 -3141151 -3151249 -3157565 -3160230 
3786.412 -3161348 -3163716 -3168716 -3176150 -3184011 -3189636 -3191214 
3789.787 -3188748 -3183189 -3176874 -3171578 -3167236 -3163058 -3158322 
3793.163 -3152368 -3146513 -3143322 -3145328 -3154013 -3167993 -3182794 
3796.538 -3192464 -3191313 -3177597 -3154013 -3127334 -3107432 -3104142 
3799.913 -3124703 -3169900 -3232886 -3299578 -3351991 -3375828 -3366030 
3803.288 -3326969 -3270245 -3209502 -3158322 -3126677 -3119045 -3133190 
3806.664 -3160164 -3187300 -3202266 -3198615 -3177104 -3143980 -3107432 
3810.039 -3074072 -3047488 -3026989 -3009616 -2991155 -2969568 -2945742 
3813.414 -2924416 -2912271 -2915826 -2937843 -2975327 -3018336 -3052950 
3816.789 -3068314 -3059431 -3030115 -2990333 -2953772 -2933367 -2939028 
3820.165 -2974439 -3034590 -3105787 -3169637 -3211113 -3223019 -3207561 
3823.540 -3173485 -3132828 -3096246 -3071111 -3060714 -3063281 -3073677 
3826.915 -3084666 -3089798 -3085653 -3072328 -3052193 -3029654 -3008628 
3830.290 -2992077 -2981119 -2974899 -2971575 -2968647 -2963941 -2956043 
3833.666 -2945018 -2932282 -2919874 -2911514 -2910889 -2921256 -2944195 
3837.041 -2978651 -3020343 -3062623 -3098451 -3122400 -3132433 -3130361 
3840.416 -3120097 -3106971 -3096016 -3090325 -3091081 -3097464 -3106708 
3843.791 -3115459 -3120591 -3119670 -3111906 -3097891 -3078711 -3055977 
3847.167 -3030576 -3002310 -2969766 -2931360 -2886105 -2835183 -2782774 
3850.542 -2737404 -2711096 -2716562 -2765522 -2861254 -2994907 -3141973 
3853.917 -3272252 -3361099 -3398381 -3389866 -3348966 -3291259 -3228281 
3857.292 -3168288 -3115525 -3071342 -3035775 -3008003 -2986976 -2971938 
3860.667 -2961473 -2954891 -2951962 -2953377 -2960716 -2975689 -2999086 
3864.043 -3028700 -3058773 -3080751 -3086771 -3071671 -3036762 -2989082 
3867.418 -2940970 -2905293 -2892589 -2907960 -2947387 -2998493 -3044362 
3870.793 -3071934 -3076145 -3061471 -3037979 -3017019 -3007082 -3010636 
3874.168 -3023962 -3038571 -3045711 -3038308 -3014913 -2978914 -2937383 
3877.544 -2898119 -2868758 -2854670 -2857929 -2876691 -2905689 -2936856 
3880.919 -2961835 -2974142 -2971115 -2954891 -2931623 -2909276 -2897065 
3884.294 -2901640 -2924712 -2961637 -3001850 -3032583 -3043507 -3031003 
3887.669 -2998954 -2956668 -2915003 -2884393 -2871951 -2879621 -2904010 
3891.045 -2936922 -2969140 -2992505 -3002409 -2998823 -2983784 -2960880 
3894.420 -2932940 -2902101 -2870207 -2838475 -2808880 -2783728 -2765390 
3897.795 -2755744 -2755645 -2764304 -2779251 -2797720 -2817275 -2836105 
3901.170 -2854374 -2873070 -2893708 -2916550 -2940772 -2963842 -2982040 
3904.546 -2991912 -2991221 -2979440 -2958610 -2931854 -2902825 -2874519 
3907.921 -2848910 -2826328 -2806280 -2787613 -2769275 -2751167 -2733519 
3911.296 -2717220 -2703028 -2691437 -2682184 -2674676 -2668617 -2664270 
3914.671 -2663051 -2666344 -2675236 -2690120 -2709350 -2730193 -2748961 
3918.047 -2763020 -2770921 -2772568 -2769506 -2763053 -2754690 -2745109 
3921.422 -2734671 -2723904 -2713730 -2705695 -2700954 -2700657 -2704115 
3924.797 -2709350 -2713368 -2713532 -2708132 -2697924 -2684917 -2671943 
3928.172 -2662162 -2657749 -2659198 -2666081 -2677409 -2691767 -2708000 
3931.548 -2725156 -2742080 -2756995 -2768090 -2773654 -2772633 -2765423 
3934.923 -2753373 -2738820 -2723904 -2710174 -2698089 -2687222 -2676586 
3938.298 -2665554 -2654456 -2644313 -2637067 -2634367 -2637463 -2646223 
3941.673 -2659758 -2675499 -2691042 -2703522 -2711293 -2713269 -2709614 
3945.049 -2701579 -2690877 -2679451 -2669374 -2662129 -2657947 -2656728 
3948.424 -2656761 -2656662 -2655214 -2651360 -2645202 -2637067 -2627681 
3951.799 -2617603 -2607789 -2598666 -2591222 -2586413 -2585194 -2587763 
3955.174 -2593560 -2600938 -2607525 -2610983 -2609172 -2601959 -2590497 
3958.550 -2576795 -2563883 -2554034 -2548632 -2547545 -2550279 -2554858 
3961.925 -2560029 -2564344 -2567078 -2567737 -2566387 -2563356 -2558975 
3965.300 -2554298 -2550444 -2548072 -2548039 -2550082 -2553211 -2556110 
3968.675 -2557295 -2555121 -2549785 -2541451 -2531338 -2520797 -2511013 
3972.051 -2502612 -2495793 -2490127 -2484823 -2479354 -2472863 -2464956 
3975.426 -2455368 -2444397 -2432569 -2420608 -2410031 -2401299 -2394972 
3978.801 -2391051 -2388843 -2387525 -2386075 -2384361 -2382318 -2380209 
3982.176 -2378924 -2378661 -2379847 -2382318 -2385317 -2388645 -2391545 
3985.552 -2393555 -2394676 -2394577 -2393753 -2392468 -2391314 -2391051 
3988.927 -2392006 -2394412 -2398004 -2401925 -2405648 -2408416 -2410064 
3992.302 -2410986 -2411909 -2413523 -2416094 -2419554 -2423442 -2427165 
3995.677 -2430130 -2432239 -2433854 -2435435 -2437247 -2439323 -2441432 
3999.052 -2443310 -2444661 -2445781 -2446934 
##END=
