##TITLE=1153_1_a
##JCAMP-DX=5.01  $$ Nicolet v. 1
##DATATYPE=INFRARED SPECTRUM
##ORIGIN=UniL
##OWNER=Nicolet
##LONGDATE=2011/09/29
##TIME=10:30:49
##SPECTROMETER/DATA SYSTEM=Nicolet iS5
##DATA PROCESSING=
Ratio against background
%Transmittance->Absorbance
Truncated
ElementMultiply or ElementDivide
##COMMENTS=
Number of sample scans: 32
Collection length: 51.16 sec
Sample gain: 2.0
Background collected on: Jeu Sep 29 10:28:28 2011 (GMT+02:00);
Number of background scans: 32
Background gain: 2.0
Sample spacing:  1.000
Number of scan points: 12415
Resolution points: 8192
Number of FFT points: 65536
Apodization: N-B fort;
Phase correction: Mertz;
Laser frequency: 15798.0 cm-1
Number of rejected sample scans: 0
Number of rejected background scans: 0
Bench serial number: ASB1000141;
##RESOLUTION=4.000
##XUNITS=1/CM
##YUNITS=ABSORBANCE
##FIRSTX=649.893372
##LASTX=4000.122314
##FIRSTY=0.089095
##MAXX=4000.122314
##MINX=649.893372
##MAXY=0.245592
##MINY=-0.003554
##XFACTOR=1.000000
##YFACTOR=1.000000E-009
##NPOINTS=6950
##DELTAX=0.482117
##ZPD=6100
##XYDATA=(X++(Y..Y))
649.893 89094936 88491432 87948288 87467288 87035288 86636360 86258688 
653.268 85904880 85589616 85334632 85156936 85064232 85050848 85103688 
656.643 85207736 85352976 85535632 85755864 86010248 86290128 86579736 
660.018 86862888 87130528 87382880 87629592 87882728 88152328 88439808 
663.393 88739264 89038808 89325648 89585680 89799656 89941024 89974248 
666.767 89863672 89600128 89226952 88843408 88557040 88435536 88479248 
670.142 88635304 88825640 88969984 89009928 88912856 88681880 88347736 
673.517 87956680 87549248 87146840 86753752 86362928 85968408 85572672 
676.892 85186008 84818456 84471624 84133824 83783960 83399200 82967496 
680.267 82492584 81994056 81496224 81022280 80583872 80180544 79803544 
683.642 79441944 79087528 78735464 78382656 78025488 77658040 77275664 
687.016 76878472 76475680 76084552 75725840 75417840 75168440 74972608 
690.391 74815600 74679032 74548248 74416048 74284872 74163288 74062016 
693.766 73989680 73953696 73960528 74016784 74130160 74306264 74545848 
697.141 74841656 75179152 75541712 75914592 76292336 76680136 77092176 
700.516 77543200 78042384 78587536 79165528 79755640 80335592 80889696 
703.890 81409896 81894536 82344768 82760256 83137912 83474328 83767680 
707.265 84021632 84244560 84447832 84641656 84833400 85028968 85235880 
710.640 85466120 85739512 86079288 86506376 87031280 87647512 88327880 
714.015 89026640 89691128 90268280 90714280 91003712 91128672 91099288 
717.390 90940792 90693992 90413752 90161256 90006648 90015376 90234952 
720.765 90687336 91353880 92173624 93039080 93816680 94369736 94574432 
724.139 94357880 93711304 92697880 91434736 90072576 88764872 87624080 
727.514 86716536 86054920 85611576 85337216 85180320 85103208 85081160 
730.889 85101152 85154360 85230272 85316960 85404200 85488264 85573480 
734.264 85670088 85788400 85932712 86097216 86268944 86433152 86580464 
737.639 86710672 86832504 86958368 87098376 87254784 87422232 87590720 
741.013 87752088 87902568 88044000 88180496 88314880 88445496 88568136 
744.388 88678136 88775432 88865888 88959288 89064832 89186064 89319248 
747.763 89454640 89582256 89695976 89797048 89893584 89994752 90105920 
751.138 90225648 90346272 90459368 90559680 90648144 90731392 90817440 
754.513 90911336 91012736 91117520 91221864 91326200 91437016 91564768 
757.888 91718088 91900000 92105376 92323104 92540280 92749528 92950456 
761.262 93149104 93353312 93569312 93798384 94039672 94294600 94571712 
764.637 94889240 95274784 95760128 96373488 97136168 98054848 99117448 
768.012 100286128 101496080 102660384 103672360 104435760 104889992 
770.905 105035720 104948544 104769736 104676536 104812000 105242680 
773.797 105914328 106661592 107230880 107351312 106828096 105580096 
776.690 103672744 101277848 98633872 95967752 93436008 91119920 89017080 
780.065 87073712 85212808 83369176 81503696 79606648 77692752 75791560 
783.440 73940024 72173056 70521984 69012656 67661824 66478172 65462716 
786.815 64611344 63917280 63376704 62990404 62764688 62709524 62835412 
790.189 63150740 63661120 64369956 65282456 66407204 67756544 69344520 
793.564 71180392 73261888 75566784 78051424 80647816 83260672 85783760 
796.939 88097936 90084840 91652528 92744192 93360912 93564336 93478536 
800.314 93268112 93096016 93106160 93376104 93896104 94557584 95168672 
803.689 95495712 95291824 94375216 92669536 90227776 87222456 83906136 
807.063 80561096 77408896 74581536 72096576 69874568 67774352 65645128 
810.438 63382872 60945520 58362904 55711316 53092072 50597896 48291412 
813.813 46207868 44354104 42720756 41290768 40046304 38971116 38048688 
817.188 37262276 36595688 36033536 35564452 35181700 34881936 34663796 
820.563 34525328 34462980 34472596 34550908 34697744 34916584 35214688 
823.938 35600380 36080052 36656972 37328316 38085112 38909356 39774680 
827.312 40646492 41480620 42231508 42859596 43337948 43664640 43864956 
830.687 43994440 44125800 44343572 44733056 45360176 46266876 47456132 
834.062 48885944 50459092 52024512 53402732 54387384 54792296 54493640 
837.437 53447028 51708936 49419064 46783796 44022200 41329028 38861992 
840.812 36713216 34919316 33473186 32341230 31476758 30830614 30360044 
844.186 30026338 29795964 29642936 29547520 29497230 29487088 29516204 
847.561 29584904 29692424 29835002 30008086 30208378 30435202 30691304 
850.936 30980966 31306968 31668462 32059934 32473038 32899908 33335924 
854.311 33781188 34240212 34720392 35230136 35777288 36370272 37019412 
857.686 37736816 38538460 39442556 40467484 41633280 42960504 44470008 
861.060 46184396 48121400 50287372 52664764 55202556 57811468 60356568 
864.435 62682040 64625920 66038884 66822328 66937200 66416628 65356516 
867.810 63909532 62263508 60600388 59093696 57882864 57057208 56667924 
871.185 56724144 57202520 58051404 59196628 60548772 61994484 63409828 
874.560 64667716 65638848 66220464 66346056 65994328 65194092 64016296 
877.935 62565380 60952040 59286328 57663116 56146200 54772564 53551024 
881.309 52469400 51502364 50622872 49811340 49058928 48370556 47760416 
884.684 47248168 46850408 46577264 46431220 46408696 46503792 46713356 
888.059 47038132 47482816 48052440 48748172 49564140 50487152 51499532 
891.434 52582928 53722804 54912452 56151708 57446168 58803144 60228852 
894.809 61725512 63287608 64897544 66520460 68102912 69564072 70806600 
898.183 71726800 72223216 72224120 71698032 70661152 69174304 67335264 
901.558 65268284 63096680 60941480 58908092 57073040 55491308 54193572 
904.933 53189060 52472316 52027872 51836416 51877860 52135048 52596392 
908.308 53254120 54104244 55145220 56376312 57796900 59406288 61200696 
911.683 63171172 65299632 67554032 69891464 72257336 74593256 76850952 
915.058 78997176 81023712 82947640 84810000 86667912 88578496 90593640 
918.432 92740664 95011448 97350712 99653544 101776616 103540328 104772184 
921.807 105339496 105178296 104326416 102927984 101235808 99555360 98223568 
925.182 97563328 97809000 99093392 101409272 104612536 108418768 112434656 
928.557 116237528 119381288 121483432 122281448 121628264 119512688 
931.450 116032064 111373264 105775864 99506440 92859888 86116608 79534576 
934.824 73347712 67729120 62801404 58637536 55260728 52663116 50815548 
938.199 49679924 49209864 49346672 50015960 51107772 52473812 53942628 
941.574 55313488 56394684 57035712 57135396 56668492 55680504 54280592 
944.949 52611576 50823964 49061452 47430628 46000172 44803396 43842264 
948.324 43099092 42545492 42151684 41888336 41728508 41649440 41629744 
951.698 41650312 41696524 41757548 41828284 41909064 42003404 42116456 
955.073 42252432 42414244 42602580 42817836 43059936 43329600 43627016 
958.448 43951580 44300824 44670144 45054076 45448316 45850572 46261936 
961.823 46685572 47125392 47584176 48062436 48558676 49070468 49595864 
965.198 50134280 50686320 51252896 51834028 52428944 53035836 53654000 
968.573 54284460 54930460 55597080 56289396 57010812 57762644 58544860 
971.947 59357356 60201408 61080584 62000068 62965504 63980588 65047236 
975.322 66165508 67335072 68556752 69832808 71166384 72560408 74016280 
978.697 75534768 77116560 78764584 80485240 82288016 84183336 86179320 
982.072 88279232 90480056 92772744 95141856 97567056 100018816 102452432 
985.447 104809416 107008480 108951096 110539072 111676832 112293232 
988.339 112354344 111865968 110875672 109463576 107742736 105840072 
991.232 103884136 102003976 100306032 98870744 97752848 96975416 96538704 
994.607 96425984 96613152 97073432 97781400 98715552 99855200 101179376 
997.982 102668112 104300376 106056000 107916272 109859040 111855384 
1000.874 113867264 115840888 117712144 119415224 120885536 122075824 
1003.767 122961208 123542200 123844392 123916368 123828968 123662960 
1006.660 123509784 123464528 123608960 124012328 124722800 125763328 
1009.552 127137232 128832696 130831152 133110312 135648064 138422640 
1012.445 141408304 144576576 147898064 151342608 154885488 158505712 
1015.338 162178416 165867920 169516640 173033920 176308976 179215824 
1018.231 181633008 183476416 184709392 185361600 185522336 185344240 
1021.123 185026320 184778048 184819984 185347184 186500304 188367856 
1024.016 190970080 194268272 198171088 202557696 207297152 212246240 
1026.909 217269616 222234736 227000944 231433904 235405856 238803632 
1029.802 241549168 243598528 244941600 245592464 245580416 244943696 
1032.695 243723968 241972736 239749472 237112880 234119520 230810000 
1035.588 227205344 223312352 219132576 214676000 209971248 205068128 
1038.481 200032480 194944336 189883216 184926432 180150640 175621216 
1041.374 171392656 167499120 163942544 160686992 157656640 154753408 
1044.267 151865040 148892880 145777376 142503472 139107616 135663744 
1047.160 132276248 129057992 126110704 123525816 121367384 119671352 
1050.053 118448016 117681544 117336672 117361600 117700536 118297144 
1052.947 119098048 120058360 121134736 122279560 123440440 124552080 
1055.840 125539720 126330776 126855152 127057136 126903208 126380112 
1058.733 125499416 124295264 122828592 121181768 119451128 117749720 
1061.626 116185616 114854744 113839104 113193456 112948816 113113952 
1064.519 113676616 114605288 115846424 117330904 118967120 120646456 
1067.412 122260944 123702696 124880608 125733096 126222656 126337560 
1070.305 126084832 125483704 124560288 123343856 121868064 120167320 
1073.198 118277224 116236960 114086928 111872912 109650728 107481576 
1076.091 105434392 103582688 101990400 100712880 99788648 99235360 99050520 
1079.466 99210752 99675968 100384224 101254800 102196536 103102592 103868696 
1082.842 104410688 104671304 104639688 104352448 103894448 103381272 
1085.735 102943192 102718312 102823600 103351760 104364040 105879856 
1088.628 107876680 110285024 113000256 115878176 118750256 121454896 
1091.521 123837656 125776696 127197128 128063888 128383368 128191304 
1094.414 127548560 126528368 125206632 123663672 121972088 120195640 
1097.307 118393400 116613120 114893552 113263856 111736528 110304976 
1100.200 108938712 107588528 106188040 104667056 102971032 101069096 
1103.093 98966864 96704296 94354384 92008872 89759120 87695928 85892528 
1106.468 84399784 83251480 82460848 82025240 81928192 82143720 82638120 
1109.844 83370176 84296576 85370808 86540744 87753552 88949328 90061360 
1113.219 91025408 91776864 92261056 92441712 92300112 91838016 91073744 
1116.594 90040200 88779416 87336736 85762480 84104392 82403408 80695576 
1119.969 79005488 77348864 75735312 74170248 72658864 71208272 69826392 
1123.344 68521056 67298120 66159220 65102696 64125508 63226320 62409160 
1126.720 61685184 61071204 60589304 60261244 60103792 60126092 60326000 
1130.095 60690344 61192916 61797556 62460612 63129404 63751900 64281464 
1133.470 64681292 64935172 65048316 65049736 64983888 64906852 64876764 
1136.845 64940216 65129840 65456628 65909288 66454040 67038448 67602040 
1140.221 68075584 68394592 68507632 68376016 67979168 67313280 66388020 
1143.596 65223196 63846232 62292992 60603020 58819948 56991204 55160380 
1146.971 53368040 51649632 50030572 48530292 47161364 45930116 44839508 
1150.346 43889696 43077572 42398684 41845832 41411104 41086428 40865188 
1153.722 40743148 40718688 40791912 40963196 41231556 41593972 42045124 
1157.097 42578056 43185892 43861840 44599824 45394824 46241480 47134736 
1160.472 48069652 49041084 50042992 51067596 52102768 53130640 54128784 
1163.847 55068180 55917116 56645312 57222896 57624976 57832708 57832136 
1167.223 57617332 57190352 56562568 55752908 54786884 53695280 52507724 
1170.598 51253384 49959452 48648796 47343456 46064200 44829552 43657860 
1173.973 42565408 41564508 40664832 39872188 39189836 38619936 38164512 
1177.348 37826272 37608676 37515396 37549460 37713792 38010712 38442768 
1180.724 39013596 39727332 40588720 41601848 42769676 44093708 45573488 
1184.099 47206760 48987116 50900440 52924248 55020416 57135660 59207376 
1187.474 61160184 62918200 64413420 65585396 66391768 66810660 66841536 
1190.849 66505900 65844624 64916624 63787476 62526768 61203900 59877288 
1194.225 58597380 57403884 56322552 55369264 54549200 53858376 53285132 
1197.600 52811304 52415264 52070380 51747908 51418992 51052244 50617996 
1200.975 50090248 49447132 48677412 47781240 46773500 45680040 44536452 
1204.350 43383568 42258492 41193484 40212204 39327656 38544612 37861560 
1207.726 37273000 36771632 36348764 35996676 35707244 35473480 35291048 
1211.101 35158244 35076908 35051728 35089372 35196472 35378212 35637604 
1214.476 35975544 36390556 36879256 37436508 38054980 38724068 39431524 
1217.851 40164008 40908472 41655272 42397552 43131876 43856820 44571844 
1221.227 45277312 45974208 46666276 47360820 48068652 48804520 49584048 
1224.602 50421172 51327172 52307720 53362684 54485076 55661072 56869720 
1227.977 58081172 59262212 60375684 61384800 62260984 62983820 63545084 
1231.352 63948804 64211352 64361276 64436404 64487792 64575172 64761252 
1234.728 65114476 65697968 66564948 67759984 69313464 71243008 73555760 
1238.103 76248416 79306936 82702736 86393976 90321464 94407416 98568304 
1241.478 102711344 106741360 110571680 114116096 117294360 120038568 
1244.371 122290184 124007960 125171096 125776288 125836136 125374064 
1247.264 124423744 123026696 121230912 119093072 116668128 114003336 
1250.157 111131992 108066472 104801320 101321024 97613600 93682032 89554808 
1253.532 85285064 80951888 76650488 72474192 68514576 64846144 61516716 
1256.908 58550812 55945756 53676720 51699608 49959084 48396556 46950112 
1260.283 45566496 44204224 42833704 41441468 40027628 38602844 37184268 
1263.658 35792148 34447056 33165834 31962666 30847582 29826200 28900094 
1267.033 28066896 27320886 26653870 26056898 25522762 25046216 24624926 
1270.409 24258456 23946908 23689470 23484326 23328610 23220554 23159914 
1273.784 23148906 23191300 23290748 23448968 23664136 23929578 24232912 
1277.159 24557498 24881200 25177654 25421222 25586512 25655014 25618354 
1280.534 25479262 25251148 24953488 24608972 24237258 23851756 23461000 
1283.910 23069230 22680120 22299694 21937306 21604850 21316048 21082040 
1287.285 20912406 20813710 20790246 20845898 20983722 21205810 21512124 
1290.660 21899738 22362690 22891414 23473588 24094826 24735646 25372604 
1294.035 25979434 26526244 26986580 27341776 27585078 27723680 27777684 
1297.411 27777544 27756138 27746002 27776412 27869638 28042438 28305300 
1300.786 28660162 29099202 29602106 30139224 30670146 31151376 31544592 
1304.161 31817998 31953428 31946618 31805236 31547050 31195556 30780106 
1307.536 30330160 29874362 29439536 29045492 28705362 28425170 28204484 
1310.912 28039962 27927654 27865364 27853000 27890872 27978468 28112882 
1314.287 28288644 28499676 28740302 29007306 29299676 29617856 29962324 
1317.662 30332718 30728038 31148138 31593836 32067568 32571782 33106186 
1321.037 33665164 34236804 34802592 35338564 35820896 36227336 36541224 
1324.413 36755944 36876408 36921496 36921424 36918720 36960348 37088480 
1327.788 37336548 37719072 38229928 38842756 39518608 40216236 40897224 
1331.163 41536324 42122368 42656748 43149844 43617748 44079296 44551836 
1334.538 45052088 45593508 46183764 46823616 47505364 48214800 48931892 
1337.914 49634976 50304932 50925068 51483452 51971736 52384648 52719604 
1341.289 52976912 53159140 53271388 53319372 53309220 53245504 53130828 
1344.664 52966396 52753388 52493404 52190004 51847432 51469200 51055856 
1348.039 50603440 50103044 49542936 48913348 48210136 47439276 46618284 
1351.415 45777224 44955100 44194024 43539464 43031840 42703464 42576996 
1354.790 42659196 42939108 43385396 43951984 44580324 45206196 45773396 
1358.165 46233704 46553104 46714424 46715608 46570552 46306720 45968568 
1361.540 45614264 45307544 45115716 45091824 45263560 45629132 46157308 
1364.916 46796008 47477308 48131320 48689864 49088272 49278264 49229496 
1368.291 48935936 48415744 47707528 46862296 45929528 44955320 43976768 
1371.666 43020828 42112476 41277576 40544704 39947452 39516036 39268968 
1375.041 39207712 39315212 39563576 39921548 40365404 40883608 41477412 
1378.417 42158440 42946896 43869832 44956824 46239892 47746176 49485752 
1381.792 51436896 53529548 55649620 57632316 59286596 60432876 60906212 
1385.167 60594368 59459476 57561496 55067428 52223636 49326588 46633776 
1388.542 44315612 42448696 41022512 39976112 39225848 38691720 38302408 
1391.917 37996356 37725972 37451424 37143556 36788044 36385872 35952328 
1395.293 35508788 35074464 34658732 34260256 33871736 33487468 33110048 
1398.668 32754142 32443654 32203540 32052942 31998082 32032966 32143560 
1402.043 32314212 32531246 32785512 33073646 33396068 33755256 34152060 
1405.418 34584780 35048244 35535864 36041820 36563176 37100424 37656516 
1408.794 38234776 38836556 39460296 40101284 40754320 41415112 42082176 
1412.169 42756332 43439700 44133352 44836752 45548208 46266544 46992568 
1415.544 47729088 48481424 49254472 50052060 50876412 51727824 52605404 
1418.919 53504364 54415136 55319888 56192396 57000988 57714428 58310604 
1422.295 58780116 59135460 59411528 59665348 59958684 60342788 60846708 
1425.670 61472204 62203700 63019440 63902884 64843872 65834248 66864296 
1429.045 67918024 68975640 70021776 71052496 72079720 73124784 74213640 
1432.420 75364312 76583216 77865472 79202344 80590816 82037520 83562680 
1435.796 85194312 86959504 88865560 90896312 93017816 95184888 97346936 
1439.171 99443648 101406680 103145912 104555880 105537432 105998776 
1442.064 105874072 105131568 103769008 101815440 99326648 96391240 93119048 
1445.439 89627376 86044344 82489376 79073976 75907288 73079264 70649888 
1448.814 68635248 67007012 65706296 64667644 63846460 63229500 62833680 
1452.190 62687592 62810516 63190640 63783332 64508088 65263472 65947048 
1455.565 66460372 66743076 66797792 66705944 66592604 66568696 66701808 
1458.940 67005776 67466248 68060896 68769736 69572944 70444080 71349096 
1462.315 72236912 73039944 73688680 74119544 74299536 74240096 73998288 
1465.691 73655344 73284200 72937904 72639864 72390992 72176968 71971776 
1469.066 71736768 71413024 70922640 70176712 69091744 67630344 65836212 
1472.441 63850648 61866436 60066808 58566356 57393976 56524260 55914404 
1475.816 55533140 55368964 55422832 55692372 56161588 56796604 57555780 
1479.192 58395992 59286708 60215528 61186924 62218272 63331304 64547948 
1482.567 65885684 67361112 68995992 70818848 72863176 75158000 77714000 
1485.942 80504464 83447624 86412040 89204616 91588576 93321312 94165432 
1489.317 93946080 92599408 90198736 86951088 83133096 79034416 74877248 
1492.693 70790176 66834500 63015988 59325112 55774872 52411000 49318608 
1496.068 46606184 44367756 42655688 41467204 40761852 40479264 40559692 
1499.443 40955112 41624276 42528280 43629140 44882196 46238680 47649180 
1502.818 49050508 50366580 51502252 52319496 52644232 52281600 51067968 
1506.194 48968980 46148428 42934644 39666484 36566708 33710392 31075524 
1509.569 28611566 26283360 24081060 22023812 20142650 18460852 16988680 
1512.944 15717261 14626071 13690202 12885822 12192168 11588634 11056083 
1516.319 10579658 10151610 9774507 9457733 9209348 9027643 8898093 8793230 
1520.177 8683356 8548063 8390111 8236606 8125758 8083932 8111984 8188624 
1524.034 8282162 8366667 8428385 8471597 8513123 8573375 8663615 8781194 
1527.892 8912873 9044626 9169482 9290277 9416828 9558016 9715749 9881302 
1531.749 10038509 10170807 10272169 10353093 10440005 10559356 10726555 
1535.124 10937616 11175365 11417190 11644242 11845977 12018885 12165486 
1538.500 12289640 12394397 12480320 12550094 12614524 12690597 12795212 
1541.875 12936511 13108419 13293719 13470485 13622466 13745464 13849990 
1545.250 13954543 14078011 14229246 14404065 14588582 14766870 14929251 
1548.625 15075671 15216823 15367460 15539509 15734885 15944889 16155200 
1552.000 16353916 16537199 16710676 16887496 17081858 17302272 17546774 
1555.376 17804084 18056882 18287746 18479798 18617944 18692552 18706804 
1558.751 18684770 18666644 18694560 18789730 18947046 19145760 19358668 
1562.126 19560520 19727718 19844516 19905666 19917564 19897134 19866054 
1565.501 19842158 19831546 19827000 19811846 19768220 19682610 19552616 
1568.877 19388740 19213118 19051724 18924688 18842532 18805230 18806440 
1572.252 18836096 18882084 18929462 18959506 18951442 18888348 18764680 
1575.627 18594670 18411520 18257404 18161452 18130218 18150084 18198558 
1579.002 18254122 18303264 18342214 18374394 18407026 18446126 18494008 
1582.378 18548642 18605528 18659656 18706630 18741950 18759076 18749112 
1585.753 18701752 18607950 18464792 18277828 18062686 17841714 17640072 
1589.128 17482300 17386414 17364790 17424488 17566820 17787206 18071010 
1592.503 18393404 18716284 18992458 19177100 19231472 19134646 18887552 
1595.879 18511746 18043932 17524488 16994468 16486157 16023541 15625954 
1599.254 15307048 15076975 14941082 14899040 14945266 15070629 15266687 
1602.629 15526150 15843328 16212394 16623119 17058940 17498408 17914254 
1606.004 18277654 18563338 18748248 18816372 18759006 18574230 18267150 
1609.380 17848826 17338030 16759505 16144229 15527181 14939093 14402010 
1612.755 13925665 13505827 13128739 12775386 12427809 12073016 11708640 
1616.130 11344604 11002215 10707537 10480498 10330053 10252390 10234953 
1619.505 10258938 10303995 10351159 10384957 10397956 10392661 10382073 
1622.881 10384550 10416553 10486947 10593374 10726555 10875031 11031001 
1626.256 11190188 11351339 11513468 11673922 11828544 11973753 12108584 
1629.631 12236710 12363953 12496177 12635401 12778524 12915381 13032307 
1633.006 13114019 13145780 13117400 13026332 12881658 12703835 12520423 
1636.382 12357987 12231257 12142622 12083543 12040925 11999469 11946097 
1639.757 11872265 11776452 11664221 11546030 11433756 11335421 11251391 
1643.132 11174379 11091127 10986549 10846358 10663185 10439157 10187869 
1646.507 9932048 9698231 9509819 9380836 9314650 9305679 9341631 9405011 
1650.365 9470873 9509142 9481167 9349857 9099131 8759825 8411731 8139263 
1654.222 7985475 7938432 7958916 8005185 8047781 8071881 8073231 8055375 
1658.080 8024795 7987230 7944540 7894599 7832822 7753952 7654457 7533812 
1661.937 7394832 7244206 7091476 6946981 6820609 6718770 6642996 6589638 
1665.794 6549977 6512271 6462529 6388245 6281465 6141641 5976500 5800239 
1669.652 5630326 5480444 5358322 5264908 5196261 5144892 5100468 5051121 
1673.509 4983446 4886058 4754355 4595834 4430242 4281509 4168422 4096569 
1677.367 4058440 4038574 4021484 3996805 3962697 3925249 3894189 3876871 
1681.224 3871923 3867744 3843341 3775987 3650267 3470839 3266413 3080803 
1685.082 2948578 2878628 2857916 2863553 2876060 2882064 2875493 2856215 
1688.939 2826432 2789581 2748933 2708654 2673681 2649244 2639443 2643910 
1692.796 2656778 2665913 2655645 2611975 2529382 2417382 2301414 2211986 
1696.654 2167195 2165663 2187742 2206324 2192304 2124873 2000994 1841945 
1700.511 1688275 1577490 1526514 1527112 1558535 1597576 1626211 1633195 
1704.369 1613540 1568744 1506398 1437843 1373454 1320907 1283286 1259958 
1708.226 1247696 1241881 1239389 1238027 1237661 1239522 1245237 1255771 
1712.083 1270791 1288570 1306782 1323665 1338189 1349689 1357267 1357467 
1715.941 1345003 1314094 1262517 1195330 1124998 1068992 1040394 1044579 
1719.798 1077662 1130047 1189582 1246068 1293256 1329714 1357600 1381598 
1723.656 1406296 1434884 1467797 1504536 1543871 1584906 1626377 1666123 
1727.513 1700915 1727162 1741899 1745392 1740834 1733715 1728226 1724800 
1731.371 1717016 1691502 1630867 1520728 1358032 1159780 959760 796078 
1735.228 691262 645566 642745 661394 682865 693220 686184 662191 627448 
1739.568 590485 559596 540321 533752 539359 554686 577213 604453 633919 
1743.907 663319 691394 717679 742804 767664 792825 817157 838570 853907 
1748.247 860381 855501 838702 810585 773241 729694 684657 643210 610526 
1752.586 589821 581593 582920 588229 589290 578872 552397 510895 460376 
1756.926 411487 374443 353982 348411 350069 349174 335843 304774 255870 
1761.266 194739 130004 70316 22034 -12325 -33795 -44629 -48406 -48671 -49764 
1766.087 -55429 -68913 -90380 -116616 -141459 -157987 -162227 -155602 
1769.945 -144871 -139803 -150270 -181106 -228730 -281448 -324691 -347569 
1773.802 -347304 -329161 -301580 -273170 -248533 -227803 -208329 -187100 
1777.660 -162889 -137484 -114595 -98032 -89253 -86769 -86438 -84284 -78222 
1781.999 -69840 -63115 -62221 -69874 -85742 -106214 -126288 -141624 -150005 
1786.339 -151197 -146692 -137683 -124963 -108599 -89817 -71166 -56953 -52547 
1790.678 -62486 -88260 -127249 -172196 -215317 -249791 -272971 -286117 
1794.536 -292508 -295422 -297176 -298998 -301415 -305554 -312937 -325320 
1798.393 -343695 -367532 -394579 -420797 -442511 -457108 -463794 -464092 
1802.251 -460054 -453765 -446152 -438142 -429701 -421690 -414706 -409211 
1806.108 -405139 -401266 -395705 -387429 -376173 -363791 -353263 -347205 
1809.966 -346774 -351012 -356707 -359819 -357137 -348132 -334458 -319360 
1813.823 -305918 -296150 -289991 -286117 -282077 -276018 -266713 -253567 
1817.680 -237108 -217139 -193790 -167360 -138478 -108566 -78951 -51288 
1821.538 -26340 -4572 13949 28926 39696 45992 48477 49471 52752 61865 78766 
1826.842 101965 127286 148068 158409 155757 142466 126292 116746 122248 
1831.181 145781 184662 232298 281531 327620 369104 407740 446545 488305 
1835.521 533852 582323 632060 682932 736531 796709 867353 951259 1048266 
1839.861 1155362 1267634 1379703 1487246 1587334 1678529 1761261 1838118 
1843.718 1913192 1991807 2079592 2179683 2291488 2410185 2527915 2635476 
1847.575 2724092 2788414 2826832 2841740 2837171 2817494 2784879 2738763 
1851.433 2677548 2599842 2506720 2401756 2290655 2178384 2068672 1962316 
1855.290 1858250 1755073 1652652 1552284 1456194 1365942 1281193 1199815 
1859.148 1119018 1036874 953915 873097 798468 733112 677788 630302 587432 
1863.487 546359 506550 469895 439347 417159 402798 393412 384093 370895 
1867.827 352954 333091 316545 308388 311074 323110 340287 357895 372619 
1872.167 383695 391124 396032 397591 394208 384127 366186 341547 313096 
1876.506 284482 257991 233492 208993 180584 146344 106439 64351 24619 -8647 
1881.328 -33961 -53276 -70768 -89916 -112939 -138875 -164512 -186239 -202534 
1885.667 -213926 -223530 -235254 -251547 -273634 -300289 -329194 -357501 
1889.525 -382628 -402193 -413514 -414706 -404113 -382132 -352005 -319228 
1893.382 -290488 -271680 -265355 -269196 -278501 -286448 -288004 -281746 
1897.240 -268965 -253500 -238102 -223961 -209886 -194718 -177429 -159544 
1901.097 -143479 -131853 -125162 -121088 -115224 -103531 -84417 -59935 
1904.955 -35054 -15738 -5964 -6262 -13253 -22364 -29885 -34855 -38831 -44828 
1909.776 -54568 -67455 -80806 -91009 -96276 -96972 -96376 -98098 -104160 
1914.116 -114098 -125957 -137285 -147719 -159742 -177628 -205117 -242274 
1917.973 -284097 -322109 -348496 -358825 -355316 -344159 -333895 -331478 
1921.831 -338829 -353661 -371207 -386866 -398982 -409641 -422088 -438969 
1925.688 -459921 -480939 -497289 -505099 -503974 -496726 -487922 -481005 
1929.546 -477166 -474915 -472102 -468527 -466475 -470778 -485672 -511983 
1933.403 -545838 -579392 -604077 -614102 -609073 -594349 -577870 -566487 
1937.260 -562649 -564468 -567778 -568406 -565329 -561457 -560630 -566421 
1941.118 -578730 -594249 -607319 -614665 -615922 -614102 -613639 -616253 
1944.975 -620620 -621811 -614036 -593985 -563211 -527802 -495270 -471605 
1948.833 -458002 -451316 -446615 -439168 -428509 -417751 -411760 -414077 
1952.690 -424637 -439102 -452309 -460153 -462073 -460947 -461576 -467302 
1956.548 -479152 -494442 -509799 -522904 -535877 -552258 -576447 -609238 
1960.405 -647122 -682687 -708291 -718711 -715867 -704818 -693537 -687351 
1964.262 -687550 -691652 -695787 -698036 -699856 -704785 -716561 -734556 
1968.120 -753443 -765119 -762771 -743421 -712195 -677724 -651059 -638189 
1971.977 -639479 -649140 -659132 -663300 -659032 -646725 -627238 -598021 
1975.835 -552721 -483421 -386138 -263700 -128441 1259 109057 184330 225668 
1980.174 239061 234320 219303 198087 171071 136898 96629 54011 15275 -13518 
1984.996 -28792 -32304 -27964 -20708 -13054 -4340 8316 26143 47616 66969 
1989.818 77805 74789 58319 34957 14678 8018 19715 48179 85626 123474 155061 
1995.122 178297 195800 212275 230143 248476 263197 269264 262998 244896 
1999.461 218640 188175 157647 127153 95071 58352 16103 -29455 -73518 -110156 
2004.283 -135463 -147587 -148050 -138941 -122280 -97933 -66329 -28693 10304 
2008.623 44766 67930 77209 73828 63323 53117 49438 54641 66438 81020 94375 
2013.927 106008 118105 134611 158641 188739 222353 254544 283156 309416 
2018.266 337170 371425 413112 458253 499716 529274 542245 540885 532193 
2022.606 525658 528710 543572 566497 591182 612151 627879 640986 656317 
2026.946 676693 701085 724284 739385 742007 733544 720467 713033 721098 
2031.285 749641 798800 864963 942459 1027242 1116394 1206228 1292459 1367970 
2035.625 1425310 1459585 1470523 1463708 1449412 1438774 1439173 1453767 
2039.482 1479932 1512515 1546797 1579652 1611211 1641510 1669648 1692433 
2043.340 1705373 1704874 1690936 1667752 1641976 1621754 1613240 1619493 
2047.197 1640113 1674105 1719444 1774768 1837619 1903308 1964347 2011746 
2051.054 2038777 2043304 2030354 2010049 1995768 1998132 2020834 2059850 
2054.912 2104763 2144186 2169327 2178750 2176519 2170359 2167595 2171824 
2058.769 2183046 2198365 2214916 2231802 2250120 2271969 2297683 2325232 
2062.627 2349850 2367140 2374436 2373003 2367073 2362143 2361743 2366307 
2066.484 2372770 2376335 2373970 2364808 2350982 2335758 2321900 2309475 
2070.342 2296284 2279763 2258147 2232268 2205792 2183113 2167328 2159370 
2074.199 2156506 2155374 2152277 2146150 2138159 2131299 2128236 2130833 
2078.056 2139591 2153976 2173722 2198798 2229337 2264608 2301980 2337457 
2081.914 2366407 2385630 2394659 2396225 2395625 2397424 2404821 2417082 
2085.771 2431143 2442272 2446704 2442505 2430277 2411818 2388895 2362609 
2089.629 2332960 2300615 2267173 2235165 2207890 2188041 2176120 2170392 
2093.486 2167662 2164665 2160136 2155274 2153110 2156739 2167994 2185943 
2097.344 2207756 2230003 2250586 2269205 2287124 2305778 2325431 2345319 
2101.201 2363509 2378601 2391327 2404121 2420814 2444538 2476661 2515218 
2105.058 2557344 2599008 2637810 2673314 2706954 2739796 2772541 2803287 
2108.916 2829767 2850412 2865187 2876994 2889936 2908281 2934534 2967660 
2112.773 3004626 3041395 3074763 3102828 3125921 3145145 3161766 3176118 
2116.631 3188601 3199616 3210431 3222949 3239239 3259836 3283673 3307911 
2120.488 3329280 3345841 3357995 3368981 3383407 3404679 3434167 3470071 
2124.345 3508048 3544292 3575527 3601352 3623069 3642515 3660659 3677032 
2128.203 3689530 3696815 3698252 3695578 3691334 3688360 3687592 3688327 
2132.060 3689430 3689797 3690131 3693306 3702295 3718704 3741061 3764724 
2135.918 3784109 3794605 3795407 3789892 3783809 3782939 3789357 3801390 
2139.775 3813457 3818939 3813323 3795541 3767665 3734110 3698619 3663699 
2143.633 3630152 3598011 3568244 3543189 3524249 3512257 3504040 3494754 
2147.490 3477619 3448027 3405080 3352052 3294256 3237236 3182460 3127890 
2151.347 3067956 2996986 2911584 2812592 2703186 2588375 2470696 2351715 
2155.205 2232268 2115817 2011513 1933194 1897917 1920247 2004556 2141489 
2159.062 2311874 2489924 2651411 2780978 2872058 2925094 2945309 2939404 
2162.920 2915320 2880997 2845442 2817961 2805021 2808823 2825631 2847310 
2166.777 2863286 2864820 2849644 2820896 2785613 2751433 2723858 2702720 
2170.635 2684383 2662312 2630576 2586642 2531715 2469429 2405487 2345586 
2174.492 2293953 2253683 2226606 2212785 2210487 2214816 2219379 2217547 
2178.349 2203727 2176253 2137593 2093109 2048364 2008351 1974632 1945741 
2182.207 1920381 1897850 1879181 1867234 1864506 1870429 1881510 1891993 
2186.064 1896619 1894023 1887101 1882608 1887733 1906569 1938453 1977228 
2189.922 2015142 2045468 2065643 2077295 2086151 2097604 2115284 2139158 
2193.779 2167062 2196167 2224575 2252718 2281861 2312340 2343220 2371238 
2197.636 2392160 2403355 2405387 2401456 2396691 2395559 2400623 2411118 
2201.494 2423879 2435475 2443838 2448303 2450169 2450869 2451202 2451669 
2205.351 2451169 2449903 2448436 2448270 2450502 2455701 2462132 2467163 
2209.209 2468130 2464331 2457167 2449436 2445138 2446371 2453601 2464498 
2213.066 2476194 2486824 2496589 2506553 2519117 2535981 2556444 2578776 
2216.924 2599975 2617475 2630476 2639377 2644977 2648011 2647944 2643377 
2220.781 2632943 2616275 2594809 2571643 2549979 2531748 2517950 2507486 
2224.638 2499288 2492656 2487791 2485458 2486491 2490790 2496688 2502320 
2228.496 2505653 2505820 2503620 2500821 2498421 2497088 2496022 2493823 
2232.353 2490290 2486591 2485625 2490657 2503953 2525149 2551245 2577909 
2236.211 2601108 2618775 2631376 2641310 2651644 2664113 2678448 2693051 
2240.068 2706320 2717157 2726959 2738029 2753201 2773841 2799586 2828733 
2243.926 2858583 2887501 2915019 2941873 2968628 2995451 3021342 3044565 
2247.783 3063718 3078868 3090881 3101726 3112639 3123752 3134398 3143209 
2251.640 3149784 3155892 3164770 3180357 3205491 3239906 3279867 3319196 
2255.498 3350916 3369649 3372621 3360667 3336592 3304306 3267248 3228023 
2259.355 3189035 3152120 3119080 3091815 3071493 3058079 3051072 3048669 
2263.213 3049770 3054175 3062717 3076665 3097054 3123352 3153355 3183995 
2267.070 3211733 3233798 3249220 3257600 3259502 3255663 3246383 3232462 
2270.927 3215271 3197280 3180958 3169142 3163468 3164269 3170244 3179523 
2274.785 3190170 3201753 3214337 3228624 3245248 3263075 3281269 3297895 
2278.642 3312385 3324839 3336459 3349180 3363906 3380268 3397132 3413328 
2282.500 3428022 3441882 3456544 3473745 3494687 3518336 3541953 3562431 
2286.357 3576629 3583144 3583044 3579135 3574658 3572420 3574324 3580237 
2290.215 3589893 3602087 3616053 3631188 3646959 3663165 3679104 3694342 
2294.072 3708912 3723650 3739390 3757204 3777224 3799184 3821713 3843207 
2297.929 3862897 3879713 3894189 3906292 3916221 3923309 3927121 3927221 
2301.787 3924312 3919932 3916522 3916221 3920233 3928023 3937854 3947651 
2305.644 3955843 3961861 3966375 3971124 3977276 3985435 3995133 4005333 
2309.502 4015198 4024662 4034461 4046132 4060547 4078173 4097907 4118110 
2313.359 4137444 4155007 4170897 4185383 4199200 4212248 4223925 4232892 
2317.217 4238613 4240754 4240420 4239717 4240554 4245305 4255711 4272240 
2321.074 4294995 4322904 4353627 4383180 4406442 4418224 4413605 4390610 
2324.931 4350146 4296735 4237074 4178725 4128747 4091084 4066735 4054193 
2328.789 4049912 4050246 4052219 4054059 4055396 4056199 4056868 4057938 
2332.646 4059744 4063591 4070380 4081050 4096168 4115167 4137077 4160694 
2336.504 4185048 4210207 4236539 4264444 4293891 4323942 4353158 4380101 
2340.361 4404166 4425823 4446577 4467734 4489728 4511256 4529871 4542996 
2344.219 4549491 4550797 4551233 4556724 4573734 4606751 4657554 4725078 
2348.076 4806013 4895776 4989312 5081661 5168128 5244685 5308376 5357953 
2351.933 5393915 5418842 5436624 5451286 5465915 5481820 5498329 5514202 
2355.791 5528027 5539773 5550882 5563769 5580919 5603709 5632541 5665740 
2359.648 5701929 5738927 5775189 5809977 5842551 5872709 5900317 5926113 
2363.506 5950903 5976701 6005525 6038081 6074401 6112405 6149169 6181332 
2367.363 6206472 6224085 6235379 6242438 6247715 6252723 6258505 6264859 
2371.220 6271716 6279045 6287717 6299114 6314310 6334482 6360034 6390766 
2375.078 6426310 6465892 6509245 6556032 6606324 6659919 6717491 6779480 
2378.935 6847032 6921259 7002807 7091510 7186058 7284031 7382834 7479469 
2382.793 7572079 7659583 7742214 7820340 7894464 7964653 8030161 8089941 
2386.650 8142875 8188084 8225125 8254335 8276015 8291044 8300264 8304486 
2390.508 8304959 8302729 8298947 8294219 8288984 8282837 8275408 8266289 
2394.365 8255584 8243664 8231574 8220398 8211281 8205405 8203953 8208039 
2398.222 8218743 8236943 8263081 8297259 8338666 8385787 8437406 8492275 
2402.080 8549719 8609706 8672471 8738290 8807634 8880778 8958127 9040939 
2405.937 9130566 9228369 9335334 9451029 9574477 9703618 9835917 9969916 
2409.795 10104534 10239974 10376406 10514069 10652013 10788745 10922190 
2413.170 11050509 11172135 11286484 11392937 11491182 11580466 11659558 
2416.545 11727635 11783976 11829088 11863752 11890041 11909247 11923074 
2419.920 11932406 11937957 11940341 11940579 11939728 11938536 11937650 
2423.296 11937140 11937072 11937412 11939421 11945177 11957575 11979373 
2426.671 12013298 12059934 12119589 12191010 12272871 12364565 12465726 
2430.046 12576390 12696670 12826335 12964605 13110297 13262187 13419358 
2433.421 13581474 13748851 13922106 14102038 14289783 14486276 14692420 
2436.797 14908915 15135708 15371751 15615376 15864154 16116306 16370602 
2440.172 16627388 16888044 17154650 17428282 17709474 17997166 18289682 
2443.547 18585194 18883262 19184132 19489056 19799604 20116794 20440086 
2446.922 20768418 21099708 21432054 21764060 22094684 22422942 22747852 
2450.298 23068042 23381652 23687718 23984934 24273030 24552132 24821626 
2453.673 25080896 25328486 25562718 25781750 25984182 26168512 26333524 
2457.048 26477432 26597960 26692308 26758166 26793900 26799046 26774166 
2460.423 26720356 26638614 26529556 26393764 26232144 26046450 25840330 
2463.799 25618354 25386304 25149108 24910922 24674794 24442792 24216798 
2467.174 23999780 23795682 23609382 23445752 23308682 23200142 23120214 
2470.549 23067624 23040020 23035408 23052284 23088904 23143594 23214368 
2473.924 23298124 23391478 23491532 23595702 23702206 23809716 23916728 
2477.300 24021070 24120114 24210562 24289008 24352926 24401326 24433678 
2480.675 24451310 24455656 24447944 24429436 24400486 24361336 24312206 
2484.050 24253656 24186740 24113142 24034762 23953666 23871324 23788366 
2487.425 23704760 23619526 23532106 23442042 23348994 23253656 23156664 
2490.801 23058084 22957398 22853030 22742440 22623254 22493670 22352784 
2494.176 22201274 22040092 21870502 21693174 21507878 21313960 21110528 
2497.551 20897456 20675488 20446304 20212104 19975082 19736978 19499140 
2500.926 19262194 19026798 18793606 18563164 18336408 18114018 17896298 
2504.302 17683658 17476574 17275722 17082616 16898518 16724724 16561430 
2507.677 16408142 16263369 16124973 15991913 15863158 15739009 15620081 
2511.052 15506955 15400038 15298880 15202616 15110630 15022880 14939574 
2514.427 14861322 14789084 14722754 14662432 14608046 14559834 14518582 
2517.802 14485934 14463084 14450581 14448388 14454657 14467195 14483809 
2521.178 14502891 14523687 14545992 14570148 14596120 14623192 14650985 
2524.553 14678779 14706987 14736328 14767522 14800808 14835230 14868385 
2527.928 14897702 14920301 14934498 14940053 14938098 14930451 14919066 
2531.303 14905007 14888719 14869825 14848121 14823299 14795701 14766116 
2534.679 14735334 14704245 14673638 14643719 14615516 14589644 14566789 
2538.054 14547191 14530745 14516870 14505016 14494978 14486961 14481856 
2541.429 14480658 14483878 14490969 14500801 14511182 14519542 14524201 
2544.804 14524201 14519199 14510018 14498027 14484460 14470791 14458528 
2548.180 14448662 14441880 14438421 14436879 14435817 14433179 14427151 
2551.555 14417012 14403448 14388070 14373308 14361184 14352690 14347862 
2554.930 14345978 14345807 14346458 14347348 14348273 14348923 14348204 
2558.305 14344608 14336287 14321663 14299884 14271258 14236881 14198229 
2561.681 14156805 14113470 14068907 14023391 13977605 13932542 13889161 
2565.056 13848828 13812262 13779905 13751518 13727032 13705829 13687808 
2568.431 13672489 13659564 13648177 13637886 13628107 13619629 13613646 
2571.806 13612175 13617372 13630775 13652213 13680661 13714036 13749876 
2575.182 13786506 13823173 13859535 13896037 13932713 13969084 14004672 
2578.557 14038414 14070207 14100395 14130277 14161564 14195729 14234074 
2581.932 14276805 14323958 14375158 14429925 14487715 14548082 14610205 
2585.307 14673501 14737665 14802077 14867288 14933744 15001958 15072207 
2588.683 15144251 15217303 15290127 15362002 15432241 15501255 15569558 
2592.058 15637977 15706679 15775634 15843946 15910413 15974622 16036263 
2595.433 16095331 16152827 16209437 16265811 16322745 16380202 16438561 
2598.808 16497891 16558435 16620262 16683681 16748864 16815816 16884912 
2602.184 16956328 17030338 17107188 17187192 17270068 17355892 17445116 
2605.559 17538082 17635244 17737396 17844510 17956346 18072082 18190370 
2608.934 18309624 18428736 18546774 18663116 18777794 18890736 19002150 
2612.309 19112140 19220632 19327282 19431844 19533276 19630434 19721962 
2615.685 19806194 19882010 19949028 20007764 20059398 20105690 20148690 
2619.060 20189786 20230086 20270392 20311046 20352506 20394872 20438350 
2622.435 20482670 20527236 20570972 20613186 20653316 20691402 20728414 
2625.810 20765844 20805086 20847254 20892970 20941856 20993284 21046806 
2629.186 21101482 21157002 21213222 21269974 21327218 21384854 21443054 
2632.561 21501646 21561046 21621324 21682308 21744064 21805796 21867016 
2635.936 21927024 21985610 22042216 22097404 22151654 22205354 22259514 
2639.311 22314658 22371414 22430514 22492272 22556590 22623150 22691118 
2642.687 22759618 22828026 22895920 22963336 23031006 23099946 23170714 
2646.062 23244148 23320254 23399380 23481318 23565966 23653218 23743044 
2649.437 23835374 23929928 24026394 24124492 24224050 24325172 24428070 
2652.812 24532570 24638288 24745328 24852992 24961384 25070858 25182430 
2656.188 25296910 25415566 25538822 25666544 25797960 25931736 26066750 
2659.563 26201876 26336270 26469508 26600884 26730468 26857872 26983126 
2662.938 27106580 27229048 27351374 27474616 27599272 27725658 27853386 
2666.313 27982038 28110870 28239630 28367972 28495856 28623564 28751026 
2669.688 28878494 29006242 29134598 29264126 29395430 29528652 29663938 
2673.064 29800684 29938220 30075656 30212534 30348530 30483644 30618160 
2676.439 30752044 30885506 31018476 31150950 31283538 31416840 31551826 
2679.814 31689416 31830192 31974472 32122328 32273736 32429230 32589960 
2683.189 32757216 32932754 33118200 33314280 33521290 33738572 33965384 
2686.565 34200272 34442104 34689884 34942836 35200316 35462048 35728252 
2689.940 35998976 36274844 36556400 36843836 37136948 37435352 37738552 
2693.315 38045792 38357128 38672452 38992464 39318008 39649240 39986248 
2696.690 40328788 40675932 41026776 41380600 41736680 42094292 42453412 
2700.066 42813776 43175424 43538844 43904616 44273124 44644472 45018056 
2703.441 45392504 45765884 46135272 46498040 46851920 47194940 47525728 
2706.816 47843124 48146348 48434524 48706692 48962152 49199920 49419992 
2710.191 49622048 49806548 49974060 50125464 50261332 50382356 50488792 
2713.567 50580508 50657388 50719016 50764448 50793236 50804856 50798824 
2716.942 50774800 50732232 50671128 50591864 50495416 50383548 50259104 
2720.317 50125576 49986404 49845196 49704960 49568044 49437104 49314452 
2723.692 49202740 49105004 49024208 48962488 48921064 48900408 48899664 
2727.068 48917948 48953996 49006960 49076216 49161032 49260632 49373584 
2730.443 49498412 49633452 49777528 49929792 50090400 50258692 50434456 
2733.818 50616100 50801728 50988780 51175016 51358648 51538888 51715620 
2737.193 51889212 52060036 52228384 52393656 52555552 52713284 52866468 
2740.569 53014608 53157940 53296372 53430576 53561972 53692208 53823648 
2743.944 53959024 54100036 54248264 54404020 54566556 54734716 54907264 
2747.319 55082736 55260012 55437964 55614820 55788320 55955824 56114492 
2750.694 56261828 56396304 56516980 56624552 56719644 56803440 56877196 
2754.070 56941940 56998760 57048408 57091260 57127160 57155012 57172928 
2757.445 57178444 57169148 57142580 57097416 57032840 56948628 56844640 
2760.820 56720968 56577704 56415172 56234104 56035544 55821364 55593240 
2764.195 55353120 55102864 54844100 54578804 54309464 54038832 53770764 
2767.571 53508524 53255240 53013564 52785564 52572604 52376312 52197668 
2770.946 52038032 51898284 51778252 51677068 51592992 51523816 51467040 
2774.321 51420484 51382700 51352196 51327396 51306664 51287536 51266840 
2777.696 51241412 51207224 51160780 51098568 51017808 50916460 50793908 
2781.072 50651060 50490060 50314568 50129184 49937928 49744496 49551960 
2784.447 49361668 49175020 48992640 48815272 48643312 48476792 48314744 
2787.822 48155232 47995968 47834284 47667812 47495496 47316960 47133072 
2791.197 46945312 46754936 46563948 46373780 46186568 46004480 45830096 
2794.573 45665976 45513988 45375328 45250248 45137884 45037536 44948448 
2797.948 44870256 44803284 44748040 44705028 44674216 44655340 44647300 
2801.323 44648732 44658244 44674036 44695044 44719352 44746240 44774376 
2804.698 44803284 44832784 44862948 44894216 44926620 44960244 44994384 
2808.073 45027976 45059476 45087336 45109948 45125384 45132300 45129172 
2811.449 45114760 45088404 45049920 44999308 44936872 44863496 44779772 
2814.824 44687036 44586496 44480764 44372892 44266848 44167100 44077972 
2818.199 44003352 43946740 43910632 43897432 43909200 43947692 44014720 
2821.574 44110908 44235992 44388084 44564024 44760160 44972040 45195424 
2824.950 45426568 45661376 45896308 46127092 46349484 46559376 46753132 
2828.325 46927776 47081556 47213372 47323536 47412188 47480816 47530980 
2831.700 47565248 47586692 47599076 47605584 47609468 47613644 47620004 
2835.075 47630692 47647512 47672436 47707788 47755500 47817380 47894584 
2838.451 47988160 48099820 48231908 48388852 48576164 48801332 49071912 
2841.826 49396008 49781240 50234884 50763592 51373904 52071240 52859204 
2845.201 53737428 54699948 55731436 56806496 57889792 58932912 59881280 
2848.576 60678452 61267996 61606056 61665096 61438080 60940032 60206352 
2851.952 59288876 58243608 57129312 56000000 54896696 53851628 52885964 
2855.327 52010132 51228364 50539076 49936520 49412120 48955404 48554932 
2858.702 48198996 47877160 47580332 47301108 47034548 46776344 46523932 
2862.077 46275204 46028980 45784552 45542024 45302024 45066348 44837412 
2865.453 44618620 44414328 44229388 44069652 43940800 43847800 43794616 
2868.828 43782816 43812136 43879656 43979996 44106836 44251840 44406216 
2872.203 44561452 44709512 44843772 44960132 45056572 45133952 45195312 
2875.578 45244988 45287428 45326520 45365252 45405048 45446768 45490804 
2878.954 45537720 45588540 45644700 45708160 45780724 45864156 45959580 
2882.329 46067404 46187380 46318148 46456996 46600352 46744200 46883776 
2885.704 47015532 47136912 47246840 47346004 47436836 47522920 47608284 
2889.079 47697656 47795408 47905944 48033864 48183552 48360036 48569492 
2892.455 48818648 49115692 49470524 49893808 50396052 50987212 51674116 
2895.830 52458072 53332524 54281156 55276420 56277892 57238620 58105904 
2899.205 58827236 59361192 59679568 59773856 59654856 59351964 58907296 
2902.580 58366392 57777480 57183360 56617676 56108872 55677684 55339268 
2905.956 55105720 54985704 54985664 55110908 55365916 55755204 56284720 
2909.331 56960452 57786904 58764032 59884476 61128600 62462296 63840896 
2912.706 65206564 66494704 67645288 68601336 69319680 69775768 69962568 
2916.081 69891184 69586904 69086264 68429112 67654152 66798644 65892704 
2919.457 64961144 64024968 63099860 62198768 61331868 60505996 59725492 
2922.832 58992192 58306284 57666788 57072552 56522524 56015752 55551028 
2926.207 55126336 54738548 54383628 54056508 53751864 53464264 53188988 
2929.582 52921368 52657360 52393432 52126116 51853180 51572544 51283136 
2932.958 50984420 50676304 50359028 50033696 49701620 49365416 49028548 
2936.333 48695648 48371852 48062360 47772288 47505880 47266900 47058624 
2939.708 46883996 46745972 46646832 46587552 46567156 46582244 46626472 
2943.083 46691292 46765416 46836940 46893116 46921280 46910540 46852144 
2946.458 46740696 46575568 46360764 46105944 45823356 45528596 45237452 
2949.834 44962708 44714728 44499556 44318544 44170000 44050068 43953448 
2953.209 43874264 43807556 43748332 43692452 43636576 43578072 43514852 
2956.584 43445964 43370752 43289700 43203936 43115372 43026608 42940132 
2959.959 42858608 42783900 42717140 42658316 42606488 42560516 42519144 
2963.335 42481432 42447236 42416584 42390208 42369128 42354116 42346224 
2966.710 42346372 42355832 42375668 42407228 42451292 42508400 42578788 
2970.085 42662228 42757904 42865372 42984028 43112992 43251260 43397628 
2973.460 43550052 43705532 43860152 44008596 44144140 44259072 44345372 
2976.836 44394472 44399796 44356780 44263692 44122392 43937684 43717296 
2980.211 43470024 43205544 42933804 42663292 42401496 42154536 41925996 
2983.586 41717896 41529468 41358040 41198660 41045420 40892928 40736372 
2986.961 40573076 40402532 40226160 40045904 39863364 39677916 39486424 
2990.337 39282896 39059124 38807176 38520792 38197836 37840772 37457564 
2993.712 37059900 36660072 36270344 35899348 35551112 35225612 34919136 
2997.087 34626440 34342044 34061848 33783156 33505078 33227638 32951378 
3000.462 32676936 32405168 32136708 31872764 31614826 31364162 31122116 
3003.838 30889276 30665736 30451052 30244646 30046006 29855160 29672558 
3007.213 29498720 29333778 29178148 29031146 28891984 28759596 28632978 
3010.588 28510822 28392414 28276654 28162870 28050212 27938290 27827102 
3013.963 27717038 27609088 27504444 27404662 27311148 27224602 27145624 
3017.339 27074030 27008652 26948290 26891394 26836018 26781318 26726734 
3020.714 26672506 26619414 26568654 26520856 26476128 26434538 26395314 
3024.089 26358134 26323314 26292196 26267096 26250904 26246152 26254776 
3027.464 26276988 26311064 26353556 26399608 26443308 26478982 26501238 
3030.840 26506346 26491906 26458134 26406652 26340354 26262978 26178226 
3034.215 26089268 25998428 25907256 25817052 25728872 25643626 25562404 
3037.590 25485904 25414968 25349560 25289570 25234750 25184608 25138822 
3040.965 25097326 25059904 25026174 24995498 24967210 24940328 24914466 
3044.341 24889482 24865658 24843870 24824924 24809490 24798192 24790966 
3047.716 24787528 24787386 24789598 24793212 24797490 24801244 24804050 
3051.091 24805910 24807032 24808016 24809278 24811452 24814260 24817698 
3054.466 24821206 24824644 24828432 24833134 24839520 24848502 24860502 
3057.842 24875376 24892710 24912150 24933450 24956998 24983144 25012344 
3061.217 25044882 25080652 25118704 25158590 25199950 25242862 25288130 
3064.592 25336916 25389782 25447184 25508638 25572982 25638530 25703664 
3067.967 25767052 25827566 25884748 25938242 25987594 26032658 26073436 
3071.343 26110134 26142788 26172208 26198708 26223310 26246224 26268258 
3074.718 26289870 26311592 26333982 26357394 26381898 26407602 26434328 
3078.093 26461866 26489934 26518392 26547132 26576120 26605710 26635726 
3081.468 26666448 26697770 26729516 26761408 26792914 26823612 26852970 
3084.844 26881170 26908842 26937220 26968034 27003292 27043844 27090252 
3088.219 27141674 27196558 27253108 27309914 27366230 27421990 27478042 
3091.594 27534874 27592774 27651742 27710824 27769418 27827492 27885254 
3094.969 27943980 28005364 28070712 28140952 28216188 28295716 28377558 
3098.344 28460548 28542844 28623210 28700936 28776164 28849598 28922334 
3101.720 28995688 29071036 29149232 29230348 29313714 29398088 29481910 
3105.095 29563480 29642296 29717758 29790498 29861656 29932148 30003186 
3108.470 30075550 30149666 30225428 30302838 30381470 30460756 30540448 
3111.845 30620578 30701188 30782986 30866792 30953176 31042460 31134362 
3115.221 31227706 31321284 31413422 31503052 31589630 31673346 31754612 
3118.596 31834256 31912774 31990592 32067604 32143808 32219206 32293868 
3121.971 32368076 32441728 32514964 32587602 32659396 32730344 32800414 
3125.346 32870136 32939974 33010934 33083622 33158432 33235938 33316102 
3128.722 33398502 33482778 33568220 33653744 33738860 33823020 33906052 
3132.097 33988496 34071096 34154676 34239852 34327232 34416708 34508468 
3135.472 34602216 34697816 34794836 34892848 34991316 35088764 35184112 
3138.847 35275920 35363580 35447268 35527664 35606280 35684760 35764480 
3142.223 35846268 35930480 36016980 36105220 36195244 36286368 36378380 
3145.598 36471128 36564076 36657264 36750356 36843584 36937224 37031968 
3148.973 37127996 37225816 37325568 37426828 37529408 37632736 37735692 
3152.348 37837444 37936908 38033208 38125548 38214620 38301792 38388616 
3155.724 38477344 38569600 38665860 38765584 38867832 38970532 39072432 
3159.099 39172684 39271256 39368432 39465052 39561436 39657880 39754964 
3162.474 39852796 39951992 40053172 40156632 40261788 40367840 40473340 
3165.849 40577260 40679060 40779212 40878728 40978600 41079436 41180664 
3169.225 41281184 41378848 41472308 41560496 41643640 41722744 41799388 
3172.600 41874800 41949864 42025232 42100828 42176224 42251192 42325296 
3175.975 42397804 42468208 42536104 42601664 42665888 42730228 42796440 
3179.350 42865480 42937460 43011244 43084636 43155588 43222640 43285596 
3182.726 43345928 43405792 43467424 43532468 43601188 43672812 43746060 
3186.101 43819432 43891972 43963532 44033896 44103464 44172196 44240540 
3189.476 44308344 44376452 44445124 44514500 44584916 44655968 44726992 
3192.851 44797776 44868020 44937976 45008352 45079544 45151012 45222188 
3196.227 45291616 45358076 45421528 45482932 45544196 45607492 45674516 
3199.602 45745488 45819344 45894356 45968384 46040400 46110404 46178940 
3202.977 46247560 46317484 46388712 46461092 46534148 46606664 46678304 
3206.352 46748480 46816604 46881896 46943948 47002168 47056888 47109216 
3209.728 47160996 47213960 47269412 47327416 47387132 47447184 47506544 
3213.103 47565248 47624108 47684932 47749172 47817340 47888668 47960816 
3216.478 48031792 48099672 48163860 48225132 48285116 48345668 48408076 
3219.853 48473088 48540592 48610068 48681560 48754808 48830104 48907676 
3223.229 48987264 49068536 49150680 49232944 49314488 49395192 49474092 
3226.604 49551144 49625688 49697720 49767232 49835196 49902768 49971236 
3229.979 50041912 50115016 50189992 50265984 50341952 50417076 50491432 
3233.354 50565284 50639296 50713876 50788844 50863636 50937736 51010952 
3236.729 51082952 51154588 51226128 51298276 51371776 51446668 51523480 
3240.105 51602728 51684676 51769332 51855980 51943132 52028736 52111248 
3243.480 52189520 52264036 52336764 52410516 52487532 52569760 52657580 
3246.855 52749684 52844796 52941132 53037560 53134124 53231232 53328848 
3250.230 53426680 53523816 53619060 53710992 53799492 53885008 53968856 
3253.606 54052528 54137608 54224692 54313900 54404812 54497020 54590000 
3256.981 54683716 54778168 54873160 54968064 55062012 55153644 55241424 
3260.356 55324516 55402880 55477192 55549108 55620432 55693352 55768880 
3263.731 55847516 55928536 56010140 56090624 56168412 56242664 56313800 
3267.107 56383288 56452448 56522680 56594540 56667396 56740000 56811104 
3270.482 56879312 56944360 57006468 57066620 57125984 57185664 57246144 
3273.857 57308072 57371480 57436712 57503544 57572276 57642420 57713748 
3277.232 57786184 57859580 57934468 58011560 58091472 58174732 58261268 
3280.608 58350092 58439964 58529808 58618804 58706752 58794568 58883128 
3283.983 58973672 59067084 59163364 59262024 59362600 59464228 59566564 
3287.358 59669532 59773588 59879116 59987292 60098692 60214080 60334032 
3290.733 60458428 60587324 60720560 60857916 60998940 61144204 61294016 
3294.109 61448308 61607128 61769784 61935024 62101736 62269168 62437200 
3297.484 62606864 62779464 62956312 63138440 63326128 63518500 63714564 
3300.859 63913600 64114868 64319008 64526268 64737400 64952908 65173416 
3304.234 65398924 65629980 65867180 66110836 66361108 66617676 66878944 
3307.610 67143784 67410560 67678976 67949224 68222768 68501384 68786424 
3310.985 69078960 69379424 69687376 70002936 70325824 70655848 70992400 
3314.360 71334496 71680368 72028048 72376128 72723648 73070792 73418800 
3317.735 73768264 74120376 74474576 74830088 75185656 75540568 75894264 
3321.111 76247072 76599144 76949752 77297840 77642120 77981400 78315784 
3324.486 78646864 78976552 79307056 79638920 79971080 80300352 80623448 
3327.861 80936480 81237272 81525008 81799888 82062536 82313168 82551408 
3331.236 82776216 82987424 83184424 83367240 83535688 83688536 83823584 
3334.612 83938376 84030520 84099040 84144968 84171064 84180440 84175336 
3337.987 84156824 84123496 84072984 84002656 83910432 83795856 83659520 
3341.362 83501960 83323888 83124512 82902768 82657440 82387424 82092680 
3344.737 81773328 81430232 81063416 80673400 80260728 79826560 79373000 
3348.113 78903152 78420080 77926800 77424976 76915456 76397928 75872248 
3351.488 75338376 74796984 74249416 73696808 73140232 72580376 72018000 
3354.863 71453848 70889680 70327888 69771096 69222176 68683296 68155704 
3358.238 67639944 67136240 66644208 66163576 65694040 65234668 64785092 
3361.614 64344092 63911216 63485868 63068628 62659644 62260028 61870296 
3364.989 61490756 61121316 60762328 60414144 60077500 59753360 59442040 
3368.364 59143088 58855008 58575384 58301700 58031708 57764044 57498284 
3371.739 57234540 56972580 56711720 56450712 56188132 55922092 55651880 
3375.115 55377060 55097556 54813760 54525456 54232012 53932728 53627196 
3378.490 53315364 52997844 52675200 52347976 52016332 51679156 51335004 
3381.865 50982708 50621276 50250284 49870656 49483744 49090908 48694016 
3385.240 48294340 47893028 47491060 47089608 46689116 46290576 45894284 
3388.615 45500228 45108364 44718324 44329444 43942084 43556096 43172168 
3391.991 42791252 42414684 42043700 41679052 41320868 40968512 40620556 
3395.366 40275272 39931248 39588148 39246664 38907984 38574272 38246680 
3398.741 37925372 37608964 37294952 36980772 36664184 36344660 36022628 
3402.116 35699616 35377312 35056360 34737084 34418864 34101164 33783800 
3405.492 33467996 33155140 32847046 32545138 32249394 31958886 31672098 
3408.867 31387422 31103608 30820548 30538918 30259708 29983766 29712116 
3412.242 29444642 29181550 28922868 28668514 28418342 28172452 27930694 
3415.617 27692636 27457992 27226296 26997262 26770358 26545160 26320780 
3418.993 26096796 25873038 25650058 25429268 25212626 25002342 24799736 
3422.368 24604974 24416678 24232808 24050522 23867474 23683030 23497582 
3425.743 23312668 23130312 22952016 22778370 22609294 22443528 22279394 
3429.118 22115708 21951246 21785208 21617666 21448972 21280098 21112614 
3432.494 20948532 20789620 20637334 20492048 20353164 20218736 20086604 
3435.869 19954856 19822354 19689164 19556082 19424324 19294858 19167682 
3439.244 19042030 18916484 18789486 18660418 18528862 18395756 18262726 
3442.619 18131118 18001726 17875064 17750442 17626582 17501616 17374550 
3445.995 17244590 17111946 16978274 16845470 16715704 16590519 16470429 
3449.370 16354535 16241390 16128996 16015531 15900515 15783777 15666144 
3452.745 15548541 15431589 15315388 15199494 15083425 14966666 14849322 
3456.120 14732146 14615927 14501350 14389063 14278688 14169883 14062096 
3459.496 13954576 13846673 13738214 13628655 13517824 13405962 13293446 
3462.871 13181232 13071027 12963820 12860736 12761634 12665932 12572127 
3466.246 12479161 12386623 12294549 12203993 12116216 12031421 11949468 
3469.621 11868621 11786598 11701561 11611877 11517143 11418585 11317397 
3472.997 11215994 11116315 11019955 10927830 10841194 10760044 10684545 
3476.372 10614594 10549408 10487965 10429314 10371994 10314479 10255580 
3479.747 10194076 10128648 10059058 9985479 9909403 9832934 9759190 9690980 
3483.604 9630506 9578033 9532342 9491395 9452112 9411817 9368884 9322741 
3487.462 9274063 9224138 9174422 9125897 9079440 9036032 8995472 8958026 
3491.319 8923154 8889942 8856801 8822546 8786333 8748432 8710298 8674229 
3495.177 8643031 8618729 8602506 8594294 8593550 8598654 8608421 8622312 
3499.034 8639583 8659255 8679874 8699683 8717093 8730954 8742008 8752151 
3502.892 8764660 8783695 8811996 8851627 8902693 8963709 9032109 9105391 
3506.749 9180886 9256901 9332592 9407517 9482759 9560454 9642431 9731234 
3510.606 9828359 9933743 10045697 10161683 10278650 10393646 10504971 
3513.982 10612150 10715484 10815682 10912846 11006259 11095205 11178595 
3517.357 11255811 11327362 11394025 11456413 11514659 11567297 11611775 
3520.732 11645400 11665379 11669871 11658708 11632671 11592955 11541335 
3524.107 11478866 11405624 11321750 11226772 11120292 11002827 10875133 
3527.483 10738544 10594460 10444383 10288896 10128512 9963034 9791892 
3530.858 9615228 9432845 9245664 9054674 8861231 8665542 8468455 8269734 
3534.715 8069586 7869024 7669599 7473806 7284132 7102523 6929575 6764167 
3538.573 6604776 6449111 6295752 6144027 5994674 5848361 5706058 5567796 
3542.430 5432766 5299588 5166652 5032417 4897083 4760954 4625772 4493143 
3546.288 4365475 4244435 4131591 4027471 3931802 3842672 3757438 3672488 
3550.145 3584280 3490211 3388850 3280802 3168675 3055943 2946043 2842307 
3554.002 2746198 2658578 2579309 2508086 2444071 2386263 2333260 2282528 
3557.860 2231835 2178284 2119346 2053957 1982321 1905904 1827204 1749883 
3561.717 1676933 1611245 1554445 1506497 1465370 1426640 1384191 1331609 
3565.575 1262882 1175030 1069956 954048 837507 730988 642778 576218 529804 
3569.914 498655 476264 456561 434604 407441 374178 334882 290483 241912 
3574.254 190761 138157 85593 34460 -14379 -60730 -104889 -147818 -190412 
3578.594 -233830 -278071 -322638 -366738 -409211 -448370 -482561 -510361 
3582.451 -530814 -543819 -550603 -554541 -560332 -573767 -600338 -644277 
3586.308 -705810 -781789 -864765 -946039 -1016587 -1071226 -1108111 -1129791 
3590.166 -1140366 -1145125 -1148859 -1155237 -1166506 -1184019 -1207909 
3593.541 -1237250 -1270652 -1306297 -1341973 -1376292 -1407966 -1436731 
3596.916 -1462886 -1487817 -1512681 -1538897 -1567093 -1597168 -1628331 
3600.292 -1658600 -1685170 -1706062 -1719462 -1724610 -1722564 -1715369 
3603.667 -1705633 -1696359 -1690253 -1689230 -1695171 -1709297 -1732300 
3607.042 -1764641 -1805426 -1852279 -1901568 -1948344 -1988255 -2019027 
3610.417 -2041123 -2056953 -2071067 -2088214 -2110637 -2138432 -2168106 
3613.792 -2195271 -2214952 -2224743 -2225468 -2220259 -2215150 -2215447 
3617.168 -2225929 -2249400 -2285394 -2331074 -2381495 -2431020 -2474379 
3620.543 -2508378 -2531437 -2544218 -2548270 -2545338 -2537333 -2524980 
3623.918 -2508279 -2487227 -2462254 -2435534 -2411876 -2398135 -2402946 
3627.293 -2434117 -2494805 -2579924 -2675697 -2763217 -2825604 -2855032 
3630.669 -2854670 -2834920 -2808123 -2784321 -2769736 -2765522 -2769176 
3634.044 -2775465 -2780403 -2781852 -2780337 -2778197 -2778592 -2783004 
3637.419 -2791761 -2803021 -2815267 -2826854 -2837849 -2849272 -2862504 
3640.794 -2878073 -2895716 -2912896 -2926456 -2933302 -2931722 -2921059 
3644.170 -2903022 -2880542 -2857929 -2839100 -2828599 -2829620 -2844268 
3647.545 -2873235 -2915036 -2966738 -3023896 -3080652 -3131447 -3170196 
3650.920 -3192399 -3195786 -3181314 -3151644 -3112893 -3072328 -3037222 
3654.295 -3014815 -3009616 -3022350 -3049133 -3081540 -3110327 -3128223 
3657.671 -3132433 -3124670 -3109998 -3094700 -3082988 -3077724 -3079106 
3661.046 -3085653 -3095194 -3105886 -3116479 -3126446 -3135559 -3142894 
3664.421 -3147072 -3146414 -3139605 -3126315 -3107695 -3087298 -3070420 
3667.796 -3063544 -3072328 -3100819 -3147631 -3205193 -3260380 -3299019 
3671.172 -3310430 -3291949 -3249461 -3195326 -3145427 -3115393 -3117992 
3674.547 -3158026 -3229235 -3313619 -3388354 -3436450 -3451998 -3440920 
3677.922 -3414654 -3385198 -3359652 -3341108 -3327528 -3315559 -3302012 
3681.297 -3286030 -3268963 -3253967 -3243344 -3237523 -3234399 -3231110 
3684.673 -3224927 -3215981 -3207397 -3204108 -3212593 -3237161 -3278006 
3688.048 -3330159 -3384672 -3432176 -3465311 -3482305 -3485230 -3478525 
3691.423 -3465969 -3450421 -3432867 -3413997 -3394732 -3376354 -3361296 
3694.798 -3351695 -3348407 -3351037 -3356791 -3362216 -3363926 -3360178 
3698.174 -3350807 -3338806 -3328252 -3323582 -3327890 -3342587 -3366030 
3701.549 -3394239 -3422314 -3444931 -3458836 -3462681 -3456337 -3441085 
3704.924 -3418731 -3390524 -3358008 -3322859 -3286852 -3252388 -3222723 
3708.299 -3200227 -3187564 -3185919 -3195326 -3214600 -3241338 -3272613 
3711.675 -3304642 -3333644 -3356002 -3368529 -3369483 -3358633 -3338083 
3715.050 -3311087 -3282216 -3256795 -3238904 -3231110 -3233774 -3245449 
3718.425 -3262649 -3281920 -3300927 -3318552 -3334696 -3350248 -3365143 
3721.800 -3378820 -3389439 -3395291 -3395159 -3389965 -3381910 -3374743 
3725.176 -3371784 -3375335 -3384573 -3396639 -3406206 -3408507 -3400354 
3728.551 -3381450 -3354983 -3326147 -3301486 -3285504 -3280637 -3285668 
3731.926 -3296421 -3306846 -3312994 -3315000 -3316283 -3323484 -3341568 
3735.301 -3371784 -3410151 -3448382 -3476454 -3488517 -3483291 -3464029 
3738.677 -3435727 -3402556 -3366392 -3327232 -3284090 -3238181 -3194109 
3742.052 -3161348 -3152565 -3178518 -3244101 -3339365 -3441315 -3519807 
3745.427 -3554250 -3541269 -3493908 -3431782 -3374184 -3336439 -3325851 
3748.802 -3342324 -3378031 -3421558 -3462090 -3492790 -3511854 -3519906 
3752.177 -3517704 -3504130 -3478098 -3439540 -3391149 -3338576 -3288793 
3755.553 -3247685 -3219500 -3204897 -3202364 -3208350 -3219434 -3233708 
3758.928 -3249659 -3266398 -3281196 -3289845 -3287510 -3271133 -3240976 
3762.303 -3201180 -3159045 -3123124 -3099668 -3092233 -3098911 -3114801 
3765.678 -3132269 -3145625 -3152664 -3154934 -3156414 -3161512 -3172828 
3769.054 -3190261 -3210916 -3230058 -3243213 -3247554 -3242193 -3228117 
3772.429 -3207726 -3183682 -3158322 -3133979 -3112070 -3093516 -3078547 
3775.804 -3067558 -3060813 -3059168 -3064005 -3077066 -3098813 -3128552 
3779.179 -3162631 -3195425 -3221079 -3235451 -3237260 -3228578 -3213580 
3782.555 -3197299 -3183551 -3173913 -3167696 -3162697 -3156743 -3148453 
3785.930 -3138585 -3129538 -3123782 -3123782 -3130065 -3141414 -3156019 
3789.305 -3171117 -3184077 -3192958 -3195885 -3192004 -3180952 -3163782 
3792.680 -3142499 -3120656 -3102826 -3092726 -3092989 -3103681 -3121282 
3796.056 -3140065 -3153124 -3154868 -3143421 -3121380 -3094536 -3071407 
3799.431 -3061340 -3071342 -3104932 -3158651 -3222164 -3280374 -3319012 
3802.806 -3330323 -3314704 -3280374 -3238148 -3200885 -3178781 -3176841 
3806.181 -3194010 -3222197 -3248869 -3262123 -3255809 -3230880 -3194208 
3809.557 -3154210 -3117992 -3088877 -3066571 -3047554 -3027450 -3004219 
3812.932 -2978815 -2955812 -2941595 -2942879 -2962526 -2998033 -3039690 
3816.307 -3075125 -3093253 -3089502 -3066538 -3033504 -3003331 -2988227 
3819.682 -2997638 -3035281 -3096148 -3166611 -3228117 -3265674 -3271988 
3823.058 -3249790 -3208449 -3160591 -3117400 -3086212 -3069861 -3066209 
3826.433 -3069664 -3073217 -3072427 -3065715 -3055319 -3045251 -3039690 
3829.808 -3041039 -3049100 -3061372 -3074072 -3083482 -3086771 -3082725 
3833.183 -3071703 -3055121 -3035018 -3014025 -2995302 -2982863 -2980362 
3836.559 -2989576 -3010241 -3038242 -3067097 -3088877 -3098747 -3095161 
3839.934 -3080389 -3059464 -3038802 -3022712 -3014584 -3015111 -3022679 
3843.309 -3034952 -3048903 -3061340 -3070190 -3073579 -3070223 -3060089 
3846.684 -3043737 -3021527 -2994973 -2964632 -2931294 -2895880 -2860233 
3850.060 -2827447 -2804008 -2798708 -2821456 -2881102 -2979572 -3107234 
3853.435 -3241733 -3355805 -3427607 -3449697 -3428330 -3377011 -3309871 
3856.810 -3237688 -3167335 -3101839 -3042717 -2990168 -2945084 -2908157 
3860.185 -2880707 -2862899 -2854473 -2854111 -2860529 -2873038 -2891634 
3863.561 -2916484 -2946433 -2977631 -3003890 -3018401 -3015933 -2996388 
3866.936 -2964665 -2930438 -2904767 -2897625 -2914016 -2951830 -3000040 
3870.311 -3044165 -3072131 -3078547 -3067196 -3046172 -3025805 -3013630 
3873.686 -3012380 -3019290 -3027647 -3029852 -3020244 -2997835 -2965948 
3877.062 -2930636 -2899007 -2877876 -2871293 -2880805 -2903845 -2934486 
3880.437 -2965455 -2988852 -2999481 -2995927 -2980724 -2960058 -2941003 
3883.812 -2931294 -2935474 -2954233 -2982863 -3011623 -3030082 -3030280 
3887.187 -3009978 -2973221 -2928563 -2885578 -2852992 -2837553 -2840779 
3890.563 -2860233 -2888672 -2917175 -2937876 -2945906 -2940147 -2922704 
3893.938 -2897098 -2866915 -2835117 -2804107 -2775860 -2752253 -2735231 
3897.313 -2726538 -2727263 -2737240 -2754887 -2777210 -2800321 -2821192 
3900.688 -2838047 -2851346 -2862735 -2874848 -2889429 -2906709 -2924679 
3904.063 -2939983 -2948770 -2947749 -2936066 -2914641 -2886467 -2854966 
3907.439 -2824056 -2796667 -2774839 -2759168 -2749685 -2745142 -2744187 
3910.814 -2744549 -2744582 -2742178 -2736449 -2726999 -2714718 -2701415 
3914.189 -2689593 -2681822 -2679714 -2683995 -2693643 -2706683 -2720348 
3917.564 -2732597 -2742178 -2749027 -2753274 -2755612 -2755381 -2752221 
3920.940 -2745207 -2734671 -2721698 -2709054 -2699999 -2697397 -2702468 
3924.315 -2714125 -2728745 -2741520 -2747776 -2745142 -2733684 -2716133 
3927.690 -2696706 -2679780 -2668814 -2665258 -2668847 -2677903 -2690350 
3931.065 -2704148 -2717516 -2728942 -2737536 -2742178 -2741816 -2736449 
3934.441 -2726703 -2713993 -2700690 -2688836 -2680011 -2674248 -2670724 
3937.816 -2667431 -2662985 -2656103 -2647409 -2638484 -2631502 -2628373 
3941.191 -2630481 -2637364 -2647771 -2659231 -2669308 -2676158 -2679088 
3944.566 -2678068 -2674149 -2668748 -2663084 -2658375 -2655675 -2655477 
3947.942 -2658210 -2663907 -2672206 -2682184 -2692623 -2702139 -2709087 
3951.317 -2711919 -2709614 -2701579 -2688836 -2672470 -2654654 -2637463 
3954.692 -2622840 -2611280 -2602782 -2596261 -2589970 -2582856 -2573897 
3958.067 -2563883 -2553573 -2544745 -2538552 -2535555 -2535423 -2537004 
3961.443 -2539014 -2540035 -2539211 -2535720 -2530021 -2522345 -2513022 
3964.818 -2502382 -2491148 -2479518 -2468350 -2458136 -2449207 -2442025 
3968.193 -2436687 -2433129 -2431448 -2431382 -2432667 -2435336 -2438829 
3971.568 -2442618 -2446011 -2448219 -2449076 -2448483 -2446209 -2442651 
3974.944 -2437709 -2431119 -2422124 -2410492 -2396158 -2379748 -2362579 
3978.319 -2346695 -2334007 -2325933 -2323395 -2326097 -2332820 -2342576 
3981.694 -2353780 -2365380 -2376486 -2386833 -2396060 -2404034 -2410262 
3985.069 -2414907 -2417774 -2419026 -2418927 -2418038 -2416489 -2414347 
3988.445 -2411612 -2407955 -2403210 -2397641 -2391216 -2384823 -2379320 
3991.820 -2375530 -2374377 -2376288 -2381594 -2389766 -2400179 -2411349 
3995.195 -2421695 -2429735 -2434480 -2435336 -2432766 -2427824 -2422058 
3998.570 -2417280 -2414446 -2414249 -2416259 -2419290 
##END=
