##TITLE=1153_1_b
##JCAMP-DX=5.01  $$ Nicolet v. 1
##DATATYPE=INFRARED SPECTRUM
##ORIGIN=UniL
##OWNER=Nicolet
##LONGDATE=2011/09/29
##TIME=10:32:33
##SPECTROMETER/DATA SYSTEM=Nicolet iS5
##DATA PROCESSING=
Ratio against background
%Transmittance->Absorbance
Truncated
ElementMultiply or ElementDivide
##COMMENTS=
Number of sample scans: 32
Collection length: 51.17 sec
Sample gain: 2.0
Background collected on: Jeu Sep 29 10:28:28 2011 (GMT+02:00);
Number of background scans: 32
Background gain: 2.0
Sample spacing:  1.000
Number of scan points: 12415
Resolution points: 8192
Number of FFT points: 65536
Apodization: N-B fort;
Phase correction: Mertz;
Laser frequency: 15798.0 cm-1
Number of rejected sample scans: 0
Number of rejected background scans: 0
Bench serial number: ASB1000141;
##RESOLUTION=4.000
##XUNITS=1/CM
##YUNITS=ABSORBANCE
##FIRSTX=649.893372
##LASTX=4000.122314
##FIRSTY=0.088811
##MAXX=4000.122314
##MINX=649.893372
##MAXY=0.265722
##MINY=-0.002506
##XFACTOR=1.000000
##YFACTOR=1.000000E-009
##NPOINTS=6950
##DELTAX=0.482117
##ZPD=6100
##XYDATA=(X++(Y..Y))
649.893 88811168 88254912 87774832 87368496 87013304 86679720 86342312 
653.268 85992480 85639416 85306968 85020904 84801656 84659096 84591056 
656.643 84589032 84641824 84739512 84872112 85027400 85192256 85352656 
660.018 85500408 85635664 85768816 85914208 86084208 86283496 86505968 
663.393 86738304 86964848 87173936 87357192 87504784 87600400 87616416 
666.767 87518240 87285856 86938904 86548792 86207520 85985816 85903264 
670.142 85931576 86015744 86093096 86112488 86038888 85863456 85598216 
673.517 85269824 84904464 84519360 84123248 83719992 83315264 82920648 
676.892 82548120 82204168 81882496 81563264 81219336 80826184 80373224 
680.267 79868328 79335096 78801008 78289480 77810616 77360904 76928872 
683.642 76501600 76071248 75635600 75196488 74756088 74315112 73874112 
687.016 73436224 73010112 72609200 72248376 71938528 71681584 71469424 
690.391 71287328 71120208 70958424 70801256 70655736 70533592 70445672 
693.766 70398600 70395136 70435776 70521752 70655880 70841544 71079776 
697.141 71366088 71689864 72037904 72397808 72763648 73137720 73529384 
700.516 73948744 74401856 74885672 75389344 75896600 76391528 76864472 
703.890 77312488 77737496 78141896 78525560 78884160 79212328 79506720 
707.265 79769136 80007088 80231392 80452616 80678344 80914640 81169048 
710.640 81453336 81787368 82195568 82699816 83312048 84025208 84809552 
714.015 85613184 86375464 87033952 87536680 87853480 87975960 87918464 
717.390 87713928 87413592 87085456 86803608 86652536 86710672 87034760 
720.765 87649096 88527472 89589872 90697784 91681584 92370520 92614504 
724.139 92332320 91525000 90283328 88759952 87142184 85612096 84296528 
727.514 83262800 82514096 82009312 81685736 81482920 81360136 81293888 
730.889 81274512 81296528 81350904 81425040 81506616 81588336 81671184 
734.264 81762608 81871136 82000344 82145760 82296872 82442384 82576208 
737.639 82700456 82823488 82955424 83101360 83259304 83419360 83570224 
741.013 83704880 83823096 83932104 84040696 84155984 84278992 84406056 
744.388 84532072 84655592 84779984 84912848 85060768 85225232 85400896 
747.763 85577192 85743512 85893496 86027976 86153664 86278128 86404688 
751.138 86530600 86648856 86752584 86840224 86917368 86994560 87083144 
754.513 87189856 87314296 87450792 87593392 87739512 87892544 88060240 
757.888 88248744 88460152 88689512 88928344 89167472 89403720 89640584 
761.262 89886376 90148904 90432360 90735520 91055400 91392200 91755456 
764.637 92165472 92653008 93254272 94002112 94923456 96030408 97315016 
768.012 98739712 100233824 101698128 103007112 104045240 104738736 105087376 
771.387 105181592 105191976 105331048 105769304 106580912 107689704 
774.279 108880800 109827768 110181544 109690568 108249192 105942776 
777.172 102997240 99728616 96442248 93354744 90586704 88148512 85978704 
780.547 83980512 82065704 80175640 78285152 76400016 74543568 72748568 
783.922 71046056 69465112 68030552 66760384 65665556 64750208 64012380 
787.297 63446484 63049020 62820664 62768900 62906480 63247240 63805012 
790.671 64590284 65611520 66879800 68410384 70223608 72342656 74784152 
794.046 77549856 80614232 83921608 87381424 90865752 94230336 97314272 
797.421 99958120 102037888 103477424 104276240 104513440 104350176 104001584 
800.796 103681912 103584456 103819624 104386752 105159344 105901848 
803.689 106321000 106102064 105009304 102939528 99953624 96264960 92189640 
807.063 88081864 84220864 80775064 77771968 75118016 72642768 70161688 
810.438 67544512 64733712 61757328 58699660 55675120 52789228 50114008 
813.813 47690368 45527492 43616392 41939684 40478792 39216452 38134124 
817.188 37212456 36432212 35774592 35225972 34777752 34425572 34167364 
820.563 34000856 33922388 33927980 34015404 34186184 34446016 34804244 
823.938 35270816 35852892 36553120 37367384 38284492 39283004 40331808 
827.312 41389564 42402848 43315472 44076692 44650752 45031064 45245284 
830.687 45358372 45458172 45648900 46037380 46708372 47718364 49077216 
834.062 50739460 52592128 54455964 56115960 57322964 57851176 57550068 
837.437 56364392 54361248 51707296 48648428 45444044 42322664 39467080 
840.812 36981708 34905420 33227138 31905748 30887568 30117278 29547520 
844.186 29136016 28845348 28646392 28515774 28438506 28407872 28422094 
847.561 28481244 28583892 28725786 28901228 29105828 29338386 29601750 
850.936 29900592 30238536 30614748 31023814 31456202 31903322 32359258 
854.311 32823176 33299144 33794192 34317052 34876800 35484588 36155164 
857.686 36906380 37760888 38743340 39877420 41187000 42694984 44423872 
861.060 46397852 48636200 51145420 53904664 56853628 59885960 62839812 
864.435 65527052 67750960 69329672 70142608 70141120 69363800 67924656 
867.810 66004360 63824088 61596436 59523356 57766240 56428604 55571172 
871.185 55207976 55317476 55847928 56724556 57856780 59130068 60419396 
874.560 61596244 62529140 63112312 63275532 62993280 62290320 61234460 
877.935 59927112 58476960 56991392 55561384 54245564 53073992 52047668 
881.309 51146796 50339644 49594228 48889544 48217320 47585436 47012248 
884.684 46521388 46132804 45858636 45702196 45660348 45728296 45904852 
888.059 46194120 46605220 47147660 47826332 48637344 49566704 50594616 
891.434 51698560 52859356 54065848 55313940 56606392 57948324 59344520 
894.809 60795940 62296244 63827196 65354168 66824572 68159896 69266512 
898.183 70046352 70405424 70280440 69648400 68533544 67002104 65154092 
901.558 63112348 60995924 58918452 56976848 55239616 53754640 52547664 
904.933 51624968 50980656 50599976 50466276 50562452 50875368 51397100 
908.308 52123168 53052124 54183884 55518572 57055848 58795292 60733932 
911.683 62864512 65171376 67625304 70186296 72803304 75421744 77998288 
915.058 80506888 82948280 85349504 87762552 90253184 92883728 95705104 
918.432 98735640 101949840 105263112 108531192 111564280 114127640 115997736 
921.807 117001536 117053944 116199600 114618872 112629408 110616256 
924.700 109004160 108201576 108507368 110097728 112977224 116981584 
927.593 121771216 126865400 131738304 135823264 138622928 139785184 
930.485 139101312 136540352 132218304 126375376 119328472 111433256 
933.378 103083056 94647392 86459392 78812640 71916160 65909712 60867748 
936.753 56803588 53693480 51490536 50140452 49581376 49738848 50520876 
940.128 51793448 53377444 55066300 56620244 57811284 58462744 58458764 
943.502 57775512 56473204 54687284 52590968 50363940 48175964 46151040 
946.877 44367536 42862228 41635140 40664108 39914576 39351344 38940160 
950.252 38649672 38454788 38331468 38258836 38221132 38206444 38208904 
953.627 38228372 38268136 38332520 38424924 38546500 38696140 38872072 
957.002 39072468 39296932 39545868 39819056 40115200 40431080 40762140 
960.377 41104496 41456376 41818648 42194408 42587412 42999940 43432012 
963.751 43881488 44344896 44819484 45304304 45799828 46307272 46827124 
967.126 47358716 47900576 48451716 49013376 49589064 50184520 50805528 
970.501 51456332 52138484 52851720 53594808 54368232 55174300 56017940 
973.876 56904808 57839292 58823784 59858616 60943424 62078652 63266412 
977.251 64510280 65813968 67180640 68611928 70109504 71676184 73318016 
980.625 75044160 76864952 78789728 80824152 82968176 85216000 87555328 
984.000 89968128 92426424 94886520 97290392 99556312 101584656 103274416 
987.375 104525992 105262768 105445424 105074248 104192840 102878768 
990.268 101243920 99415120 97520944 95690736 94030744 92620896 91515512 
993.643 90737640 90288256 90151840 90306864 90729312 91397192 92292360 
997.017 93397016 94692560 96160416 97780656 99533728 101402120 103365008 
1000.392 105395200 107456240 109495128 111446704 113242568 114813824 
1003.285 116107944 117095464 117772888 118164248 118318072 118306504 
1006.178 118212792 118130928 118158808 118380560 118867568 119669952 
1009.070 120812016 122298352 124117704 126252296 128680928 131382856 
1011.963 134338160 137523424 140912048 144476560 148188704 152025904 
1014.856 155970464 160002048 164089632 168179264 172180464 175977120 
1017.748 179431376 182403584 184788496 186529424 187640448 188204432 
1020.641 188377728 188373024 188419616 188763200 189624160 191165008 
1023.534 193493008 196641728 200580432 205222016 210445152 216115504 
1026.427 222082336 228198272 234313776 240263008 245882208 251008864 
1029.320 255492720 259222512 262126320 264172768 265363424 265721776 
1032.213 265286304 264104688 262240464 259770576 256774064 253330048 
1035.106 249500320 245322400 240816240 235991952 230865008 225468912 
1037.999 219857664 214102480 208289728 202506704 196840000 191377680 
1040.892 186196752 181362080 176914608 172856432 169142880 165679024 
1043.785 162342144 158989856 155495472 151780464 147822048 143662704 
1046.678 139394272 135148272 131066992 127278952 123898072 121002760 
1049.571 118635688 116808232 115502312 114678456 114280816 114250000 
1052.464 114526864 115055040 115787200 116677008 117674336 118724784 
1055.357 119760968 120705600 121483432 122019696 122253176 122143816 
1058.250 121672016 120843568 119688416 118264952 116655120 114956200 
1061.144 113283464 111748056 110448944 109471464 108873056 108686832 
1064.037 108923208 109571368 110600656 111958408 113575544 115360152 
1066.930 117201336 118987824 120606080 121958960 122979200 123624600 
1069.823 123881064 123754952 123266704 122444112 121317880 119921560 
1072.716 118288528 116451280 114445784 112309888 110088032 107837440 
1075.609 105622520 103517712 101603072 99948616 98614912 97644184 97055416 
1078.984 96847064 96995920 97462040 98184648 99083984 100069544 101033760 
1082.359 101869984 102490024 102831792 102880576 102670880 102288944 
1085.252 101854480 101504488 101385128 101622000 102314528 103529528 
1088.146 105289080 107570152 110298304 113359728 116595744 119818768 
1091.039 122847104 125506016 127657592 129218576 130153400 130475912 
1093.932 130235152 129508824 128387112 126960504 125321136 123549864 
1096.825 121715696 119881208 118095576 116397776 114814608 113353696 
1099.718 112000040 110710648 109421712 108050280 106509688 104733000 
1102.611 102681840 100361224 97817256 95135544 92424096 89791304 87344712 
1105.986 85171656 83332640 81867816 80792864 80105064 79787056 79811224 
1109.361 80143440 80742264 81565584 82568152 83699096 84906232 86128536 
1112.737 87296624 88341400 89191680 89784584 90075920 90039096 89670152 
1116.112 88983648 88011056 86794904 85382544 83827360 82180472 80486192 
1119.487 78783728 77100496 75454544 73857496 72316320 70837144 69427672 
1122.862 68095152 66846288 65684020 64606196 63606420 62676372 61810120 
1126.238 61007936 60279360 59641556 59118792 58736984 58517336 58474380 
1129.613 58611064 58918036 59372628 59940616 60578904 61234308 61853716 
1132.988 62388156 62798804 63067564 63198492 63220032 63176916 63125796 
1136.363 63125880 63224712 63456296 63832796 64344212 64957180 65619232 
1139.739 66268004 66831448 67240824 67440048 67385560 67053140 66436432 
1143.114 65543816 64395168 63018864 61452776 59738684 57923564 56058276 
1146.489 54189740 52361468 50610816 48963564 47438316 46045852 44790352 
1149.864 43672992 42692388 41845468 41127732 40533208 40055208 39686668 
1153.240 39421980 39257832 39192660 39226460 39358888 39587968 39909236 
1156.615 40316936 40803960 41363832 41991028 42681020 43429776 44233096 
1159.990 45086128 45984444 46923420 47898172 48902484 49925888 50952116 
1163.365 51959376 52918524 53797056 54563812 55187808 55643480 55911464 
1166.740 55977272 55833872 55481784 54930576 54197660 53307608 52290944 
1170.116 51177964 49998636 48781052 47548684 46323752 45127188 43977832 
1173.491 42894488 41893848 40988540 40188400 39498944 38923456 38464344 
1176.866 38124464 37907944 37820164 37866656 38051800 38379388 38852320 
1180.241 39474012 40249424 41184704 42287276 43564556 45022280 46664764 
1183.617 48493980 50509188 52704676 55065396 57565392 60159236 62782684 
1186.992 65358980 67794880 69996200 71877688 73363016 74397800 74952720 
1190.367 75024000 74635360 73834240 72691024 71284632 69699864 68022024 
1193.742 66322820 64664564 63095720 61647528 60338904 59175628 58153368 
1197.118 57259072 56473620 55774872 55136604 54531692 53934036 53315816 
1200.493 52651448 51918676 51099052 50183036 49171528 48077760 46925304 
1203.868 45746300 44577648 43452556 42399232 41437680 40577440 39820252 
1207.243 39162276 38596616 38115168 37709348 37371756 37094580 36871176 
1210.619 36696992 36570060 36492100 36467848 36504608 36609492 36788872 
1213.994 37047196 37386668 37807840 38309392 38888124 39538244 40250228 
1217.369 41012500 41811172 42632588 43466364 44305192 45145716 45987096 
1220.744 46830004 47675984 48527772 49390956 50274912 51192684 52161160 
1224.120 53197636 54316864 55529640 56840032 58244900 59733056 61285544 
1227.495 62875084 64464188 66010764 67467648 68787592 69932016 70872008 
1230.870 71592920 72095872 72398120 72533696 72549632 72511032 72495168 
1234.245 72582888 72862856 73417280 74315896 75618912 77369224 79594936 
1237.621 82311608 85522032 89215400 93362512 97916880 102808904 107944312 
1240.996 113218824 118513312 123701864 128666240 133285152 137442576 
1243.889 141038848 143986352 146222896 147715616 148458752 148470416 
1246.782 147785504 146455136 144541312 142114480 139256112 136043568 
1249.675 132542368 128798184 124827680 120623360 116164176 111433512 
1252.568 106434280 101202000 95804000 90340024 84930248 79690984 74735664 
1255.943 70155064 66005824 62315672 59078892 56263824 53817044 51673296 
1259.319 49765004 48022132 46385060 44806924 43253748 41708300 40167028 
1262.694 38637032 37131680 35667352 34260968 32926212 31674806 30514782 
1266.069 29450776 28483792 27610924 26826220 26121358 25487416 24917414 
1269.444 24406864 23954226 23559808 23224086 22946358 22724388 22554844 
1272.820 22435780 22366914 22350830 22391542 22493040 22657044 22881600 
1276.195 23159704 23478660 23821198 24164284 24480124 24741118 24919626 
1279.570 24995042 24957874 24810998 24569382 24254880 23892854 23504752 
1282.945 23104664 22700754 22295822 21892106 21494404 21111292 20754722 
1286.321 20438212 20173056 19968526 19831198 19765550 19776022 19866852 
1289.696 20041042 20299484 20639314 21053900 21533050 22063762 22631668 
1293.071 23218562 23802788 24360390 24863658 25287848 25615472 25840260 
1296.446 25969724 26024108 26033854 26031566 26049054 26114638 26249004 
1299.822 26467678 26779170 27184284 27673496 28224322 28804842 29371958 
1303.197 29879260 30286354 30559998 30681596 30647352 30466620 30159008 
1306.572 29750648 29273590 28760232 28242142 27748614 27301304 26914024 
1309.947 26592254 26334158 26134554 25987594 25890164 25841526 25842828 
1313.323 25894244 25993750 26136664 26317118 26529802 26771416 27040880 
1316.698 27338600 27664526 28017838 28396800 28800594 29229570 29686252 
1320.073 30173036 30689986 31231408 31785484 32333914 32853410 33321970 
1323.448 33719628 34032856 34257816 34401324 34482928 34532004 34588904 
1326.823 34697636 34897268 35217708 35669872 36244012 36910024 37625908 
1330.199 38348260 39038028 39670916 40238156 40744672 41204340 41636128 
1333.574 42061076 42498280 42965552 43477896 44044784 44669628 45347556 
1336.949 46066812 46809628 47555824 48286672 48985224 49637948 50234960 
1340.324 50768992 51235860 51635084 51969388 52243740 52463452 52632224 
1343.700 52750320 52814340 52818604 52758288 52631512 52440500 52190384 
1347.075 51886372 51530044 51116756 50635088 50069796 49408000 48643572 
1350.450 47782944 46845836 45866808 44890024 43963056 43137000 42457136 
1353.825 41960116 41672668 41604436 41746748 42069396 42526560 43059756 
1357.201 43605144 44107352 44520004 44810892 44964544 44979388 44868936 
1360.576 44659160 44392712 44125692 43919536 43838708 43932812 44225868 
1363.951 44712264 45358484 46111728 46905260 47671180 48342812 48855060 
1367.326 49155984 49208860 48998652 48535256 47850448 46991716 46008828 
1370.702 44951060 43861252 42773112 41719536 40735028 39856280 39124636 
1374.077 38576336 38232784 38095204 38144432 38349708 38677740 39105276 
1377.452 39623320 40237392 40964216 41829196 42864712 44105848 45590600 
1380.827 47352172 49403916 51721480 54222628 56771152 59170084 61190704 
1384.203 62618844 63259280 62980480 61738920 59604912 56772132 53524300 
1387.578 50201820 47099800 44413888 42233372 40548340 39291816 38371896 
1390.953 37700708 37201196 36808492 36473652 36156388 35826480 35466936 
1394.328 35073820 34656292 34230600 33813316 33414784 33037140 32677688 
1397.704 32333628 32006856 31707418 31451252 31255654 31134432 31093214 
1401.079 31129450 31235112 31400244 31615466 31873692 32171282 32506820 
1404.454 32879856 33288770 33729544 34195576 34679296 35174840 35680016 
1407.829 36197080 36731640 37289860 37875368 38487264 39120616 39768504 
1411.205 40424968 41087524 41757508 42437956 43131180 43836988 44552644 
1414.580 45275732 46006400 46748964 47512792 48309188 49149452 50041056 
1417.955 50985128 51974016 52989828 54006936 54994200 55920472 56756648 
1421.330 57479712 58077308 58549828 58917468 59220284 59517768 59871240 
1424.706 60329996 60920472 61643520 62484832 63426928 64459152 65576568 
1428.081 66773944 68040824 69354864 70686768 72010568 73312912 74599152 
1431.456 75888384 77207504 78579352 80018488 81532960 83131376 84831664 
1434.831 86663384 88664960 90869800 93290616 95901504 98646928 101462552 
1438.207 104292000 107088264 109799264 112359072 114667192 116592232 
1441.100 118001912 118766464 118788808 118019432 116452400 114127424 
1443.993 111121336 107553768 103570112 99323016 94976392 90680024 86569336 
1447.368 82772528 79390552 76486864 74073528 72113160 70535200 69263016 
1450.743 68244056 67460168 66926836 66672488 66717840 67052908 67635760 
1454.118 68391304 69226016 70046616 70761552 71308256 71672704 71906232 
1457.494 72102752 72354520 72728000 73247720 73913160 74713624 75636040 
1460.869 76664200 77772768 78928304 80078488 81150832 82066144 82744264 
1464.244 83131088 83219976 83056984 82724384 82305280 81867056 81446904 
1467.619 81055616 80686840 80319928 79920776 79434272 78784480 77882008 
1470.995 76640208 75018288 73057816 70903064 68755376 66809848 65192744 
1474.370 63940472 63031012 62421168 62077156 61983404 62136716 62531628 
1477.745 63149632 63955636 64907008 65960080 67083336 68263720 69505160 
1481.120 70825712 72248736 73799448 75500000 77373736 79451328 81772408 
1484.496 84382960 87323320 90610672 94214736 98034672 101904632 105579088 
1487.871 108753224 111113768 112352200 112238448 110684272 107776744 
1490.764 103775016 99030328 93913096 88711824 83598384 78660840 73915904 
1494.139 69357704 65003976 60906480 57160152 53884220 51180756 49103668 
1497.514 47645036 46755268 46363124 46399036 46807048 47539184 48550820 
1500.890 49798076 51229708 52789268 54419872 56049004 57590396 58937316 
1504.265 59934228 60383756 60060188 58765512 56441320 53253180 49562136 
1507.640 45756460 42104408 38710376 35565424 32624070 29852604 27242382 
1511.015 24814506 22601962 20628440 18902780 17413556 16136630 15043701 
1514.391 14107446 13303798 12608180 11996744 11450663 10958717 10523099 
1517.766 10154424 9863337 9650494 9502064 9389131 9278598 9145218 8986779 
1521.623 8827753 8706680 8652562 8669429 8738290 8828464 8913718 8979404 
1525.481 9028421 9075989 9140921 9233040 9348808 9474631 9596732 9709176 
1529.338 9816429 9930251 10061398 10213276 10378103 10540005 10681421 
1532.713 10794655 10887261 10982063 11102820 11263462 11460904 11680048 
1536.089 11901448 12110049 12299355 12469886 12626940 12775692 12916166 
1539.464 13042584 13149468 13240460 13329763 13435898 13571116 13733734 
1542.839 13909482 14077977 14222912 14338992 14434961 14528004 14636523 
1546.214 14770127 14926370 15094025 15259960 15416311 15563721 15711386 
1549.590 15870992 16050668 16249232 16457042 16660852 16851258 17026754 
1552.965 17194672 17367998 17559024 17774018 18009842 18256506 18500716 
1556.340 18731192 18937702 19111378 19243734 19331092 19381084 19415210 
1559.715 19463896 19550016 19678520 19840562 20017550 20189334 20334866 
1563.091 20439080 20496008 20510006 20495002 20469470 20448144 20435642 
1566.466 20425014 20401886 20351396 20263726 20139112 19988440 19831406 
1569.841 19689026 19576360 19500352 19460154 19451352 19467674 19501012 
1573.216 19540590 19571436 19575494 19537122 19449378 19322050 19181222 
1576.592 19061314 18986574 18962794 18979408 19018800 19064880 19108816 
1579.967 19150194 19194312 19248548 19317652 19402288 19498274 19599722 
1583.342 19699806 19792218 19870252 19924468 19943166 19913992 19827244 
1586.717 19680324 19480564 19246296 19002878 18778866 18602520 18495736 
1590.093 18474924 18550716 18726764 18998550 19348864 19747414 20147684 
1593.468 20492778 20728414 20807868 20704748 20418554 19973176 19411226 
1596.843 18781114 18133120 17508240 16937206 16444480 16046369 15753953 
1600.218 15572031 15499057 15528486 15650341 15855907 16137766 16489459 
1603.594 16903994 17368720 17864188 18365892 18843362 19264758 19601698 
1606.969 19827868 19923670 19877674 19685938 19352916 18890736 18320474 
1610.344 17670096 16974036 16271213 15595970 14973696 14416875 13923373 
1613.719 13481251 13072222 12678554 12286709 11892152 11502308 11135420 
1617.094 10814901 10560000 10380173 10273289 10228406 10228338 10254087 
1620.470 10287709 10314716 10327881 10329341 10330562 10347053 10392593 
1623.845 10473370 10586584 10723838 10875982 11037526 11206270 11381542 
1627.220 11561649 11742000 11915616 12076695 12222907 12357338 12486424 
1630.595 12616639 12751295 12888040 13018240 13129899 13209684 13244799 
1633.971 13225943 13149673 13021790 12857357 12679407 12511659 12370055 
1637.346 12260090 12177208 12110833 12046988 11972186 11876828 11758205 
1640.721 11621032 11475804 11335456 11209058 11098571 10997763 10894804 
1644.096 10774921 10624645 10436985 10212801 9964085 9710293 9474225 9276500 
1647.954 9130160 9039551 9001561 9007345 9042596 9086342 9112091 9085022 
1651.811 8969696 8748094 8442440 8119310 7853706 7686731 7611833 7597300 
1655.669 7608191 7619319 7617970 7600638 7569887 7530980 7488031 7442120 
1659.526 7391125 7330970 7257581 7167801 7060795 6937823 6803309 6664293 
1663.384 6529594 6408723 6309065 6233261 6179349 6139995 6104677 6060491 
1667.241 5996085 5903911 5783282 5640564 5486987 5336485 5200050 5084108 
1671.098 4990585 4918162 4862804 4817706 4773684 4718848 4641747 4536400 
1674.956 4406610 4267891 4141024 4043423 3981322 3948954 3933206 3920099 
1678.813 3900641 3873227 3843775 3821981 3815028 3822181 3833011 3828031 
1682.671 3785580 3689396 3541319 3364941 3198949 3075798 3005394 2978103 
1686.528 2974833 2978903 2978336 2968094 2947878 2919823 2886834 2851679 
1690.385 2817928 2789948 2772074 2767339 2775009 2789348 2799019 2790248 
1694.243 2750466 2675748 2575476 2473195 2396358 2360977 2365041 2390195 
1698.100 2412151 2404588 2348384 2239961 2097305 1956159 1850596 1797392 
1701.958 1791104 1814660 1848334 1875953 1886768 1874688 1839516 1786379 
1705.815 1724766 1664426 1613606 1576393 1552816 1540246 1534195 1531036 
1709.673 1528775 1527411 1528708 1534993 1547795 1566815 1590659 1616799 
1713.530 1643505 1669848 1695460 1719377 1738239 1745957 1736044 1704242 
1717.387 1653750 1595215 1545134 1516871 1516838 1543006 1587466 1640046 
1721.245 1691901 1738006 1777064 1811067 1843409 1877051 1913625 1952564 
1725.102 1993139 2034383 2076329 2118014 2157938 2192704 2218180 2230936 
1728.960 2230703 2220911 2207223 2195235 2186443 2175887 2151478 2096572 
1732.817 1996134 1845339 1657308 1462544 1296347 1181841 1121842 1103638 
1736.675 1108753 1120878 1127256 1121676 1103405 1076233 1046639 1020899 
1740.532 1003928 997817 1002566 1017112 1039697 1068062 1099618 1132572 
1744.389 1165428 1198187 1231580 1266305 1302362 1337957 1370130 1395426 
1748.247 1410950 1415271 1408091 1390473 1364347 1331741 1296048 1261620 
1752.104 1233242 1214967 1208288 1211544 1219818 1225267 1220549 1200214 
1755.962 1164232 1117656 1070387 1032124 1007913 996588 991142 982640 962117 
1760.301 924661 870673 805539 737593 675133 624097 586802 562516 549113 
1764.641 543738 542809 542245 537634 525757 505455 479681 454107 435732 
1768.980 428767 432747 441602 446644 438783 413278 373249 328946 293036 
1773.320 275000 277055 294462 319695 345725 369104 390229 411620 435500 
1777.660 462134 488438 510199 523103 526023 521179 513914 509602 511260 
1781.999 518691 528046 535112 535975 529838 518094 504460 492485 484922 
1786.339 483164 487874 499119 517032 541184 569317 597320 619418 629041 
1790.678 620944 593770 550473 498787 447407 403892 371525 349903 336142 
1795.018 327156 320524 315020 309615 303315 294595 282029 265186 244332 
1799.358 221259 198352 177899 160995 147769 137726 130335 125993 125331 
1803.697 129175 137494 148830 161227 172728 182176 189932 197556 206407 
1808.037 217446 229745 241581 250963 257129 260345 262998 267109 274270 
1812.376 284084 294926 304708 312168 317341 321950 328250 338463 353783 
1816.716 374078 398254 425085 453808 483960 515606 548549 581825 615005 
1821.056 647324 678286 707258 733411 754653 769224 775498 774203 768760 
1825.395 765374 769623 785323 811614 843583 873296 892985 898330 890627 
1829.735 876982 866889 869312 888137 921042 962317 1005655 1047170 1086099 
1834.074 1124964 1167189 1215531 1270260 1329814 1391437 1453767 1517603 
1837.932 1585937 1662464 1750715 1851495 1963681 2083854 2207556 2331028 
1841.789 2450236 2561911 2664246 2757302 2843841 2928963 3019440 3120281 
1845.647 3232830 3353721 3475849 3590627 3689496 3766963 3821011 3852667 
1849.504 3864201 3857849 3833914 3790928 3727359 3643250 3541118 3426319 
1853.362 3305808 3184696 3066454 2951380 2837971 2725125 2613075 2503520 
1857.219 2398824 2300282 2207057 2116649 2026426 1934758 1843076 1754607 
1861.076 1673473 1601999 1540014 1484753 1433089 1383459 1336926 1297045 
1864.934 1267668 1250554 1243443 1241150 1236099 1222775 1199616 1170611 
1868.791 1142870 1123935 1118387 1126127 1143335 1164797 1186426 1205431 
1872.649 1220449 1230683 1234172 1229055 1213837 1188718 1156425 1121177 
1876.506 1087494 1058064 1032224 1007348 979386 945879 907096 866391 828013 
1880.846 795746 770851 751367 733577 714227 691461 665874 639560 614706 
1885.185 592210 571407 550672 528776 505588 482368 460741 442133 426511 
1889.525 413643 403428 397094 396663 405186 423460 449596 478818 504957 
1893.865 522506 529340 527880 522937 520549 525226 537202 554553 573332 
1898.204 591447 607904 624428 641882 660664 678850 693684 702977 707391 
1902.544 709780 714725 725545 742372 761656 778452 787315 787348 780377 
1906.883 772046 767200 768660 774701 781307 784062 781572 775963 772046 
1911.223 774436 784294 799331 813639 821373 819880 810120 795713 780975 
1915.563 767698 753392 733079 702346 660698 613280 569649 539060 526388 
1919.902 530136 543274 556610 562516 558004 544700 527350 509900 494641 
1924.242 480842 466612 451387 437191 427904 427440 437324 454704 474241 
1928.581 490196 499351 502271 502436 503531 506284 508341 503830 488106 
1932.921 460210 424621 389764 364527 354314 358757 372287 387111 397392 
1937.260 401704 403030 405285 411587 421337 430525 435267 433510 427739 
1941.600 423128 425981 438120 457092 476530 490130 495769 496897 500678 
1945.940 514843 542577 581062 621774 654691 673607 677954 674303 671151 
1950.279 676859 694647 722060 753524 783431 808560 828112 842653 851451 
1954.619 851683 839898 813971 775929 732847 695012 671084 665941 676261 
1958.958 693684 708519 714858 712303 707158 706627 716020 735303 760296 
1963.298 785224 806701 825623 844379 866324 890528 911645 922868 919248 
1967.638 901252 877413 859784 857626 875089 906631 940832 964641 970884 
1971.977 958830 936050 912807 897069 892752 899858 917123 946543 993632 
1976.317 1065305 1164398 1286842 1418196 1539448 1634492 1694163 1719344 
1980.174 1719078 1704275 1683685 1660867 1634692 1601600 1561162 1515741 
1984.032 1470024 1429300 1396091 1368037 1341812 1313695 1283087 1253246 
1987.889 1229420 1214933 1209584 1207823 1203204 1190712 1171342 1152172 
1991.747 1143767 1155561 1191077 1246201 1310837 1374551 1429665 1473615 
1995.604 1508692 1538451 1564321 1584041 1592821 1585837 1562293 1526081 
1999.461 1485218 1447783 1419360 1400911 1388844 1376679 1360458 1338754 
2003.319 1313263 1287806 1265275 1247131 1233208 1223705 1219319 1223606 
2007.176 1238592 1264311 1296181 1326989 1349191 1358364 1356436 1349091 
2011.034 1345800 1354043 1376147 1409553 1448581 1486648 1521393 1553215 
2014.891 1584274 1616832 1649858 1680558 1705206 1723170 1736776 1752178 
2018.749 1775733 1808904 1848566 1887767 1917885 1933893 1937288 1934758 
2022.606 1935723 1947339 1972002 2006553 2045202 2082123 2114951 2144685 
2026.463 2172823 2199431 2221544 2234000 2232235 2216948 2193902 2173889 
2030.321 2167928 2183679 2220512 2272802 2330761 2386696 2437141 2483192 
2034.178 2527682 2572010 2613809 2647477 2667413 2671280 2661479 2645677 
2038.036 2633076 2630376 2640843 2662479 2691417 2723291 2756102 2789748 
2041.893 2823831 2856982 2884432 2900743 2901510 2886500 2859650 2828433 
2045.750 2801453 2785179 2782778 2793716 2815660 2846609 2884365 2926094 
2049.608 2967260 3001223 3019841 3017471 2993783 2954383 2911083 2877828 
2053.465 2865520 2878195 2911684 2954850 2995485 3023344 3035022 3032953 
2057.323 3023110 3011599 3001990 2995084 2989780 2985609 2984408 2988512 
2061.180 3001090 3022443 3049637 3076598 3097555 3108634 3110403 3106599 
2065.038 3102694 3102627 3107867 3116477 3124620 3129726 3130127 3126189 
2068.895 3118846 3107500 3090948 3066521 3032987 2991648 2946777 2904379 
2072.752 2870490 2848010 2836537 2831635 2829167 2825198 2819195 2812925 
2076.610 2809790 2811458 2818228 2828400 2839572 2850612 2861918 2874826 
2080.467 2891237 2911083 2932265 2951147 2964424 2970196 2969529 2964891 
2084.325 2959053 2954083 2950079 2945509 2938904 2930197 2919823 2909983 
2088.182 2901910 2895106 2887501 2876060 2859017 2836771 2812225 2789481 
2092.040 2772274 2761670 2756068 2751667 2745165 2735295 2723325 2713356 
2095.897 2708954 2712722 2724292 2740930 2759169 2777109 2794383 2811525 
2099.754 2829600 2848177 2865987 2880763 2891937 2900976 2911751 2929197 
2103.612 2956751 2995384 3042463 3092716 3141007 3183761 3219644 3249955 
2107.469 3276261 3299565 3319464 3335190 3346442 3355024 3364440 3378899 
2111.327 3401640 3433633 3472275 3513426 3552777 3587754 3618124 3645355 
2115.184 3671117 3696213 3720174 3741396 3758842 3773280 3786616 3801758 
2119.042 3821078 3844544 3870419 3896128 3919665 3940796 3961895 3986372 
2122.899 4016268 4051918 4090849 4128714 4162333 4189531 4211211 4229546 
2126.756 4247212 4265080 4282246 4296233 4305135 4308380 4307544 4305335 
2130.614 4304833 4307678 4313501 4321967 4332609 4346230 4365207 4391313 
2134.471 4423781 4459164 4491101 4513968 4523945 4522471 4514771 4507606 
2138.329 4507004 4514537 4526824 4539045 4545105 4542025 4530507 4513432 
2142.186 4493444 4472521 4449724 4422509 4390443 4354798 4320394 4291214 
2146.043 4270065 4254339 4238446 4214456 4176316 4123529 4060848 3995701 
2149.901 3936048 3885630 3842338 3800454 3753227 3694676 3623971 3542488 
2153.758 3452870 3356760 3255363 3149117 3042763 2947210 2877294 2851045 
2157.616 2882731 2975434 3118646 3292153 3469803 3628148 3752926 3837658 
2161.473 3883758 3897498 3886599 3860490 3829903 3803763 3790627 3794872 
2165.331 3813925 3839296 3860122 3864669 3846015 3805167 3748548 3685854 
2169.188 3626210 3575093 3532834 3497059 3463424 3428857 3392690 3355057 
2173.045 3316225 3275794 3232963 3187400 3141140 3097922 3061983 3035756 
2176.903 3017205 3000189 2976968 2941072 2891337 2833135 2776143 2729893 
2180.760 2700986 2688917 2687416 2687983 2684383 2674581 2661646 2651178 
2184.618 2647044 2649144 2654178 2656778 2653545 2645344 2636810 2633543 
2188.475 2640077 2655745 2675581 2693751 2705420 2710088 2711322 2715589 
2192.333 2727593 2748699 2776042 2803721 2827232 2844508 2857249 2869389 
2196.190 2885099 2905213 2928329 2949979 2966192 2975400 2978536 2978470 
2200.047 2978336 2979570 2981239 2981672 2979103 2973899 2968094 2965025 
2203.905 2966493 2972565 2981405 2989713 2995318 2997453 2997320 2996352 
2207.762 2996118 2995318 2992348 2985542 2974766 2963223 2954817 2954783 
2211.620 2965192 2986109 3012967 3040427 3064219 3082839 3096454 3108167 
2215.477 3120348 3133764 3147348 3158996 3166205 3168308 3165437 3158662 
2219.334 3149017 3136835 3121583 3103595 3083406 3063418 3046634 3035189 
2223.192 3029583 3028315 3028315 3026847 3022743 3016837 3011232 3008630 
2227.049 3010031 3014936 3020641 3024445 3023978 3018139 3007596 2993049 
2230.907 2975734 2956818 2937670 2921124 2910683 2910216 2922091 2946110 
2234.764 2978403 3011599 3039593 3057111 3063518 3061749 3057578 3056544 
2238.622 3061616 3072627 3086910 3101593 3114775 3127090 3140906 3159029 
2242.479 3182426 3210832 3242878 3276295 3311016 3347945 3388416 3432798 
2246.336 3479055 3522913 3559491 3584981 3598646 3603022 3603056 3603190 
2250.194 3605963 3611609 3618291 3624071 3628916 3635031 3646224 3665671 
2254.051 3693707 3726791 3758875 3782271 3791530 3784343 3762652 3730601 
2257.909 3693573 3655780 3619460 3585950 3555516 3528291 3505443 3487539 
2261.766 3474747 3466664 3462122 3460218 3461120 3465361 3474446 3488975 
2265.624 3508182 3529593 3550305 3567075 3578199 3584380 3587487 3589425 
2269.481 3592298 3595873 3599080 3600249 3598379 3592799 3584547 3574992 
2273.338 3565672 3558155 3553278 3552075 3555315 3563834 3577698 3595839 
2277.196 3616287 3637169 3656281 3673156 3688293 3702964 3718536 3734778 
2281.053 3749985 3762083 3769370 3771943 3772177 3774249 3782705 3800320 
2284.911 3827229 3860122 3894356 3924413 3946413 3959052 3963165 3961159 
2288.768 3955642 3949155 3942869 3938154 3935780 3936048 3939626 3946179 
2292.625 3955207 3965773 3977276 3989415 4003159 4019813 4040213 4064226 
2296.483 4090482 4116605 4139987 4159188 4173540 4184312 4192877 4200471 
2300.340 4207029 4212248 4214724 4214021 4210609 4206192 4202546 4201241 
2304.198 4202445 4205289 4208367 4210843 4212683 4215025 4220010 4228977 
2308.055 4242595 4259893 4279468 4299579 4319156 4338232 4357308 4376921 
2311.913 4397003 4416953 4435229 4451163 4464319 4475668 4486113 4496926 
2315.770 4508778 4521233 4533387 4544670 4554346 4562952 4571256 4580565 
2319.627 4591816 4606316 4624433 4646502 4672023 4699286 4724743 4743501 
2323.485 4750503 4741023 4713421 4669143 4613114 4552572 4495018 4446744 
2327.342 4410760 4387230 4373708 4366847 4363667 4362228 4361827 4362697 
2331.200 4364738 4367817 4371767 4376352 4382410 4391380 4404200 4421438 
2335.057 4442292 4464620 4486649 4506970 4525920 4545205 4567104 4593189 
2338.915 4623361 4656081 4688702 4718948 4745645 4769530 4791942 4814523 
2342.772 4836937 4857510 4873594 4882641 4884349 4881032 4877715 4880932 
2346.629 4897150 4930427 4982709 5053032 5138253 5233618 5333801 5432665 
2350.487 5524236 5603776 5668191 5716835 5751954 5777304 5797854 5817298 
2354.344 5837547 5858906 5880535 5901526 5922150 5943949 5969412 6000621 
2358.202 6038584 6082667 6130787 6180862 6230437 6277969 6322748 6364439 
2362.059 6402737 6437676 6469322 6497842 6524313 6549608 6573962 6597073 
2365.917 6617695 6634651 6646730 6653896 6657093 6658102 6658708 6660054 
2369.774 6662005 6664293 6666278 6667725 6669576 6673142 6679603 6690303 
2373.631 6705478 6725063 6748518 6776047 6807819 6844204 6885878 6932942 
2377.489 6985399 7043586 7107979 7179826 7260580 7351088 7451188 7558963 
2381.346 7671151 7783839 7893081 7996241 8092236 8181128 8263621 8340153 
2385.204 8410887 8475043 8532079 8581654 8624001 8659796 8690285 8715808 
2389.061 8736667 8752557 8763173 8768447 8768988 8765607 8759048 8749920 
2392.918 8737748 8722333 8703402 8681666 8658410 8635831 8615891 8600174 
2396.776 8589833 8585304 8586791 8594969 8610381 8633905 8665779 8705430 
2400.633 8751171 8801481 8854705 8910235 8968816 9031770 9100621 9176689 
2404.491 9260117 9350806 9448185 9552325 9663469 9782640 9910149 10045866 
2408.348 10188819 10337212 10489323 10643864 10800328 10958513 11118117 
2411.723 11278390 11437532 11593126 11742613 11883775 12015138 12135978 
2415.099 12245673 12344009 12430366 12504327 12565715 12615240 12653924 
2418.474 12683365 12705097 12719768 12727991 12729765 12725466 12715879 
2421.849 12702572 12687391 12671971 12657710 12645668 12636526 12631341 
2425.224 12631956 12640312 12658871 12689676 12733280 12790161 12859848 
2428.600 12941802 13036301 13143902 13265090 13400152 13548247 13707574 
2431.975 13875956 14051042 14231472 14416772 14607806 14805814 15012213 
2435.350 15228456 15455519 15694037 15944442 16206341 16478550 16759470 
2438.725 17046190 17336410 17628306 17922092 18219530 18523988 18838482 
2442.101 19165394 19505656 19858078 20219950 20588934 20962440 21339084 
2445.476 21718672 22101378 22487354 22877060 23269948 23665606 24062990 
2448.851 24461264 24858640 25253606 25643626 26026290 26399890 26762958 
2452.226 27114446 27454214 27781534 28095492 28394676 28677292 28941354 
2455.602 29185378 29407342 29605654 29777936 29921288 30032372 30108150 
2458.977 30145724 30143310 30099948 30015294 29889836 29724500 29521168 
2462.352 29282876 29014214 28721434 28411126 28090400 27765040 27439392 
2465.727 27116808 26799468 26489792 26191070 25907782 25645488 25409770 
2469.103 25205428 25035792 24902114 24804014 24739646 24706290 24701240 
2472.478 24720914 24761534 24819698 24891694 24974054 25064364 25160344 
2475.853 25260314 25362170 25463418 25560716 25650656 25730208 25796624 
2479.228 25848560 25886014 25909050 25918898 25916296 25901454 25874900 
2482.604 25836568 25786636 25725708 25654804 25575126 25488610 25397474 
2485.979 25303934 25209994 25117090 25025576 24934434 24842468 24747890 
2489.354 24649228 24545998 24438444 24327132 24212418 24093846 23969878 
2492.729 23838244 23696782 23543752 23378924 23202868 23017100 22822788 
2496.104 22620426 22409894 22190534 21961736 21723652 21477448 21224948 
2499.480 20968142 20709092 20449360 20189612 19930920 19673804 19419682 
2502.855 19169968 18926106 18689438 18460714 18240162 18027664 17823588 
2506.230 17628342 17442218 17265792 17099158 16941856 16792946 16651867 
2509.605 16517648 16389733 16267532 16150385 16037535 15927978 15820613 
2512.981 15715063 15611357 15510458 15413324 15321395 15235285 15155334 
2516.356 15082052 15016089 14958263 14910836 14875209 14852270 14842601 
2519.731 14844316 14855185 14872432 14893314 14915534 14937996 14960322 
2523.106 14982614 15005353 15029500 15055845 15085346 15118658 15155334 
2526.482 15194107 15232678 15267956 15297369 15318924 15332036 15337184 
2529.857 15335777 15328775 15317001 15300493 15279111 15252582 15221799 
2533.232 15187484 15151011 15113751 15076460 15039790 15004358 14970575 
2536.607 14939882 14913888 14893382 14878741 14869071 14862419 14856762 
2539.983 14851002 14844899 14839584 14836910 14837733 14842053 14848568 
2543.358 14854944 14858647 14858614 14854738 14848156 14840921 14834853 
2546.733 14830979 14829504 14829916 14831527 14833584 14835265 14835744 
2550.108 14833962 14828750 14819184 14805472 14788947 14771841 14756998 
2553.484 14746817 14742052 14742326 14746131 14750896 14754667 14756003 
2556.859 14754564 14750279 14743184 14733003 14719224 14701161 14678642 
2560.234 14651362 14619868 14584367 14544827 14500905 14452396 14399167 
2563.609 14342314 14283962 14226303 14172176 14123568 14081331 14045293 
2566.985 14014835 13988486 13965765 13945886 13928813 13914648 13903632 
2570.360 13895866 13892342 13893608 13900518 13913896 13933637 13958545 
2573.735 13987049 14017333 14047825 14078422 14109945 14143456 14180392 
2577.110 14221064 14264513 14308925 14352177 14392454 14429412 14464043 
2580.486 14498335 14534617 14575150 14620896 14672336 14729061 14789942 
2583.861 14854053 14920301 14987964 15056324 15125313 15194793 15265039 
2587.236 15336636 15409513 15483606 15558707 15634233 15709668 15785048 
2590.611 15860649 15937189 16015565 16096089 16178243 16261168 16342975 
2593.987 16421733 16495999 16564734 16627733 16685642 16739635 16791222 
2597.362 16842128 16894212 16948954 17007424 17070176 17136934 17207150 
2600.737 17280274 17355686 17433628 17514552 17599358 17688698 17783132 
2604.112 17882246 17985598 18092704 18203224 18316984 18434544 18556042 
2607.488 18681242 18809694 18940296 19071734 19203176 19334036 19463896 
2610.863 19592892 19720888 19847326 19971822 20093370 20211064 20324068 
2614.238 20431614 20533212 20628160 20716112 20796814 20870164 20936536 
2617.613 20996588 21050876 21100058 21144650 21184936 21221676 21255636 
2620.989 21288312 21321372 21356174 21393486 21433342 21474768 21516512 
2624.364 21557388 21596528 21634070 21670744 21707630 21746050 21786706 
2627.739 21829874 21875344 21923258 21973098 22024684 22078438 22134186 
2631.114 22192104 22252400 22315216 22380378 22448132 22517818 22588630 
2634.490 22659698 22730010 22798622 22865464 22930464 22994076 23057246 
2637.865 23120528 23184134 23248238 23312946 23378364 23445086 23513672 
2641.240 23584752 23658364 23734156 23811536 23889422 23967006 24043764 
2644.615 24119798 24195882 24272330 24350438 24431084 24514970 24602976 
2647.990 24695628 24793244 24895552 25001710 25110666 25220914 25331226 
2651.366 25441002 25550420 25660534 25772222 25886612 26004760 26126882 
2654.741 26252524 26382038 26514974 26651190 26791046 26934400 27081046 
2658.116 27230530 27382112 27535192 27689246 27843566 27997694 28150992 
2661.491 28303142 28453754 28602860 28750426 28897156 29043402 29189630 
2664.867 29335904 29482122 29628142 29773926 29919832 30066672 30214808 
2668.242 30364874 30517056 30670998 30826204 30982568 31139952 31298634 
2671.617 31459160 31621740 31785804 31950470 32114624 32276876 32436870 
2674.992 32594386 32750462 32905876 33061598 33218014 33374994 33532460 
2678.368 33690376 33848880 34008632 34170808 34336376 34506388 34681884 
2681.743 34863984 35053920 35253136 35462836 35684112 35917344 36162296 
2685.118 36418300 36684448 36959772 37243468 37535152 37834192 38140056 
2688.493 38451676 38768336 39089540 39415120 39745704 40082388 40426024 
2691.869 40777720 41137820 41506504 41883376 42268648 42661720 43062388 
2695.244 43470316 43884600 44304124 44728060 45155676 45586700 46021540 
2698.619 46460684 46904336 47352616 47804872 48260084 48717512 49176728 
2701.994 49637240 50098876 50561412 51023324 51482928 51937716 52384872 
2705.370 52822044 53247000 53658424 54054404 54433428 54793616 55132804 
2708.745 55449144 55741040 56008100 56250508 56468824 56664372 56838332 
2712.120 56991392 57124360 57237224 57329696 57401200 57451232 57478504 
2715.495 57482548 57462884 57419236 57351664 57260244 57145524 57008244 
2718.871 56849888 56672116 56478108 56271484 56056428 55837564 55619264 
2722.246 55405400 55199620 55005372 54825568 54663536 54522488 54404700 
2725.621 54311792 54245004 54203932 54187864 54195864 54226756 54279580 
2728.996 54353248 54446876 54559004 54688188 54832672 54990928 55161620 
2732.372 55343672 55536004 55737352 55946096 56160152 56377668 56596880 
2735.747 56816692 57036352 57255596 57473700 57689948 57903044 58111168 
2739.122 58312916 58507400 58694500 58874552 59048864 59218424 59384560 
2742.497 59549004 59713248 59879380 60049760 60226260 60410484 60603324 
2745.873 60804328 61012668 61226904 61445640 61666776 61888708 62108884 
2749.248 62324280 62531740 62728048 62910580 63077792 63229308 63366272 
2752.623 63489856 63602044 63704320 63797876 63883192 63960856 64030388 
2755.998 64091600 64143172 64183852 64211892 64225452 64222684 64202100 
2759.374 64162040 64100928 64017104 63908680 63774312 63613280 63425660 
2762.749 63212900 62977576 62721924 62449556 62162792 61864408 61557224 
2766.124 61244072 60928516 60614524 60305856 60005932 59717396 59442836 
2769.499 59183644 58941868 58719268 58517448 58337816 58180796 58045648 
2772.875 57930300 57832592 57749436 57677988 57616348 57562628 57515120 
2776.250 57472188 57431452 57389820 57343724 57289016 57221460 57137060 
2779.625 57032044 56903636 56750724 56573556 56374312 56157060 55926612 
2783.000 55687588 55444400 55200488 54958140 54718776 54483724 54253636 
2786.375 54029188 53810104 53595744 53384036 53172432 52958424 52739508 
2789.751 52514864 52284364 52048792 51809836 51568960 51327920 51088616 
2793.126 50852684 50622580 50400556 50189208 49990604 49805880 49635644 
2796.501 49479772 49337908 49209752 49095320 48994832 48908196 48835328 
2799.876 48775384 48727524 48690232 48662620 48643720 48632380 48627856 
2803.252 48628560 48632896 48639236 48646092 48652468 48657992 48662920 
2806.627 48667476 48671960 48676224 48679596 48680968 48679484 48673704 
2810.002 48662360 48644312 48617888 48581832 48535036 48476456 48405744 
2813.377 48322928 48228352 48122660 48006960 47882264 47750840 47615716 
2816.753 47480856 47351176 47232212 47129268 47047544 46991312 46964064 
2820.128 46968792 47007076 47079672 47186148 47324760 47492536 47685564 
2823.503 47900060 48131764 48377224 48633008 48895548 49160584 49423260 
2826.878 49677620 49917968 50138852 50335740 50505728 50647188 50760276 
2830.254 50845384 50904612 50940304 50955916 50955172 50942392 50921308 
2833.629 50895376 50867360 50839200 50812940 50790744 50774728 50768096 
2837.004 50773052 50792084 50826684 50878424 50949396 51042812 51163944 
2840.379 51319492 51517772 51766980 52075276 52449660 52896668 53422184 
2843.755 54032488 54733472 55529868 56422152 57405244 58463008 59567780 
2847.130 60680928 61749232 62713312 63512408 64087144 64392320 64401200 
2850.505 64108840 63533576 62714808 61708824 60575248 59376616 58169580 
2853.880 56997284 55892884 54877636 53961428 53147156 52431452 51807036 
2857.256 51263672 50789700 50372832 50000828 49662984 49350088 49054440 
2860.631 48770488 48493464 48219764 47946496 47671548 47393672 47112832 
2864.006 46830112 46547980 46270048 46000872 45746224 45512184 45305300 
2867.381 45131968 44997360 44905344 44857216 44852584 44888300 44958924 
2870.757 45058924 45180384 45315228 45455560 45593364 45721524 45835180 
2874.132 45930852 46008276 46069356 46117916 46158264 46194416 46229908 
2877.507 46266212 46304660 46345908 46390740 46440404 46496640 46561440 
2880.882 46636432 46723024 46821696 46932428 47054044 47185112 47322724 
2884.258 47463928 47605032 47742216 47872680 47994380 48106592 48210248 
2887.633 48307524 48401520 48495652 48593728 48699240 48815940 48947948 
2891.008 49099884 49276888 49485676 49733608 50029048 50382248 50803328 
2894.383 51302340 51888764 52568640 53343160 54205848 55141308 56123164 
2897.759 57113024 58065868 58930824 59656756 60202852 60540544 60660472 
2901.134 60571896 60303004 59895428 59394436 58848520 58301208 57786564 
2904.509 57333024 56961168 56685364 56517016 56464600 56534228 56731540 
2907.884 57061632 57529452 58141400 58903880 59821840 60895424 62117528 
2911.260 63468344 64912892 66405236 67884784 69283848 70538784 71588816 
2914.635 72387592 72908008 73141368 73098200 72803928 72295928 71615624 
2918.010 70803944 69900488 68938320 67944800 66943384 65951520 64983660 
2921.385 64050928 63160748 62318200 61525612 60783592 60091388 59447472 
2924.760 58850340 58298216 57788760 57319184 56886072 56485052 56111584 
2928.136 55760480 55426748 55105572 54792448 54483796 54176528 53868240 
2931.511 53557920 53245052 52930092 52613784 52297220 51981748 51668932 
2934.886 51360516 51058984 50767388 50489164 50227816 49986628 49768572 
2938.261 49576140 49411896 49278520 49179136 49116804 49094208 49112240 
2941.637 49169788 49262380 49382604 49520360 49662872 49796848 49908196 
2945.012 49983280 50010344 49979900 49886600 49729780 49514416 49251244 
2948.387 48954144 48640648 48328480 48032308 47764188 47531316 47335732 
2951.762 47176064 47048504 46947564 46867500 46803208 46749808 46703172 
2955.138 46659340 46614816 46566088 46510692 46446488 46372744 46290172 
2958.513 46200940 46108264 46015608 45926320 45842688 45766252 45696788 
2961.888 45633808 45576616 45524548 45477412 45435988 45400528 45371984 
2965.263 45351236 45338768 45335016 45340496 45355872 45381508 45417740 
2968.639 45464648 45522156 45590452 45669732 45760584 45863756 45980100 
2972.014 46109480 46250988 46402724 46561552 46723424 46883664 47036876 
2975.389 47176804 47296864 47389684 47447260 47462560 47429776 47345116 
2978.764 47207976 47020668 46788740 46519876 46223420 45910304 45591040 
2982.140 45275916 44973880 44691224 44431688 44195604 43980544 43781240 
2985.515 43591556 43405536 43218576 43028292 42834508 42638688 42442304 
2988.890 42245712 42046508 41839080 41615160 41364308 41077032 40745980 
2992.265 40369188 39949992 39497852 39026756 38551496 38086340 37641772 
2995.641 37222748 36829408 36458084 36102808 35757576 35418116 35081828 
2999.016 34748284 34418148 34092344 33771304 33455256 33143878 32836862 
3002.391 32534674 32237690 31947080 31664148 31390056 31125996 30873020 
3005.766 30631744 30402790 30186534 29982170 29788972 29605546 29430140 
3009.142 29260970 29096864 28936784 28780200 28627032 28477104 28330304 
3012.517 28186912 28047102 27911224 27780086 27654072 27533426 27418566 
3015.892 27309030 27204424 27104640 27009498 26918994 26833304 26752246 
3019.267 26675290 26602012 26531422 26462886 26395840 26330178 26265582 
3022.643 26201946 26139374 26077798 26017566 25960050 25906974 25860974 
3026.018 25824824 25800702 25789942 25792228 25805802 25827074 25851902 
3029.393 25874796 25890446 25893892 25880950 25848666 25796202 25724512 
3032.768 25635964 25534570 25424560 25309906 25193840 25078370 24964682 
3036.144 24853482 24745222 24640390 24539862 24444648 24355448 24272820 
3039.519 24197038 24127820 24064426 24006258 23952230 23901430 23852804 
3042.894 23805726 23759598 23714560 23670818 23629076 23590244 23554668 
3046.269 23522730 23494434 23469392 23447114 23427600 23410256 23394974 
3049.645 23381616 23369412 23357944 23346722 23335078 23322772 23309662 
3053.020 23295748 23281344 23267010 23253168 23240408 23229642 23221394 
3056.395 23216150 23213950 23214472 23216814 23220346 23224574 23229608 
3059.770 23235970 23244430 23255580 23269948 23287636 23308018 23331476 
3063.146 23357876 23387806 23421864 23460720 23504192 23551658 23601858 
3066.521 23653394 23704830 23755294 23803976 23850460 23894288 23934864 
3069.896 23971104 24002268 24027970 24048280 24063796 24075878 24085580 
3073.271 24094686 24103756 24113950 24125928 24139904 24156228 24174760 
3076.646 24195112 24216832 24239148 24261502 24283122 24303900 24323560 
3080.022 24341852 24358708 24373918 24387586 24400240 24412754 24426282 
3083.397 24441704 24459932 24480508 24503086 24526680 24550556 24574468 
3086.772 24598944 24624542 24652138 24682476 24715444 24750870 24788580 
3090.147 24828258 24870008 24914326 24960928 25009256 25058678 25107578 
3093.523 25155148 25201602 25247744 25295576 25347628 25405554 25470268 
3096.898 25541354 25617334 25695404 25773698 25849930 25923260 25993540 
3100.273 26061368 26127692 26193816 26260584 26328842 26398870 26470422 
3103.648 26542800 26615362 26687340 26758060 26827630 26896292 26964508 
3107.024 27033088 27101890 27171162 27240866 27310512 27379994 27449272 
3110.399 27518282 27587054 27655732 27724420 27793262 27863172 27934934 
3113.774 28009744 28088280 28170896 28256852 28344734 28433024 28519844 
3117.149 28604242 28685930 28765188 28842694 28918970 28994270 29068238 
3120.525 29140480 29210538 29278054 29343492 29406988 29469464 29531488 
3123.900 29593878 29657090 29721802 29788654 29857966 29930090 30004998 
3127.275 30082296 30161672 30242372 30323658 30404852 30485280 30564016 
3130.650 30640702 30714952 30786794 30856904 30926598 30996910 31069438 
3134.026 31145324 31224928 31308644 31396504 31487946 31582646 31679974 
3137.401 31778890 31877864 31975220 32069064 32157972 32242116 32321778 
3140.776 32398634 32474648 32551638 32630712 32712448 32796446 32882034 
3144.151 32969036 33056590 33144698 33233434 33322434 33411816 33501532 
3147.527 33591664 33682784 33775532 33870304 33967140 34065860 34165432 
3150.902 34264948 34363560 34460508 34555932 34650228 34743900 34837520 
3154.277 34931704 35026584 35122424 35219144 35316676 35414736 35513032 
3157.652 35611528 35709404 35806832 35903776 36000492 36097336 36194920 
3161.028 36293432 36393080 36494084 36596628 36700960 36807048 36914784 
3164.403 37023456 37132328 37240436 37347056 37452000 37555492 37658464 
3167.778 37761500 37865104 37968764 38071800 38172760 38270488 38364296 
3171.153 38454100 38540052 38622796 38702732 38780400 38856160 38930740 
3174.529 39004352 39077652 39150672 39222908 39293668 39362008 39427460 
3177.904 39490016 39550836 39611160 39672584 39736408 39802496 39870336 
3181.279 39939024 40007540 40075700 40144132 40213548 40284616 40357876 
3184.654 40432676 40508148 40583296 40657268 40729572 40800612 40870320 
3188.030 40939344 41008168 41077324 41147220 41218916 41292552 41368172 
3191.405 41445404 41523016 41599768 41675184 41749044 41822116 41895564 
3194.780 41970188 42045672 42121020 42194552 42264560 42330996 42394884 
3198.155 42458268 42523856 42592896 42665668 42740936 42816480 42890204 
3201.531 42961420 43030416 43098432 43167116 43237424 43308844 43380564 
3204.906 43451088 43519392 43585396 43649364 43711724 43772920 43832884 
3208.281 43891384 43948760 44005664 44063596 44124076 44188304 44256136 
3211.656 44326400 44396896 44465788 44531936 44595304 44657104 44718584 
3215.031 44780804 44843880 44907076 44969800 45031836 45093844 45157256 
3218.407 45223440 45293308 45366648 45442168 45517964 45592444 45665168 
3221.782 45735992 45806236 45877160 45949488 46023236 46098132 46173336 
3225.157 46248520 46323644 46398552 46473224 46547460 46620420 46691584 
3228.532 46760732 46828116 46894448 46961184 47028936 47098320 47169712 
3231.908 47242628 47316704 47391936 47467772 47543880 47619744 47694624 
3235.283 47767704 47838872 47908496 47977316 48047264 48119068 48193364 
3238.658 48270304 48349296 48429524 48511212 48594504 48679636 48766968 
3242.033 48855876 48944796 49032368 49116876 49197880 49276184 49353836 
3245.409 49432688 49515196 49601916 49692592 49786444 49881992 49978340 
3248.784 50075524 50173364 50271972 50370412 50467724 50562452 50653256 
3252.159 50740132 50824040 50906812 50990868 51078220 51170132 51266432 
3255.534 51366480 51468528 51571048 51673072 51773888 51873340 51971588 
3258.910 52068588 52164376 52258616 52351156 52441692 52530496 52617932 
3262.285 52704824 52791924 52879676 52968156 53056728 53144048 53228800 
3265.660 53310008 53387220 53460928 53532772 53604516 53677584 53753216 
3269.035 53831560 53911640 53992604 54072944 54151716 54228672 54304024 
3272.411 54378520 54453300 54529176 54607512 54688900 54773504 54860716 
3275.786 54949488 55038128 55125092 55209780 55292264 55373932 55457016 
3279.161 55543348 55633952 55729136 55827280 55926388 56025064 56122068 
3282.536 56217812 56313764 56411624 56512676 56618096 56727576 56840636 
3285.912 56956632 57074628 57194132 57315100 57437088 57559904 57684116 
3289.287 57810260 57939620 58073824 58214284 58361804 58516504 58677128 
3292.662 58841996 59009960 59179996 59352268 59527496 59706712 59890068 
3296.037 60077844 60269732 60465208 60664660 60868856 61078524 61294512 
3299.413 61516564 61743656 61974268 62207068 62441292 62677600 62917052 
3302.788 63161432 63412084 63669712 63934444 64206020 64484484 64769828 
3306.163 65062480 65362448 65669060 65981096 66296956 66615664 66936536 
3309.538 67260752 67590192 67926824 68272400 68627528 68991720 69363880 
3312.914 69742816 70127256 70516912 70911456 71310872 71714840 72123336 
3316.289 72536048 72953160 73375136 73802120 74233888 74669432 75106744 
3319.664 75544040 75979400 76411720 76840984 77267704 77692360 78114848 
3323.039 78535440 78953424 79368784 79782512 80195480 80609360 81024832 
3326.415 81441624 81857648 82270280 82675760 83071032 83453480 83821216 
3329.790 84172920 84507800 84825064 85124528 85406984 85673320 85924752 
3333.165 86161864 86383664 86588064 86772288 86933640 87070472 87183248 
3336.540 87273776 87344680 87397840 87433744 87450880 87446904 87419104 
3339.916 87365704 87285976 87180536 87049616 86893448 86710992 86500432 
3343.291 86260424 85989656 85688048 85356656 84996568 84608808 84194880 
3346.666 83755552 83292096 82806528 82301312 81779048 81242464 80692864 
3350.041 80131320 79558128 78973568 78378368 77773592 77160520 76540528 
3353.417 75914512 75283168 74647552 74008968 73369960 72733720 72103896 
3356.792 71483608 70874936 70278920 69695232 69123440 68562336 68011640 
3360.167 67471088 66941060 66421532 65912528 65414100 64926512 64450508 
3363.542 63986732 63536300 63100352 62679088 62272648 61880684 61502744 
3366.917 61138212 60786528 60446812 60117680 59797772 59485012 59177792 
3370.293 58875232 58577052 58283396 57995012 57711744 57432588 57156144 
3373.668 56880296 56602920 56322932 56039316 55751324 55459124 55161884 
3377.043 54858988 54549876 54234564 53913328 53587312 53257412 52923652 
3380.418 52585620 52240788 51886896 51521836 51144192 50754128 50353560 
3383.794 49944844 49530720 49113388 48694756 48275304 47855664 47436172 
3387.169 47016936 46598696 46182036 45767872 45356976 44949880 44546692 
3390.544 44147808 43752768 43361200 42972796 42587152 42204560 41825400 
3393.919 41450036 41079400 40713592 40352604 39995584 39641944 39291236 
3397.295 38943356 38598968 38258656 37922804 37590824 37261592 36932968 
3400.670 36603148 36270776 35935628 35598508 35261224 34925420 34592960 
3404.045 34264628 33940732 33621020 33305298 32993488 32685366 32380678 
3407.420 32078878 31779282 31481210 31184200 30888530 30594874 30304650 
3410.796 30019164 29739258 29465066 29196010 28930976 28669008 28409536 
3414.171 28152370 27898222 27648246 27403286 27163966 26930348 26701716 
3417.546 26476974 26254530 26032730 25810476 25587040 25363048 25139980 
3420.921 24919800 24704676 24496424 24295456 24100884 23911408 23724460 
3424.297 23537840 23350426 23161940 22973360 22786086 22601858 22421930 
3427.672 22246818 22076242 21909182 21744658 21581310 21417886 21254384 
3431.047 21090630 20927738 20767132 20610580 20459226 20314034 20174444 
3434.422 20039236 19906430 19773596 19638996 19501982 19362548 19221810 
3437.798 19081220 18942166 18805230 18670898 18538440 18407338 18277136 
3441.173 18147598 18018648 17891052 17764664 17639902 17516796 17394450 
3444.548 17272032 17148378 17022620 16894176 16763432 16631415 16499957 
3447.923 16371084 16246205 16125660 16008861 15894122 15779482 15663154 
3451.299 15544901 15425100 15305263 15187278 15072482 14961556 14853984 
3454.674 14748908 14645090 14541297 14437359 14332999 14228323 14123295 
3458.049 14017401 13910166 13800803 13688800 13574124 13457532 13340048 
3461.424 13223040 13108658 12998233 12893161 12794392 12701345 12612989 
3464.800 12527347 12442232 12355702 12267281 12177072 12086813 11998516 
3468.175 11913436 11832119 11753643 11675930 11596426 11513570 11426646 
3471.550 11336204 11243808 11150854 11058599 10967621 10877850 10788881 
3474.925 10701424 10615648 10532706 10453819 10379325 10309254 10243163 
3478.301 10179762 10117693 10055768 9992599 9927573 9859846 9789723 9717849 
3482.158 9645988 9576814 9512833 9456650 9408939 9369291 9335910 9305646 
3486.015 9275552 9243058 9206573 9165928 9121599 9074736 9026120 8977239 
3489.873 8929006 8882164 8837594 8795969 8757391 8721319 8687142 8654421 
3493.730 8622582 8592131 8564048 8539446 8519070 8503729 8493288 8487714 
3497.588 8486564 8490383 8499235 8513697 8532992 8555903 8580100 8602811 
3501.445 8621974 8636778 8648067 8658444 8671829 8691300 8719730 8758237 
3505.302 8806553 8862955 8925590 8992461 9061982 9133206 9205591 9279580 
3509.160 9356189 9436739 9522384 9614110 9711480 9813040 9917200 10021792 
3513.017 10125426 10227931 10329544 10431385 10534573 10638635 10742552 
3516.393 10844558 10942135 11033754 11118558 11196512 11267780 11333177 
3519.768 11392052 11443043 11484752 11514897 11531637 11533950 11521362 
3523.143 11494176 11453555 11401067 11337871 11265298 11183660 11092691 
3526.518 10991612 10879210 10755084 10619518 10473777 10320213 10161581 
3529.894 10000227 9837002 9672550 9505619 9335334 9160548 8980960 8796172 
3533.751 8607441 8415211 8221208 8026988 7834542 7646296 7464266 7289927 
3537.608 7123607 6964489 6810646 6660289 6511801 6364910 6220219 6079240 
3541.466 5943177 5813066 5688534 5568400 5450951 5334539 5218091 5101306 
3545.323 4984016 4866925 4751005 4636924 4525887 4418894 4316814 4220111 
3549.181 4128614 4041049 3955709 3870018 3782104 3690733 3596107 3499464 
3553.038 3402675 3308145 3217775 3132663 3054141 2982440 2917455 2858650 
3556.896 2804888 2754034 2703853 2651878 2596008 2535581 2470896 2403488 
3560.753 2335658 2269971 2208222 2151578 2100334 2053625 2009649 1965812 
3564.610 1918450 1864173 1799588 1723037 1635922 1542109 1447683 1359295 
3568.468 1282123 1217924 1166059 1123204 1085567 1049827 1013559 976197 
3572.325 938109 899858 862008 824228 786352 747351 707357 666505 625457 
3576.665 584679 544435 504460 463693 421138 376400 329775 282294 235978 
3581.004 192882 155426 125231 103191 88940 80854 76016 70216 58916 37675 
3585.826 3114 -45391 -105651 -172627 -239493 -299362 -348033 -383820 -408085 
3590.166 -423974 -435196 -445060 -456115 -469156 -484480 -502253 -522110 
3594.023 -544713 -570425 -599676 -632796 -669255 -707365 -745075 -780731 
3597.881 -812679 -840161 -863541 -883249 -900675 -916447 -930136 -941377 
3601.738 -949345 -953147 -952949 -949378 -943361 -936748 -931061 -927424 
3605.595 -927656 -932847 -944551 -963892 -991629 -1026702 -1066863 -1108111 
3609.453 -1146645 -1179691 -1207183 -1230576 -1252877 -1277457 -1305538 
3612.828 -1336160 -1365656 -1389602 -1404069 -1407636 -1401625 -1390527 
3616.203 -1380255 -1376358 -1383327 -1403507 -1436038 -1478010 -1524436 
3619.579 -1570130 -1610373 -1642525 -1664904 -1678041 -1683058 -1681044 
3622.954 -1673288 -1660085 -1641634 -1618163 -1590731 -1562041 -1537643 
3626.329 -1524139 -1529917 -1562041 -1623379 -1708736 -1804536 -1892727 
3629.704 -1956360 -1988057 -1990168 -1972258 -1945837 -1920371 -1902162 
3633.080 -1892694 -1890021 -1890054 -1889428 -1886030 -1880520 -1875110 
3636.455 -1872074 -1873295 -1878970 -1887580 -1897477 -1907440 -1916875 
3639.830 -1926705 -1938151 -1952006 -1968102 -1984627 -1998809 -2007319 
3643.205 -2008143 -1999700 -1982978 -1960120 -1935381 -1912784 -1897345 
3646.581 -1892793 -1901337 -1923769 -1957745 -1999832 -2045542 -2089434 
3649.956 -2127321 -2154621 -2168336 -2167050 -2151225 -2123298 -2088016 
3653.331 -2051511 -2020544 -2001910 -2000195 -2016421 -2047554 -2085939 
3656.706 -2122771 -2150961 -2167347 -2172754 -2171369 -2168072 -2166358 
3660.082 -2168237 -2173677 -2181095 -2189238 -2197117 -2204271 -2211194 
3663.457 -2217457 -2221842 -2222468 -2216600 -2202425 -2179150 -2148554 
3666.832 -2114494 -2083565 -2063119 -2059822 -2078420 -2117792 -2170347 
3670.207 -2223028 -2261365 -2274681 -2260409 -2224116 -2178326 -2138597 
3673.583 -2119737 -2133553 -2183205 -2260673 -2346629 -2418104 -2459190 
3676.958 -2465879 -2446308 -2413458 -2380012 -2353879 -2337863 -2329393 
3680.333 -2324449 -2318616 -2310014 -2299401 -2289414 -2282361 -2278768 
3683.708 -2276955 -2274418 -2268781 -2260079 -2250883 -2246400 -2252300 
3687.083 -2272770 -2308333 -2354604 -2403737 -2447066 -2477805 -2493685 
3690.459 -2496089 -2488611 -2474412 -2456291 -2435435 -2413326 -2391479 
3693.834 -2372004 -2357142 -2348540 -2346365 -2349068 -2353484 -2355955 
3697.209 -2353945 -2346629 -2335622 -2324746 -2319176 -2322835 -2338456 
3700.584 -2365380 -2400277 -2437346 -2470491 -2494442 -2506434 -2506368 
3703.960 -2495332 -2475598 -2449570 -2418565 -2383867 -2346695 -2308564 
3707.335 -2272011 -2240137 -2215908 -2202623 -2201601 -2212743 -2234401 
3710.710 -2263408 -2295743 -2327152 -2353780 -2372993 -2382813 -2383307 
3714.085 -2374574 -2358987 -2338588 -2316210 -2294721 -2276033 -2261662 
3717.461 -2251938 -2246400 -2244455 -2245938 -2250883 -2260277 -2274648 
3720.836 -2294062 -2316803 -2340203 -2360338 -2373783 -2378364 -2374377 
3724.211 -2364194 -2352198 -2342477 -2338555 -2341159 -2348277 -2355164 
3727.586 -2357142 -2349760 -2331535 -2304246 -2272176 -2241423 -2217787 
3730.962 -2205194 -2204271 -2212842 -2224940 -2236049 -2244521 -2251971 
3734.337 -2263310 -2283449 -2314595 -2353747 -2393753 -2425056 -2440970 
3737.712 -2439323 -2421959 -2393292 -2357636 -2317496 -2273824 -2226786 
3741.087 -2178128 -2132629 -2099195 -2089797 -2115121 -2179908 -2275373 
3744.463 -2379221 -2462057 -2503041 -2497539 -2456621 -2398498 -2340862 
3747.838 -2298446 -2277977 -2280186 -2298841 -2325273 -2351408 -2373289 
3751.213 -2390655 -2404759 -2415270 -2419422 -2413425 -2394577 -2363304 
3754.588 -2323823 -2282295 -2244818 -2216501 -2199689 -2194381 -2198832 
3757.964 -2210732 -2228039 -2248641 -2270264 -2288689 -2298940 -2296105 
3761.339 -2277483 -2244620 -2202590 -2159171 -2122738 -2098997 -2089962 
3764.714 -2093424 -2103415 -2113604 -2119375 -2120430 -2119836 -2122738 
3768.089 -2133157 -2152709 -2179348 -2208392 -2233181 -2248938 -2253256 
3771.465 -2246565 -2231896 -2212512 -2191645 -2171468 -2152939 -2136223 
3774.840 -2121287 -2107537 -2095271 -2085477 -2080168 -2081883 -2092798 
3778.215 -2113670 -2142916 -2176315 -2207172 -2229160 -2238390 -2234401 
3781.590 -2220391 -2201535 -2183568 -2170215 -2162600 -2159303 -2156830 
3784.966 -2152511 -2144697 -2134377 -2124683 -2119078 -2120430 -2129530 
3788.341 -2145093 -2164940 -2185678 -2204502 -2219105 -2227709 -2229325 
3791.716 -2223556 -2210831 -2192733 -2172457 -2154159 -2141894 -2138597 
3795.091 -2145191 -2158907 -2174370 -2184458 -2183106 -2167611 -2139982 
3798.467 -2105460 -2073111 -2053061 -2053655 -2079772 -2129233 -2192139 
3801.842 -2252861 -2295908 -2312288 -2301412 -2270759 -2231336 -2196392 
3805.217 -2176677 -2177534 -2198502 -2231467 -2264331 -2284932 -2286646 
3808.592 -2269836 -2240994 -2207271 -2175392 -2147994 -2124320 -2101404 
3811.968 -2075650 -2045806 -2013948 -1985715 -1967673 -1966354 -1984132 
3815.343 -2017510 -2056161 -2087390 -2100217 -2090621 -2062658 -2025656 
3818.718 -1993038 -1977206 -1987694 -2027767 -2092138 -2166325 -2231269 
3822.093 -2271913 -2280548 -2260475 -2221446 -2176249 -2136223 -2108988 
3825.469 -2097018 -2097843 -2105460 -2112055 -2112219 -2104174 -2089599 
3828.844 -2072715 -2057975 -2048543 -2045443 -2047455 -2051412 -2054347 
3832.219 -2053754 -2047752 -2036176 -2019950 -2000392 -1980405 -1963320 
3835.594 -1953292 -1954183 -1967772 -1993235 -2026018 -2058964 -2084554 
3838.969 -2098370 -2099492 -2090852 -2077761 -2065955 -2058997 -2058535 
3842.345 -2063647 -2072089 -2081190 -2088841 -2093259 -2094182 -2091083 
3845.720 -2083367 -2070902 -2053391 -2030405 -2002273 -1969059 -1931356 
3849.095 -1890120 -1847693 -1807175 -1775134 -1759691 -1770350 -1816084 
3852.470 -1899589 -2013255 -2137674 -2247916 -2322999 -2354670 -2346794 
3855.846 -2310739 -2258893 -2200744 -2142455 -2087324 -2036902 -1991916 
3859.221 -1953457 -1922746 -1900941 -1888306 -1884083 -1886591 -1894145 
3862.596 -1905724 -1921724 -1942572 -1968267 -1995808 -2020445 -2035748 
3865.971 -2036836 -2022886 -1997886 -1969949 -1949037 -1943825 -1958702 
3869.347 -1991191 -2031064 -2064867 -2081883 -2077959 -2057447 -2029218 
3872.722 -2003921 -1989343 -1988552 -1999007 -2013750 -2024633 -2024996 
3876.097 -2012793 -1990729 -1964078 -1939801 -1924396 -1921955 -1934094 
3879.472 -1957844 -1987332 -2015201 -2033868 -2038221 -2027470 -2004878 
3882.848 -1977173 -1952071 -1937525 -1938217 -1955172 -1983209 -2012200 
3886.223 -2031493 -2032318 -2012365 -1975425 -1930169 -1886360 -1853104 
3889.598 -1837069 -1840533 -1860461 -1890021 -1920008 -1942671 -1952698 
3892.973 -1948938 -1933467 -1909815 -1881510 -1851718 -1822947 -1797111 
3896.349 -1776587 -1763189 -1758602 -1763651 -1777609 -1798002 -1821034 
3899.724 -1841919 -1857129 -1865146 -1866763 -1865047 -1864288 -1867687 
3903.099 -1877056 -1891506 -1907737 -1921295 -1927728 -1924858 -1912289 
3906.474 -1892133 -1867785 -1842579 -1820110 -1802061 -1789159 -1781371 
3909.850 -1777379 -1775497 -1774079 -1771340 -1766060 -1757777 -1746425 
3913.225 -1733125 -1719825 -1708670 -1702300 -1702300 -1708769 -1720584 
3916.600 -1735435 -1750088 -1762001 -1770350 -1774937 -1776752 -1776916 
3919.975 -1775366 -1771637 -1764641 -1753817 -1739560 -1724214 -1711046 
3923.351 -1703455 -1704049 -1712894 -1727548 -1743421 -1755929 -1761275 
3926.726 -1758602 -1749428 -1737316 -1726326 -1720221 -1720815 -1727812 
3930.101 -1739560 -1753586 -1767050 -1777840 -1784176 -1785562 -1781899 
3933.476 -1773452 -1761176 -1746425 -1730848 -1716624 -1704610 -1695831 
3936.852 -1689692 -1685269 -1680880 -1675730 -1668799 -1660976 -1653451 
3940.227 -1647707 -1645132 -1646420 -1651338 -1658963 -1668040 -1677117 
3943.602 -1685302 -1691804 -1696293 -1698504 -1698636 -1696821 -1693719 
3946.977 -1690385 -1687679 -1687118 -1689461 -1694973 -1703059 -1712597 
3950.353 -1721607 -1728373 -1731046 -1728703 -1721211 -1709462 -1695072 
3953.728 -1680120 -1666456 -1655596 -1648235 -1643911 -1641337 -1639158 
3957.103 -1636022 -1631269 -1625558 -1619418 -1614301 -1611264 -1610637 
3960.478 -1612023 -1614697 -1617074 -1618428 -1618065 -1615325 -1610703 
3963.854 -1604431 -1596706 -1587693 -1577459 -1566168 -1554349 -1542760 
3967.229 -1532129 -1523412 -1517469 -1514695 -1514959 -1517997 -1522323 
3970.604 -1527473 -1531964 -1535067 -1536058 -1534869 -1531799 -1527473 
3973.979 -1522256 -1516808 -1511426 -1506374 -1501025 -1495181 -1488676 
3977.354 -1481213 -1472958 -1464108 -1455291 -1447002 -1440199 -1435344 
3980.730 -1432735 -1432900 -1435113 -1439208 -1443897 -1448587 -1452715 
3984.105 -1455984 -1458395 -1460508 -1462589 -1464834 -1467080 -1469292 
3987.480 -1470778 -1470976 -1470019 -1467014 -1462589 -1456711 -1449611 
3990.855 -1442180 -1435113 -1429565 -1426824 -1427583 -1432867 -1442312 
3994.231 -1455357 -1470382 -1485737 -1499672 -1510865 -1518558 -1522620 
3997.606 -1523511 -1522256 -1519846 -1517370 -1515719 -1515257 -1515620 
##END=
