##TITLE=1541_3_b
##JCAMP-DX=5.01  $$ Nicolet v. 1
##DATATYPE=INFRARED SPECTRUM
##ORIGIN=UniL
##OWNER=Nicolet
##LONGDATE=2011/09/29
##TIME=14:35:53
##SPECTROMETER/DATA SYSTEM=Nicolet iS5
##DATA PROCESSING=
Ratio against background
%Transmittance->Absorbance
Truncated
ElementMultiply or ElementDivide
##COMMENTS=
Number of sample scans: 32
Collection length: 51.24 sec
Sample gain: 2.0
Background collected on: Jeu Sep 29 14:32:34 2011 (GMT+02:00);
Number of background scans: 32
Background gain: 2.0
Sample spacing:  1.000
Number of scan points: 12415
Resolution points: 8192
Number of FFT points: 65536
Apodization: N-B fort;
Phase correction: Mertz;
Laser frequency: 15798.0 cm-1
Number of rejected sample scans: 0
Number of rejected background scans: 0
Bench serial number: ASB1000141;
##RESOLUTION=4.000
##XUNITS=1/CM
##YUNITS=ABSORBANCE
##FIRSTX=649.893372
##LASTX=4000.122314
##FIRSTY=0.089256
##MAXX=4000.122314
##MINX=649.893372
##MAXY=0.251384
##MINY=-0.001539
##XFACTOR=1.000000
##YFACTOR=1.000000E-009
##NPOINTS=6950
##DELTAX=0.482117
##ZPD=6100
##XYDATA=(X++(Y..Y))
649.893 89256216 88535272 87879112 87305784 86811696 86381600 86001520 
653.268 85668392 85393712 85198096 85099496 85105664 85209112 85391496 
656.643 85631264 85911024 86221016 86555464 86905592 87257944 87592824 
660.018 87893600 88153264 88379416 88591176 88810400 89054584 89329960 
663.393 89630808 89945792 90263944 90578624 90882504 91162968 91393096 
666.767 91530440 91532856 91387088 91136640 90864688 90653088 90543728 
670.142 90529032 90572744 90627776 90655248 90630544 90550624 90428192 
673.517 90282472 90124760 89952560 89749136 89495400 89178416 88799424 
676.892 88371208 87911048 87431432 86935992 86420256 85880736 85320640 
680.267 84752392 84193832 83658520 83149744 82657880 82166288 81659112 
683.642 81130344 80586544 80043392 79516544 79014104 78532976 78062056 
687.016 77590176 77112240 76634952 76172512 75742688 75358048 75022744 
690.391 74733736 74485232 74272768 74096632 73960216 73867824 73820416 
693.766 73815352 73848344 73917240 74025240 74181368 74397216 74680328 
697.141 75031480 75442552 75900264 76391840 76910784 77459704 78047856 
700.516 78684824 79373992 80108616 80872888 81646712 82411256 83155328 
703.890 83874824 84569920 85239792 85878392 86474832 87018288 87501176 
707.265 87924640 88297664 88633720 88946112 89243312 89531392 89816440 
710.640 90109304 90428936 90798976 91241288 91769088 92378024 93043552 
714.015 93721416 94359280 94902144 95302880 95532584 95582712 95467608 
717.390 95222840 94905768 94590128 94352200 94269736 94404160 94789568 
720.765 95426904 96278400 97271488 98297936 99233904 99957160 100357504 
724.139 100369152 99980192 99243896 98264240 97180264 96137104 95243880 
727.514 94564712 94110080 93849424 93729880 93698848 93722320 93784120 
730.889 93882040 94017256 94184896 94371712 94561992 94742624 94911336 
734.264 95075576 95248208 95438536 95647328 95865680 96081048 96283696 
737.639 96472320 96654008 96840608 97041536 97258184 97484360 97710144 
741.013 97928752 98139992 98350376 98567760 98795984 99031080 99262552 
744.388 99479192 99675632 99856536 100035120 100225016 100434576 100660408 
747.763 100889776 101106272 101297552 101461632 101606512 101745448 
750.656 101888712 102038848 102190960 102336840 102471024 102595008 
753.548 102716464 102844424 102983424 103129192 103271560 103399008 
756.441 103506440 103598032 103685112 103779816 103889440 104011648 
759.334 104137248 104255768 104363408 104464928 104573080 104699816 
762.227 104851560 105024416 105208352 105393384 105578240 105774080 
765.119 106003600 106294040 106667528 107137320 107704600 108359952 
768.012 109084016 109850000 110624424 111369024 112053992 112673080 
770.905 113262688 113905864 114723592 115844176 117342368 119194040 
773.797 121233848 123182792 124671408 125333696 124928088 123381712 
776.690 120828160 117543800 113891304 110207160 106723144 103559552 
779.583 100717648 98124416 95673632 93273536 90868896 88442208 86008760 
782.958 83601720 81262600 79030048 76939784 75022544 73300640 71788240 
786.332 70489240 69398632 68505768 67799880 67275376 66933872 66784188 
789.707 66837668 67106812 67601928 68331768 69307368 70543496 72058200 
793.082 73869040 75984008 78391664 81048832 83879808 86772048 89573424 
796.457 92117216 94220216 95702264 96423832 96296224 95311832 93549096 
799.832 91172936 88410000 85496416 82668584 80108848 77919744 76123640 
803.206 74659440 73409856 72221808 70955888 69517096 67872704 66061332 
806.581 64175748 62339540 60660244 59207488 57993540 56975108 56067628 
809.956 55171140 54204084 53113380 51886408 50543356 49125112 47678240 
813.331 46241076 44844504 43509068 42248708 41075648 39999688 39027660 
816.706 38162992 37403136 36741560 36169244 35677820 35261436 34916836 
820.081 34642480 34437444 34300408 34230640 34228380 34297580 34445012 
823.455 34680372 35013868 35452804 35999624 36649764 37390352 38197688 
826.830 39036940 39862928 40617136 41237900 41667560 41861300 41801720 
830.205 41504172 41019020 40419952 39796976 39243432 38834856 38626200 
833.580 38640760 38866524 39254424 39721960 40168988 40479812 40548592 
836.955 40302396 39708524 38787788 37605388 36262956 34869836 33523366 
840.329 32300468 31243372 30365054 29656238 29096688 28662320 28330304 
843.704 28082448 27902958 27778036 27696450 27649906 27633770 27646692 
847.079 27689528 27762320 27862750 27985854 28125362 28276370 28436702 
850.454 28607922 28793866 28998664 29224432 29471202 29737948 30024562 
853.829 30333962 30672136 31047016 31465712 31933278 32451544 33021376 
857.204 33644472 34326160 35076872 35911620 36847120 37902232 39095452 
860.578 40443840 41963364 43665740 45552404 47607248 49789156 52029256 
863.953 54224880 56257712 58004180 59348468 60211452 60556544 60400548 
867.328 59809788 58896824 57808064 56692276 55699680 54960052 54565240 
870.703 54577716 55022556 55890808 57141220 58702200 60477584 62336636 
874.078 64129540 65698816 66881964 67548264 67613192 67049816 65895328 
877.452 64240588 62218612 59970328 57637348 55344912 53183184 51216024 
880.827 49477544 47977836 46711140 45661892 44811180 44138600 43624524 
884.202 43251592 43001512 42856632 42800024 42815784 42893204 43028768 
887.577 43228860 43507820 43885848 44384340 45018972 45796628 46714424 
890.952 47761712 48924104 50188020 51544892 52991288 54528384 56158604 
894.327 57882788 59696484 61586776 63525288 65463372 67330424 69023488 
897.701 70420576 71394592 71822608 71620464 70755232 69255592 67205936 
901.076 64736672 62009312 59181476 56403024 53800240 51459352 49436848 
904.451 47757640 46421192 45410052 44696180 44250596 44044200 44054944 
907.826 44268864 44679032 45283856 46085272 47085248 48284972 49682412 
911.201 51270308 53033704 54945728 56961960 59024380 61060368 62990440 
914.575 64747056 66280396 67571728 68636688 69524608 70310544 71077232 
917.950 71911432 72883592 74033920 75367072 76843360 78383648 79869088 
921.325 81167016 82155440 82741344 82895184 82660488 82161768 81577976 
924.700 81128784 81046240 81521088 82693112 84621976 87276216 90528544 
928.075 94159424 97893712 101389104 104284416 106253792 107005600 106345088 
931.450 104197936 100617008 95784376 89982800 83582688 76965296 70486240 
934.824 64455768 59084924 54500400 50753612 47834356 45697892 44283504 
938.199 43532432 43385656 43778748 44636100 45848364 47270112 48734864 
941.574 50050688 51039308 51566608 51552620 50993252 49951868 48551152 
944.949 46939552 45265068 43661492 42220772 40995272 40001944 39230344 
948.324 38654924 38243456 37966848 37798696 37716396 37701576 37736600 
951.698 37805308 37894964 37995488 38101640 38212808 38331576 38462280 
955.073 38609072 38775148 38962308 39171520 39403152 39657300 39933864 
958.448 40231724 40549104 40883244 41231776 41593136 41967600 42356712 
961.823 42762216 43185636 43626576 44083072 44552204 45031800 45520944 
965.198 46020804 46533740 47062060 47607396 48170080 48749620 49346040 
968.573 49960868 50596928 51257968 51947352 52667236 53418620 54201980 
971.947 55019060 55873628 56771188 57718552 58721320 59782828 60903392 
975.322 62081400 63315592 64605848 65954640 67366216 68845480 70396928 
978.697 72024376 73732688 75529208 77425328 79436536 81580216 83872368 
982.072 86325816 88946320 91732328 94672616 97745008 100910136 104103640 
985.447 107238600 110194232 112825744 114987888 116538584 117370104 
988.339 117427200 116711168 115284360 113257272 110787624 108053256 
991.232 105232928 102504376 100012312 97864288 96132888 94848880 94013176 
994.607 93604824 93593688 93945872 94629232 95617600 96886528 98412424 
997.982 100173064 102144008 104300208 106616192 109059576 111588360 
1000.874 114148712 116665480 119049536 121207616 123044736 124486368 
1003.767 125486584 126034024 126154872 125911088 125399320 124732200 
1006.660 124037368 123445200 123065888 122991384 123286160 123982616 
1009.552 125091136 126604064 128506464 130779120 133403704 136363648 
1012.445 139639504 143210448 147055616 151151984 155478832 160013360 
1015.338 164719376 169539296 174379920 179099184 183524000 187457296 
1018.231 190703232 193115152 194612192 195206960 195004192 194203584 
1021.123 193078608 191922080 191046160 190727488 191167328 192497152 
1024.016 194756064 197904624 201834080 206394448 211419152 216723200 
1026.909 222130288 227469600 232564544 237254624 241394864 244867584 
1029.802 247603136 249579616 250821712 251383776 251341104 250776864 
1032.695 249768160 248391680 246714272 244782992 242621232 240217792 
1035.588 237529856 234487968 231017392 227060176 222585632 217602848 
1038.481 212155440 206316480 200173808 193825120 187378992 180940448 
1041.374 174612992 168491520 162643536 157111360 151907712 147020832 
1044.267 142427024 138103472 134039520 130243200 126740008 123566112 
1047.160 120765536 118379256 116439016 114967640 113974008 113453552 
1050.053 113387432 113744464 114483520 115553584 116904024 118485144 
1052.947 120249392 122155664 124159856 126208216 128237472 130164760 
1055.840 131892752 133324560 134363568 134930400 134974128 134473024 
1058.733 133442176 131932480 130035608 127875744 125596000 123359928 
1061.626 121321424 119613872 118349144 117600184 117406624 117776400 
1064.519 118688944 120096760 121924608 124079608 126444656 128885432 
1067.412 131272656 133477536 135391360 136937104 138060944 138735328 
1070.305 138951952 138716112 138044048 136960416 135499984 133704144 
1073.198 131618696 129297208 126796928 124183712 121538136 118948432 
1076.091 116512592 114333672 112500672 111088856 110150456 109708184 
1078.984 109757072 110262216 111163488 112368512 113756392 115191176 
1081.877 116516744 117584632 118280352 118533112 118341264 117770064 
1084.770 116951392 116054312 115263704 114769208 114727520 115258312 
1087.663 116435640 118275216 120734128 123704680 127032680 130511120 
1090.556 133902448 136981856 139537936 141408992 142502048 142785568 
1093.449 142291968 141098832 139324288 137102784 134567008 131846072 
1096.343 129043776 126235768 123474032 120784968 118177952 115650096 
1099.236 113190016 110778896 108390744 105996360 103565392 101073984 
1102.129 98513472 95895592 93256744 90650056 88145512 85817592 83733088 
1105.504 81952880 80523328 79474808 78826272 78583560 78742096 79286216 
1108.879 80191536 81424672 82941424 84692400 86619536 88653752 90721064 
1112.254 92735376 94600096 96222736 97512808 98396208 98827480 98788416 
1115.630 98291576 97372312 96086504 94500616 92683320 90706080 88633024 
1119.005 86516120 84397440 82303840 80250808 78247456 76299720 74415184 
1122.380 72604928 70881608 69258464 67747240 66355704 65089880 63956172 
1125.755 62963360 62126168 61464648 61000688 60757184 60751276 60991044 
1129.131 61472932 62181336 63088672 64154432 65327592 66549844 67752320 
1132.506 68867880 69836392 70611792 71174696 71534784 71732312 71827456 
1135.881 71894816 72010992 72236368 72613040 73154304 73844064 74636616 
1139.256 75462264 76240960 76882752 77305400 77444576 77253344 76709080 
1142.632 75809040 74567488 73010232 71172432 69099200 66841304 64454584 
1146.007 61999836 59533080 57106560 54765836 52543700 50465496 48547560 
1149.382 46798520 45222228 43817856 42582108 41509016 40591084 39820580 
1152.757 39189512 38691068 38319992 38072448 37945368 37935964 38041236 
1156.133 38257932 38583468 39016460 39557660 40209008 40973428 41853164 
1159.508 42848624 43957484 45175272 46494132 47902504 49385352 50919700 
1162.883 52474372 54012000 55485440 56844300 58040420 59026352 59763172 
1166.258 60221504 60381392 60235512 59789024 59060592 58078256 56878784 
1169.634 55504152 53994368 52388836 50724452 49032404 47342640 45682280 
1173.009 44074088 42539096 41094004 39750896 38518688 37403064 36406592 
1176.384 35531188 34777428 34145608 33635128 33244878 32972790 32816670 
1179.759 32774900 32846976 33034068 33338644 33763212 34310128 34980468 
1183.135 35774268 36691008 37730056 38890080 40167356 41554736 43037184 
1186.510 44591416 46187340 47785900 49343664 50817560 52161908 53335296 
1189.885 54303084 55037452 55524444 55765340 55778792 55597156 55265208 
1193.260 54835904 54359672 53883920 53448184 53078332 52789416 52584124 
1196.635 52455040 52386144 52354968 52336576 52301816 52220832 52064216 
1200.011 51801064 51402136 50843112 50105604 49183480 48084756 46834020 
1203.386 45468032 44032648 42578788 41151772 39790512 38524336 37370456 
1206.761 36336908 35424404 34628408 33941272 33353596 32856374 32440514 
1210.136 32098248 31824450 31616286 31473518 31397964 31392514 31459518 
1213.512 31600606 31816072 32105100 32466042 32895904 33390522 33943168 
1216.887 34543844 35180948 35841408 36512752 37185492 37852772 38510396 
1220.262 39156292 39789204 40408788 41016648 41617820 42221904 42842516 
1223.637 43497968 44207304 44988172 45855432 46818228 47879492 49034852 
1227.013 50272452 51571272 52899736 54219436 55484308 56643952 57653012 
1230.388 58470096 59064240 59418444 59530648 59417000 59110932 58667004 
1233.763 58156360 57657780 57259716 57046100 57089100 57452292 58182200 
1237.138 59310712 60858680 62835024 65238216 68052376 71248048 74776432 
1240.514 78566016 82531888 86569576 90559400 94381472 97906672 101008672 
1243.889 103580416 105533240 106813776 107408624 107343840 106679424 
1246.782 105496784 103898536 101992624 99884848 97679528 95460216 93283680 
1250.157 91173064 89113928 87058208 84934472 82672192 80213936 77533768 
1253.532 74645232 71601048 68485592 65393568 62425988 59669948 57185512 
1256.908 55007100 53137308 51552768 50206692 49038340 47982756 46971820 
1260.283 45948016 44868128 43704068 42446580 41101764 39688412 38232096 
1263.658 36762832 35311648 33905516 32568388 31318720 30168382 29123864 
1267.033 28185816 27350174 26609656 25955232 25378750 24872956 24432310 
1270.409 24052448 23728872 23456522 23230096 23044178 22894768 22779626 
1273.784 22698378 22651076 22637742 22656172 22703162 22773132 22859248 
1277.159 22954426 23050188 23137268 23206364 23247748 23253832 23220450 
1280.534 23147612 23039042 22900180 22736086 22549364 22339772 22105142 
1283.910 21844542 21560314 21260230 20957156 20667078 20407720 20194298 
1287.285 20039722 19954128 19945178 20019772 20184128 20443144 20799632 
1290.660 21252646 21797506 22424232 23117836 23858652 24619560 25367684 
1294.035 26066854 26677264 27165164 27507268 27694966 27736712 27656368 
1297.411 27489936 27275828 27052518 26853994 26704994 26623606 26620014 
1300.786 26696748 26848282 27060558 27313264 27579394 27830530 28041482 
1304.161 28191014 28266010 28260918 28176942 28020984 27804284 27542570 
1307.536 27253356 26955978 26669864 26410912 26190508 26015348 25887068 
1310.912 25804710 25766596 25771940 25821026 25914256 26051270 26230102 
1314.287 26447852 26701576 26990176 27314428 27676674 28079938 28525752 
1317.662 29014178 29543582 30112162 30718792 31363346 32045346 32761608 
1321.037 33503714 34257240 35001012 35707496 36348764 36896896 37329868 
1324.413 37637040 37822368 37907764 37930216 37942332 38001636 38158688 
1327.788 38451928 38896164 39480760 40171168 40918448 41671576 42383484 
1331.163 43023720 43579756 44056520 44471808 44852992 45231716 45637784 
1334.538 46098020 46632632 47252344 47957852 48739052 49578220 50450236 
1337.914 51326948 52181152 52985152 53714068 54347804 54871092 55276384 
1341.289 55563452 55737840 55808100 55782144 55664308 55454488 55148116 
1344.664 54738244 54218984 53587420 52844948 51997360 51054628 50030016 
1348.039 48938008 47796220 46624960 45446844 44289632 43185052 42165960 
1351.415 41267956 40524040 39961724 39603976 39465304 39552000 39860420 
1354.790 40374824 41065672 41885748 42777500 43673728 44503672 45206340 
1358.165 45731020 46043200 46128380 45991480 45657808 45168436 44584440 
1361.540 43980032 43432196 43018888 42800540 42809460 43047644 43487492 
1364.916 44081532 44767728 45481608 46159704 46738628 47166496 47403096 
1368.291 47425528 47231732 46837788 46274136 45575404 44779228 43922400 
1371.666 43037840 42161876 41333948 40594792 39986976 39545432 39289244 
1375.041 39218520 39315432 39552908 39901720 40340752 40859692 41458528 
1378.417 42145552 42935048 43846260 44900352 46118948 47517192 49092800 
1381.792 50812644 52600544 54345776 55900572 57104484 57816656 57919248 
1385.167 57345840 56094620 54246916 51968304 49478768 47028344 44821176 
1388.542 42981280 41549668 40497232 39756996 39247712 38896676 38641412 
1391.917 38429232 38219288 37975128 37667536 37279028 36807048 36265300 
1395.293 35677636 35070156 34460972 33857300 33258866 32664400 32078378 
1398.668 31515840 30999470 30553032 30194276 29929132 29752814 29654322 
1402.043 29622146 29648114 29729218 29867052 30065430 30327780 30653932 
1405.418 31040076 31478896 31961988 32481790 33033174 33613612 34222320 
1408.794 34858456 35520188 36203636 36903820 37615720 38334908 39057604 
1412.169 39779980 40495376 41194832 41867212 42501608 43092284 43640020 
1415.544 44153600 44647152 45137556 45641644 46173668 46745344 47365068 
1418.919 48034492 48748540 49492952 50246344 50983340 51680276 52320056 
1422.295 52893188 53402884 53864940 54306088 54756212 55240260 55772500 
1425.670 56354696 56980396 57640908 58330312 59044840 59779976 60527328 
1429.045 61272340 61996208 62681688 63319044 63910408 64468420 65013716 
1432.420 65568476 66151036 66776380 67457312 68209392 69054880 70023808 
1435.796 71148464 72455320 73948032 75605632 77389696 79253008 81145440 
1439.171 83007400 84771008 86345344 87621928 88498504 88881544 88708656 
1442.546 87956528 86636840 84792352 82486736 79806488 76846960 73701168 
1445.921 70465392 67228216 64076968 61107736 58412440 56068232 54120492 
1449.297 52572720 51394524 50539972 49969676 49660200 49604776 49802124 
1452.672 50241988 50894256 51713752 52638540 53601556 54541612 55400208 
1456.047 56136548 56736980 57227360 57658840 58084464 58544176 59053460 
1459.422 59613464 60220360 60870532 61560316 62281596 63019788 63746756 
1462.798 64419336 64989388 65410016 65654992 65731316 65680624 65562232 
1466.173 65427044 65306180 65204136 65106816 64989200 64823292 64578900 
1469.548 64217424 63689740 62936896 61899336 60544504 58894736 57043800 
1472.923 55129984 53291576 51621012 50148484 48863588 47744920 46782688 
1476.299 45987796 45384596 44993136 44819340 44849464 45057344 45414540 
1479.674 45902384 46516628 47265792 48164932 49227380 50460656 51866136 
1483.049 53444216 55200296 57148168 59306500 61689344 64294412 67086584 
1486.424 69983704 72863448 75554600 77851760 79548704 80446232 80398504 
1489.800 79354464 77379672 74653576 71416504 67921320 64364536 60862372 
1493.175 57472488 54203028 51046316 48010660 45128660 42463164 40094160 
1496.550 38090320 36486660 35275812 34422988 33879652 33600900 33553324 
1499.925 33711212 34052280 34555464 35195680 35945056 36775060 37649504 
1503.301 38524048 39343144 40022944 40452752 40499964 40033152 38984308 
1506.676 37401436 35449320 33329986 31199972 29134954 27147212 25225726 
1510.051 23364028 21569020 19866124 18289092 16863932 15606411 14515739 
1513.426 13579047 12778218 12094105 11509113 11005614 10567503 10182509 
1516.802 9843475 9551715 9313330 9133171 9009239 8929344 8871512 8812334 
1520.659 8735619 8642997 8555092 8501702 8503898 8563473 8665069 8785623 
1524.516 8906075 9017223 9123866 9240418 9384425 9566111 9784605 10029760 
1528.374 10290083 10558303 10834264 11123521 11433110 11765933 12120169 
1531.749 12488504 12862545 13237660 13615834 14005664 14414717 14845516 
1535.124 15291603 15741207 16178895 16590621 16966044 17296306 17574928 
1538.500 17796042 17953790 18041962 18058782 18011050 17914288 17788412 
1541.875 17650254 17505928 17350478 17170370 16952262 16689638 16389595 
1545.250 16070610 15756050 15463244 15195994 14944717 14692283 14423829 
1548.625 14133700 13830493 13534266 13268438 13048013 12873671 12733518 
1552.000 12610738 12491642 12371248 12254534 12153049 12078126 12033737 
1555.376 12014763 12007304 11993814 11952432 11859939 11695195 11448078 
1558.751 11133583 10794893 10487389 10250932 10095445 10009653 9971782 
1562.126 9959203 9951779 9936489 9908352 9871608 9837273 9818360 9824088 
1565.984 9854998 9903945 9958932 10009179 10048682 10077776 10102974 
1569.359 10133633 10177760 10238583 10315598 10406304 10508468 10620265 
1572.734 10739155 10860219 10974688 11071752 11141403 11179683 11193656 
1576.109 11200864 11223882 11277813 11365420 11479070 11607453 11741456 
1579.485 11876862 12015308 12162147 12322772 12500610 12695101 12902343 
1582.860 13116820 13331745 13539701 13731683 13896002 14019010 14088416 
1586.235 14095158 14038174 13925563 13775903 13614158 13468981 13369672 
1589.610 13340526 13400733 13563015 13831314 14199392 14646187 15137183 
1592.986 15621420 16038634 16332034 16452190 16370809 16085153 15618638 
1596.361 15015403 14327862 13612107 12915143 12271644 11706496 11233471 
1599.736 10857976 10578436 10387911 10276715 10234342 10254155 10332496 
1603.111 10469161 10663967 10913967 11210758 11541198 11887044 12227269 
1606.487 12540613 12804733 12997994 13102273 13102136 12989220 12763374 
1609.862 12434117 12020588 11549569 11054282 10565297 10107010 9694166 
1613.237 9329579 9008157 8719291 8452441 8199057 7956114 7726833 7520630 
1617.094 7349268 7222576 7144356 7112728 7120037 7155438 7206204 7260715 
1620.952 7309066 7346100 7373094 7397057 7427762 7473367 7537521 7617970 
1624.809 7709632 7807452 7909109 8014703 8125387 8241604 8361534 8481734 
1628.667 8599127 8712935 8825184 8940133 9061677 9190802 9325178 9458309 
1632.524 9581929 9687423 9767153 9815920 9832392 9819851 9786809 9745331 
1636.382 9708735 9685830 9680477 9690573 9710564 9732352 9748210 9752751 
1640.239 9744788 9727879 9708701 9694606 9689896 9693115 9697587 9693115 
1644.096 9668518 9614889 9528921 9414188 9282897 9151242 9037319 8956335 
1647.954 8916458 8919773 8962525 9036845 9130566 9225627 9299552 9323147 
1651.811 9267530 9119806 8902016 8673485 8497377 8406495 8392611 8426527 
1655.669 8477070 8522618 8552558 8564351 8560938 8547286 8526538 8499066 
1659.526 8461731 8409806 8338970 8247243 8135752 8008999 7874658 7742281 
1663.384 7621309 7519417 7440772 7384957 7346943 7317693 7286221 7239826 
1667.241 7167463 7062546 6925064 6762552 6588629 6418979 6267010 6140163 
1671.098 6039995 5963298 5903340 5850476 5793556 5720293 5620290 5489672 
1674.956 5335847 5176544 5033121 4921915 4846587 4799681 4767152 4735194 
1678.813 4695736 4648478 4600690 4562249 4539982 4532248 4527795 4506736 
1682.671 4447849 4336659 4176451 3992825 3824588 3703532 3638238 3618024 
1686.528 3623069 3635966 3644286 3641780 3627012 3601218 3567108 3528090 
1690.385 3489343 3457012 3437440 3434769 3448361 3472142 3493318 3496758 
1694.243 3468334 3402441 3307978 3208562 3133197 3099157 3105531 3134065 
1698.100 3158829 3151419 3090581 2971063 2811825 2651644 2528548 2462232 
1701.958 2447204 2464431 2491190 2509319 2506953 2478793 2427145 2360643 
1705.815 2291588 2231202 2186543 2159403 2147349 2145418 2147849 2151178 
1709.673 2153476 2155374 2158804 2165797 2177219 2192637 2209788 2226706 
1713.530 2241893 2255082 2267006 2277598 2284460 2282894 2267039 2233334 
1717.387 2184045 2128869 2082089 2055455 2054423 2076496 2113719 2156406 
1721.245 2195301 2225740 2246156 2259012 2268305 2278298 2291388 2308176 
1725.102 2327930 2349550 2372071 2394359 2414683 2430477 2438707 2437474 
1728.960 2427578 2412917 2398957 2390361 2387163 2383598 2367140 2321401 
1732.817 2232634 2097571 1931397 1764588 1631831 1553747 1530471 1547163 
1736.675 1583110 1620258 1644437 1648627 1632430 1601634 1565452 1533197 
1740.532 1511119 1501610 1503172 1512881 1527877 1545600 1564421 1583642 
1744.389 1603296 1624082 1646765 1671810 1698920 1727062 1753842 1776664 
1748.247 1793200 1801684 1801285 1792268 1776465 1757002 1738439 1726197 
1752.104 1724933 1736776 1760928 1792867 1825075 1848833 1856120 1842244 
1755.962 1807972 1759763 1708500 1664726 1634259 1616932 1606988 1596645 
1759.819 1578155 1547329 1504635 1454731 1404933 1362153 1331476 1314227 
1763.677 1309507 1314127 1324596 1336860 1346665 1350354 1346100 1334999 
1767.534 1321173 1311335 1311169 1322469 1341513 1359694 1366674 1353212 
1771.391 1316885 1263647 1208122 1166392 1149216 1158684 1188353 1228457 
1775.249 1269130 1305021 1334400 1358397 1379105 1397121 1411382 1419493 
1779.106 1420291 1414473 1405598 1398551 1397454 1403071 1412911 1422152 
1782.964 1425842 1421820 1410883 1397055 1385587 1380734 1384324 1395858 
1786.821 1413376 1435350 1460416 1488044 1516472 1542807 1561927 1567780 
1790.678 1555642 1524219 1477039 1422584 1370529 1329116 1301930 1287507 
1794.536 1281359 1278667 1275510 1269595 1260058 1246301 1227992 1204766 
1798.393 1176325 1143502 1108388 1073476 1041823 1015485 995094 980780 
1802.251 971582 966700 966036 969191 975600 983636 991440 997020 999378 
1806.590 998547 996057 993500 992005 991640 991474 990477 988186 985861 
1810.930 985828 990245 1000905 1016647 1034781 1052019 1065505 1073975 
1814.787 1078359 1081116 1085169 1093008 1105365 1121676 1140412 1160013 
1818.645 1179216 1197623 1215066 1231647 1247065 1261287 1273682 1283652 
1822.502 1290232 1292093 1288172 1278069 1263049 1246633 1233807 1228590 
1826.360 1233607 1247430 1265242 1279963 1284350 1274380 1251086 1220748 
1830.217 1192705 1176458 1177056 1193768 1221413 1253246 1283619 1309507 
1834.074 1331077 1350720 1371493 1395492 1423548 1455562 1491070 1530537 
1837.932 1575661 1628273 1690105 1760895 1839249 1921812 2004656 2083854 
1841.789 2156007 2218780 2271902 2317303 2360110 2406887 2464398 2536514 
1845.647 2622409 2716956 2812058 2898742 2969829 3021742 3054975 3073395 
1849.504 3081537 3083039 3078434 3065453 3040661 3001457 2948145 2883765 
1853.362 2813792 2742964 2674214 2607609 2541046 2471729 2398391 2321734 
1857.219 2244058 2167628 2093908 2022498 1952098 1881411 1810934 1742664 
1861.076 1679727 1624548 1578089 1539083 1504768 1473050 1442531 1413675 
1864.934 1387481 1364280 1342643 1319577 1291495 1256768 1216761 1177355 
1868.791 1145761 1128785 1129416 1146060 1173236 1204567 1234571 1260091 
1872.649 1280196 1294918 1304423 1308510 1306616 1298806 1285945 1269994 
1876.506 1252581 1235335 1217558 1197689 1174033 1145761 1114068 1081382 
1880.364 1051189 1025449 1003595 983470 961553 935618 905569 874060 844778 
1884.703 821141 803945 791265 778884 762453 738788 707922 671914 635179 
1889.043 602330 577379 562881 559994 568488 587200 612815 641020 665841 
1893.382 682036 685653 676660 658872 638299 622006 614839 617991 629339 
1897.722 645333 662589 679845 697866 718774 743235 770552 798037 821871 
1902.062 839765 851218 858257 863502 869379 876151 882028 884717 881762 
1906.401 872001 856464 836445 813672 789008 762088 733411 703906 675963 
1910.741 652435 635677 626021 622006 620712 619385 616863 613246 609198 
1915.080 604819 597419 583152 557672 519288 470459 418286 371989 338761 
1919.420 320988 314887 313130 307957 294263 272148 245791 221060 202164 
1923.760 189236 178927 166431 148233 124436 98154 74094 55337 41817 30484 
1928.581 17296 -728 -22464 -44662 -62552 -72955 -76035 -75903 -77659 -84947 
1933.403 -98363 -115026 -131025 -143082 -150932 -156960 -164512 -175177 
1937.260 -188094 -200116 -207866 -211244 -213297 -220451 -239128 -272607 
1941.118 -318798 -370413 -417917 -453401 -474021 -481832 -482362 -481071 
1944.975 -480111 -478589 -473492 -463231 -448370 -433011 -421326 -415368 
1948.833 -413713 -411793 -404510 -389216 -367830 -346178 -332703 -333432 
1952.690 -350449 -380708 -419473 -461245 -503511 -547459 -595474 -650397 
1956.548 -711136 -774281 -834738 -888342 -933772 -973049 -1009976 -1047725 
1960.405 -1086893 -1126123 -1163201 -1197865 -1231203 -1265927 -1304811 
1963.780 -1345805 -1383723 -1411434 -1422894 -1416222 -1395845 -1369686 
1967.156 -1346565 -1331799 -1324631 -1321130 -1316439 -1309039 -1302432 
1970.531 -1302432 -1315712 -1344451 -1385738 -1431084 -1472892 -1505384 
1973.906 -1526450 -1537610 -1539194 -1526384 -1490888 -1421903 -1313367 
1977.281 -1168885 -1004158 -842377 -706902 -613937 -568605 -565494 -592231 
1981.139 -634781 -682389 -727775 -766641 -796077 -813407 -815689 -802923 
1984.996 -777225 -744413 -711533 -683944 -662837 -645104 -625385 -598915 
1988.854 -565461 -529192 -496792 -475047 -466872 -470182 -479251 -487724 
1992.711 -491761 -491596 -490570 -491563 -496064 -501161 -502882 -497917 
1996.568 -486267 -472102 -462867 -464655 -479813 -505761 -535778 -562814 
2000.426 -582006 -593356 -600966 -610727 -626874 -650066 -679180 -711599 
2004.283 -746365 -784369 -828289 -879348 -934731 -988124 -1031462 -1057146 
2008.141 -1063690 -1054435 -1036850 -1018438 -1003199 -989645 -973314 
2011.516 -949279 -915819 -876041 -837284 -806892 -789925 -786948 -794589 
2015.373 -807520 -821013 -831960 -839037 -841319 -836491 -821609 -794324 
2019.231 -755924 -710772 -667072 -633888 -615790 -613374 -621381 -632399 
2023.088 -639314 -640604 -637825 -636369 -639479 -646824 -654004 -654632 
2026.946 -643350 -619727 -588856 -558347 -535877 -525022 -523599 -527140 
2030.803 -528365 -522904 -509038 -487823 -460716 -428245 -389051 -341312 
2034.660 -284859 -221643 -154609 -88160 -23855 39232 102992 168850 235448 
2039.000 297380 348113 382402 399150 402798 401836 404954 418452 442730 
2043.340 473179 502669 525824 540056 548383 556411 571142 597585 638431 
2047.679 693518 760993 837408 917323 994164 1059160 1104402 1124964 1121211 
2052.019 1099552 1071284 1049661 1045044 1061552 1095765 1138186 1177654 
2055.876 1204367 1215332 1212275 1201543 1189748 1181940 1180113 1184465 
2059.734 1194134 1208753 1228689 1254309 1284150 1315589 1344837 1368768 
2063.591 1387083 1402473 1418629 1439273 1465636 1495492 1523654 1545035 
2067.448 1556041 1556673 1550122 1540546 1531202 1523721 1517237 1510753 
2071.306 1504469 1499814 1500047 1507661 1522956 1542807 1562326 1576293 
2075.163 1581780 1579585 1572934 1566815 1565153 1568944 1576891 1586968 
2079.021 1597410 1608385 1621355 1638018 1658406 1680458 1699385 1711161 
2082.878 1713489 1707701 1697955 1689772 1687344 1692333 1702479 1713456 
2086.736 1720409 1720508 1712857 1699252 1682255 1663994 1645335 1626410 
2090.593 1606755 1586170 1565652 1546564 1530005 1517237 1509091 1505998 
2094.450 1509357 1520362 1539847 1566982 1598474 1629337 1653849 1667253 
2098.308 1668484 1659404 1644869 1630834 1622918 1623916 1634392 1653051 
2102.165 1678496 1708866 1743063 1779326 1816224 1851262 1882509 1909398 
2106.023 1932861 1955493 1980590 2009749 2042572 2076230 2106727 2130900 
2109.880 2147849 2159503 2169360 2181281 2196700 2214417 2231335 2243325 
2113.738 2248388 2246922 2242226 2238296 2239395 2246856 2259912 2275566 
2117.595 2290855 2303046 2311241 2315904 2317903 2318669 2318736 2318269 
2121.452 2317503 2316171 2314239 2311274 2306311 2298050 2285792 2269471 
2125.310 2250319 2230503 2211619 2194069 2176219 2154009 2122975 2080092 
2129.167 2024329 1958189 1886269 1814693 1749051 1692832 1647829 1614072 
2133.025 1591158 1578122 1573566 1576060 1581547 1585970 1585438 1576891 
2136.882 1559732 1536023 1508392 1479466 1450742 1421820 1392268 1362353 
2140.740 1333137 1307480 1287075 1273250 1264079 1256469 1246633 1232644 
2144.597 1215033 1196227 1179349 1165561 1152538 1135528 1108886 1069158 
2148.454 1015651 952155 882825 811514 738688 661726 576981 481472 375173 
2152.794 261672 145283 30583 -80243 -186504 -286216 -372995 -435494 -458035 
2157.134 -424008 -325221 -165373 37906 257892 468038 648154 789572 893118 
2161.473 965405 1013492 1043384 1059626 1065970 1067597 1070387 1078260 
2165.331 1092078 1108820 1121775 1124167 1112906 1088557 1058064 1029733 
2169.188 1009773 1000540 999610 1001470 1000739 995525 987157 979817 977625 
2173.528 981312 989149 997219 1001503 1000274 994795 987057 978522 968726 
2177.867 954314 932099 901651 865494 830569 804775 793257 797273 812211 
2182.207 830237 844413 850787 850322 847068 845940 850355 859717 872400 
2186.546 885149 896737 907793 920510 936449 956605 979452 1003861 1029036 
2190.886 1056769 1089885 1132007 1183701 1242845 1303459 1359129 1403902 
2194.743 1435483 1455130 1465802 1470623 1470856 1466234 1455496 1439439 
2198.601 1420656 1404667 1397221 1402340 1419692 1445124 1471820 1493032 
2202.458 1505167 1509091 1509091 1510421 1518567 1535192 1560265 1591324 
2206.316 1625778 1661466 1697722 1733249 1767781 1800386 1829600 1855155 
2210.173 1876885 1895487 1910763 1922311 1928202 1926904 1917785 1902043 
2214.031 1883806 1868699 1860745 1863341 1875554 1894456 1915389 1935291 
2217.888 1952997 1969273 1986548 2005788 2026293 2046267 2061847 2070170 
2221.745 2070170 2061881 2047099 2027591 2004057 1977095 1947572 1917186 
2225.603 1888865 1866902 1854423 1852659 1860346 1873324 1887068 1897717 
2229.460 1903441 1905005 1903740 1901710 1899714 1898216 1897384 1898582 
2233.318 1904007 1917086 1939884 1973167 2013976 2058152 2099702 2134429 
2237.175 2160635 2179017 2192271 2203027 2213085 2222643 2230736 2236531 
2241.032 2240061 2243026 2247622 2255815 2268572 2285592 2305445 2326797 
2244.890 2348550 2370638 2393226 2416549 2440106 2462965 2483425 2500621 
2248.747 2514451 2525349 2534381 2543146 2552412 2563410 2576776 2593442 
2252.605 2613875 2638443 2665613 2693184 2717557 2735362 2744131 2743464 
2256.462 2734695 2720624 2704253 2687616 2671714 2656778 2642343 2629209 
2260.320 2619042 2613342 2614242 2622576 2637843 2658745 2683949 2712122 
2264.177 2742730 2775475 2809023 2841773 2871290 2895206 2912351 2923793 
2268.034 2932065 2940906 2953782 2971897 2994384 3018439 3039860 3055142 
2271.892 3062884 3062984 3057478 3049036 3040427 3033887 3031352 3033854 
2275.749 3042096 3056043 3074863 3097221 3120949 3143676 3164570 3182627 
2279.607 3199249 3215605 3233664 3254461 3278598 3305174 3333487 3362069 
2283.464 3390052 3416334 3440513 3461721 3479824 3495155 3508382 3520574 
2287.322 3533101 3546563 3560560 3574157 3585616 3593701 3598445 3600984 
2291.179 3603490 3608635 3618258 3633427 3653608 3677266 3702796 3728495 
2295.036 3753260 3776556 3798281 3817902 3835652 3851397 3865538 3879044 
2298.894 3892818 3907461 3923108 3939459 3955408 3970555 3984599 3997909 
2302.751 4011252 4025163 4039343 4052821 4064059 4071651 4075497 4076668 
2306.609 4077337 4080247 4087806 4100783 4118913 4140221 4162634 4183911 
2310.466 4203014 4219107 4232557 4244134 4254774 4265849 4278565 4293857 
2314.323 4312396 4334350 4358614 4384318 4410191 4435497 4460302 4485711 
2318.181 4512762 4542795 4576245 4613181 4652765 4694195 4736232 4777202 
2322.038 4814657 4844443 4861866 4862737 4843571 4804572 4749263 4684683 
2325.896 4619041 4560809 4516177 4487987 4475668 4475801 4484271 4496859 
2329.753 4510385 4523442 4535261 4545540 4554146 4561445 4568008 4575575 
2333.611 4585487 4599283 4617333 4638766 4661942 4684984 4706923 4727691 
2337.468 4748593 4770837 4795125 4820755 4845548 4867059 4883378 4894168 
2341.325 4900401 4903785 4905896 4906768 4905226 4899060 4886662 4868601 
2345.183 4847558 4828863 4818945 4823368 4846118 4888438 4949529 5026450 
2349.040 5115421 5211854 5311160 5408610 5500141 5583034 5656039 5719588 
2352.898 5775592 5826297 5873280 5917716 5960040 6000486 6040063 6080382 
2356.755 6122453 6166880 6213127 6258740 6300559 6336095 6364439 6386833 
2360.613 6405932 6424864 6446622 6472013 6500836 6531847 6563904 6596232 
2364.470 6628326 6660054 6690336 6717525 6739667 6755181 6763864 6765783 
2368.327 6762383 6754811 6743436 6727889 6707598 6682294 6652954 6621800 
2372.185 6591892 6566090 6546546 6533866 6527575 6527273 6532520 6543418 
2376.042 6560944 6586072 6619142 6659616 6706690 6759052 6816300 6878606 
2379.900 6946442 7020485 7100536 7185620 7273552 7361872 7448423 7531520 
2383.757 7610012 7683527 7751490 7812883 7866527 7911200 7945991 7970660 
2387.615 7985880 7992496 7991685 7984328 7971065 7952335 7928781 7901043 
2391.472 7870036 7836533 7800976 7763363 7723595 7681807 7638439 7594805 
2395.329 7552557 7513416 7478660 7448794 7423953 7403865 7388463 7378655 
2399.187 7375757 7381149 7395911 7420515 7454255 7495987 7544095 7597030 
2403.044 7653783 7714084 7777935 7846182 7919805 7999887 8087915 8184707 
2406.902 8290605 8405413 8527957 8656720 8790323 8927754 9068681 9213477 
2410.759 9361911 9513680 9667162 9820190 9970052 10114166 10250457 10377221 
2414.616 10492989 10596463 10685836 10759398 10815750 10854817 10877714 
2417.992 10887261 10886583 10879006 10866606 10850333 10830086 10805322 
2421.367 10775057 10739563 10699386 10655681 10609603 10562683 10516276 
2424.742 10472046 10432369 10399686 10376745 10366090 10369314 10387401 
2428.117 10420592 10468686 10531043 10607057 10695854 10795878 10904963 
2431.493 11020839 11141743 11266386 11394876 11528336 11668203 11816048 
2434.868 11972357 12137103 12309581 12489357 12676064 12870463 13073554 
2438.243 13286101 13509142 13742523 13986227 14240031 14504022 14778834 
2441.618 15065072 15363376 15673734 15995763 16328834 16672112 17024962 
2444.994 17386896 17756932 18133952 18516588 18902988 19291740 19682090 
2448.369 20073208 20465198 20857266 21248400 21636612 22019700 22395204 
2451.744 22761470 23117768 23463378 23797816 24119554 24425932 24713058 
2455.119 24976756 25212556 25416444 25585248 25716180 25806750 25854714 
2458.495 25858056 25814944 25724336 25586020 25400670 25169858 24895624 
2461.870 24581024 24228780 23842760 23427216 22986602 22526682 22052920 
2465.245 21571038 21087290 20606550 20134182 19674774 19231992 18809522 
2468.620 18410622 18037816 17693634 17379620 17097608 16848398 16632449 
2471.996 16449401 16297838 16175663 16079755 16006112 15950698 15909314 
2475.371 15877763 15852366 15829789 15807109 15782334 15754675 15724372 
2478.746 15692731 15661540 15632583 15606411 15582643 15559633 15534976 
2482.121 15506646 15472996 15433958 15390117 15342676 15293045 15241977 
2485.497 15189886 15137047 15083802 15030495 14977915 14926988 14877917 
2488.872 14831527 14787679 14746680 14708461 14672953 14639881 14608183 
2492.247 14576452 14542737 14505563 14463872 14418039 14368993 14318205 
2495.622 14266465 14214045 14159921 14102414 14040159 13972712 13900005 
2498.998 13823686 13745191 13665582 13585235 13504083 13421203 13336528 
2502.373 13250401 13164120 13079222 12997584 12920229 12848040 12781016 
2505.748 12719222 12662998 12612511 12567659 12528336 12493347 12461157 
2509.123 12429480 12397056 12362146 12324102 12282244 12236471 12186341 
2512.499 12131957 12073766 12012890 11951205 11891198 11834843 11783636 
2515.874 11737916 11696863 11659184 11623108 11587851 11552869 11518911 
2519.249 11486759 11457638 11432566 11412325 11397460 11388345 11384808 
2522.624 11386202 11391848 11400590 11411271 11423041 11435968 11449881 
2526.000 11465156 11481962 11499552 11517244 11533645 11547731 11559267 
2529.375 11568386 11575328 11581114 11585741 11588906 11590437 11590505 
2532.750 11589484 11588838 11590165 11594657 11603063 11615247 11629914 
2536.125 11646182 11663064 11680048 11697509 11715959 11735567 11756808 
2539.500 11779653 11804132 11831029 11861028 11894740 11932270 11972731 
2542.876 12014219 12054449 12091413 12123916 12152231 12177788 12202085 
2546.251 12226519 12251637 12276416 12299900 12320795 12338521 12353691 
2549.626 12367191 12380623 12395044 12410693 12427605 12444892 12462077 
2553.001 12478649 12494642 12509817 12524209 12537339 12548662 12557495 
2556.377 12563362 12565954 12565237 12561315 12554358 12544228 12531166 
2559.752 12515206 12496586 12475580 12452700 12427809 12400840 12371521 
2563.127 12339203 12303547 12264589 12222430 12178094 12132571 12087222 
2566.502 12043513 12002671 11966090 11934619 11908839 11888849 11874513 
2569.878 11865284 11860654 11859871 11862424 11867770 11875466 11885137 
2573.253 11896375 11909418 11924402 11941941 11962956 11987650 12016091 
2576.628 12047635 12081294 12116080 12151482 12187704 12225361 12265236 
2580.003 12307569 12351918 12397158 12441550 12484412 12525607 12566227 
2583.379 12607975 12652696 12701072 12752626 12806097 12859473 12911558 
2586.754 12961909 13011787 13062797 13117093 13175801 13238992 13305813 
2590.129 13374592 13443349 13510407 13574603 13634946 13691159 13743071 
2593.504 13791328 13836787 13880745 13924844 13970214 14017264 14065724 
2596.880 14114737 14163412 14211580 14259891 14309781 14363376 14421945 
2600.255 14486139 14555517 14628813 14704382 14781303 14859402 14939195 
2603.630 15021645 15107473 15196818 15289132 15383457 15478902 15575088 
2607.005 15672052 15770514 15871301 15975000 16081544 16190279 16300246 
2610.381 16409690 16517133 16620882 16719595 16812266 16898104 16977068 
2613.756 17049086 17114496 17173368 17225800 17271412 17309720 17340168 
2617.131 17362446 17376964 17384690 17387310 17386240 17383758 17381308 
2620.506 17380102 17380826 17383930 17389412 17397172 17407142 17419074 
2623.882 17433182 17449840 17469364 17492510 17519488 17550432 17584968 
2627.257 17622442 17662056 17703366 17746024 17790450 17837122 17886736 
2630.632 17939702 17996200 18055572 18117334 18181040 18246138 18312388 
2634.007 18380030 18449132 18519906 18592420 18666506 18742228 18819174 
2637.383 18897312 18976398 19056328 19137000 19218624 19301128 19384930 
2640.758 19470064 19556534 19643850 19731846 19819440 19906014 19990904 
2644.133 20073938 20155284 20234982 20313686 20391780 20469470 20547350 
2647.508 20625762 20705548 20787256 20871726 20959414 21050876 21146114 
2650.884 21244918 21347126 21452244 21559896 21669768 21781062 21893256 
2654.259 22005966 22118844 22232206 22346540 22462752 22581788 22704454 
2657.634 22830924 22961448 23095264 23231634 23369624 23508004 23645906 
2661.009 23782522 23917254 24050066 24181414 24312134 24442896 24574082 
2664.385 24705974 24837730 24968650 25097360 25223338 25346470 25467810 
2667.760 25588692 25710978 25835970 25964730 26097678 26234114 26373870 
2671.135 26515854 26660000 26805566 26952100 27098822 27245134 27390192 
2674.510 27533320 27673990 27812090 27947160 28079020 28207420 28331932 
2677.885 28453012 28571154 28687664 28804380 28923292 29046380 29175172 
2681.261 29310984 29454428 29606256 29766652 29936232 30115572 30305218 
2684.636 30505576 30717122 30939656 31173094 31416912 31670134 31931926 
2688.011 32201008 32476612 32757930 33044468 33336672 33634732 33939124 
2691.386 34250108 34567592 34891056 35220328 35555176 35895572 36242068 
2694.762 36595000 36954540 37320696 37692760 38070316 38452724 38839784 
2698.137 39231868 39628988 40031260 40438244 40849172 41262636 41677812 
2701.512 42093600 42509352 42924808 43339048 43751116 44159324 44561380 
2704.887 44954732 45336928 45705400 46057824 46392140 46705976 46997036 
2708.263 47263168 47502404 47713148 47894692 48046816 48169968 48265340 
2711.638 48333928 48377296 48396520 48392520 48365888 48316076 48242388 
2715.013 48143648 48018764 47866984 47688228 47483220 47253156 47000024 
2718.388 46726124 46433840 46125584 45804176 45472264 45133108 44789288 
2721.764 44444352 44101556 43764896 43437760 43124304 42827964 42551560 
2725.139 42297464 42066552 41858968 41674308 41511860 41371084 41251672 
2728.514 41153888 41077872 41023572 40990612 40978160 40985116 41009984 
2731.889 41051940 41109668 41182264 41268904 41368316 41479196 41600356 
2735.265 41730480 41868560 42013624 42164576 42320180 42478440 42637336 
2738.640 42794904 42949312 43099380 43244636 43385288 43521592 43653944 
2742.015 43782564 43907624 44029276 44148064 44264900 44380928 44497060 
2745.390 44614068 44732284 44852144 44973624 45097152 45223036 45351532 
2748.766 45482124 45614152 45745968 45875868 46002200 46123888 46240632 
2752.141 46352988 46462160 46569888 46677568 46786896 46899428 47016824 
2755.516 47140536 47271776 47410896 47557892 47711228 47869424 48029868 
2758.891 48189812 48347000 48498468 48641276 48772600 48889396 48988564 
2762.267 49068020 49126636 49163480 49178916 49173164 49146632 49099404 
2765.642 49031700 48944092 48837632 48714512 48577832 48430672 48276712 
2769.017 48118920 47960444 47803656 47650876 47504180 47365440 47236088 
2772.392 47116968 47007708 46908104 46817232 46734128 46658640 46590248 
2775.768 46528908 46473848 46423404 46374960 46324636 46267984 46200536 
2779.143 46118324 46018148 45898040 45757416 45596712 45417672 45222264 
2782.518 45013900 44795424 44570744 44343208 44115936 43891456 43671712 
2785.893 43457864 43250564 43049732 42854804 42665008 42479352 42296696 
2789.269 42116200 41937712 41761192 41587116 41416316 41249736 41088180 
2792.644 40932284 40782376 40638528 40500360 40367876 40240484 40117820 
2796.019 39999544 39885044 39773808 39664560 39556684 39448792 39340316 
2799.394 39230452 39118800 39005148 38889644 38772176 38652856 38531216 
2802.770 38407296 38280584 38150944 38018196 37882384 37743680 37602424 
2806.145 37459260 37314700 37169576 37025544 36884016 36746896 36616020 
2809.520 36492356 36376724 36268756 36167696 36072420 35981628 35894528 
2812.895 35810824 35730736 35654728 35583516 35517348 35456908 35402224 
2816.271 35353804 35312292 35278940 35255224 35243076 35244728 35262768 
2819.646 35299136 35355532 35433284 35532556 35652892 35792688 35950132 
2823.021 36122972 36308956 36506264 36713360 36929252 37152216 37380456 
2826.396 37610952 37839544 38061816 38272624 38466988 38640904 38791560 
2829.771 38917368 39018128 39094764 39149112 39183344 39199880 39201148 
2833.147 39189252 39166300 39134644 39096284 39053836 39010044 38967492 
2836.522 38928708 38895804 38869856 38852032 38842756 38842828 38853516 
2839.897 38876888 38915772 38973760 39055032 39164160 39306220 39486752 
2843.272 39711684 39987808 40321556 40719928 41187660 41727304 42336256 
2846.648 43006084 43720736 44454700 45175532 45845748 46423292 46870196 
2850.023 47154756 47255632 47165760 46891712 46453680 45879444 45203880 
2853.398 44464284 43694468 42926304 42186556 41494400 40864240 40303884 
2856.773 39815424 39396148 39040020 38738740 38482700 38263144 38072052 
2860.149 37902884 37750404 37610408 37479344 37354420 37233288 37114388 
2863.524 36996968 36881420 36769396 36663536 36567572 36486188 36423960 
2866.899 36385224 36373768 36391708 36439488 36515488 36617028 36739612 
2870.274 36877848 37026452 37179288 37331024 37476560 37611528 37733020 
2873.650 37839652 37932096 38012880 38086196 38157132 38231012 38311964 
2877.025 38403312 38506776 38622652 38750732 38890408 39041108 39202748 
2880.400 39375032 39558680 39753436 39959332 40175164 40399404 40629616 
2883.775 40862020 41092548 41316456 41528704 41725516 41903592 42061584 
2887.151 42200068 42321496 42430172 42531568 42631672 42737064 42853304 
2890.526 42986624 43142780 43328136 43550636 43819944 44147144 44546292 
2893.901 45032056 45619048 46320804 47145776 48095192 49159104 50314716 
2897.276 51523556 52730564 53872252 54877672 55677604 56218340 56464108 
2900.652 56405852 56059936 55466800 54683568 53770804 52791924 51802108 
2904.027 50843896 49950900 49145704 48441564 47847044 47365332 46997036 
2907.402 46740364 46592532 46550448 46611272 46773056 47034400 47394152 
2910.777 47850004 48397704 49029516 49734572 50496832 51295664 52107700 
2914.153 52905164 53658728 54341384 54927756 55398776 55744016 55960796 
2917.528 56054808 56037996 55926348 55736332 55482576 55177536 54828684 
2920.903 54440188 54013616 53549152 53048268 52514160 51952880 51373976 
2924.278 50789512 50211824 49653588 49125596 48635308 48187628 47784680 
2927.654 47426268 47110508 46834652 46594932 46386980 46205728 46046000 
2931.029 45901756 45767652 45637964 45507804 45372792 45228696 45072632 
2934.404 44902480 44717444 44518100 44306328 44084908 43857072 43625880 
2937.779 43394444 43165836 42942800 42729240 42529596 42348820 42191776 
2941.155 42062612 41963548 41894324 41851924 41830580 41821388 41813688 
2944.530 41795520 41753788 41677300 41556452 41385880 41164596 40897296 
2947.905 40593556 40265928 39929140 39597804 39283516 38995000 38736964 
2951.280 38509964 38311964 38138648 37984748 37844856 37714116 37588476 
2954.656 37464788 37341060 37215596 37087540 36956204 36821080 36681812 
2958.031 36538556 36391748 36242464 36091936 35941784 35793480 35648144 
2961.406 35506920 35370628 35240308 35117356 35003528 34900752 34810992 
2964.781 34735756 34676144 34632716 34605052 34592816 34594968 34610684 
2968.156 34638996 34678940 34729832 34791072 34862332 34943408 35034308 
2971.532 35134960 35245052 35364084 35491028 35624260 35761064 35898160 
2974.907 36030696 36152032 36254636 36329380 36366528 36357520 36295160 
2978.282 36175544 35998328 35767000 35489012 35174412 34835188 34484432 
2981.657 34133960 33795084 33476480 33183896 32920494 32686048 32478288 
2985.033 32292940 32124970 31970582 31826590 31691984 31567290 31454030 
2988.408 31353124 31263560 31180782 31096808 31000040 30876898 30715202 
2991.783 30505860 30245782 29938398 29594338 29229214 28859266 28500738 
2995.158 28165736 27860770 27587338 27342762 27122238 26920052 26731492 
2998.534 26553296 26383414 26220706 26064392 25913904 25768424 25627072 
3001.909 25489558 25355708 25225444 25099328 24977598 24860886 24749574 
3005.284 24644002 24544316 24450714 24363090 24281090 24204290 24132478 
3008.659 24065162 24001950 23942532 23886726 23833870 23783606 23735450 
3012.035 23688908 23644088 23601264 23560824 23523536 23490168 23461068 
3015.410 23436972 23418090 23404730 23397106 23395114 23398016 23405010 
3018.785 23414626 23425572 23436308 23446100 23454320 23460578 23464530 
3022.160 23465650 23463132 23456418 23445330 23430712 23414626 23399520 
3025.536 23388540 23384030 23387560 23399242 23417984 23442114 23469252 
3028.911 23497442 23524830 23549944 23571354 23587866 23598500 23602244 
3032.286 23599164 23589264 23573486 23552988 23529342 23504402 23479920 
3035.661 23457502 23438582 23424104 23414382 23409242 23408018 23410080 
3039.037 23414838 23422390 23433020 23447358 23465826 23488138 23513810 
3042.412 23541724 23570864 23600878 23632016 23664872 23700350 23738634 
3045.787 23779408 23821198 23862398 23901360 23937246 23970192 24001250 
3049.162 24032068 24064322 24099098 24136962 24177526 24219776 24262310 
3052.538 24303410 24341572 24375180 24403640 24426774 24445560 24461650 
3055.913 24477354 24495198 24516828 24543402 24574538 24609846 24647790 
3059.288 24687632 24728316 24769428 24810610 24851624 24892220 24932432 
3062.663 24972474 25012976 25055130 25100064 25148688 25201424 25258172 
3066.039 25318298 25381280 25446518 25513732 25582506 25652554 25723000 
3069.414 25792438 25859744 25923786 25984146 26041382 26096622 26151480 
3072.789 26207120 26264632 26324406 26385984 26448908 26512474 26576298 
3076.164 26639636 26702562 26764862 26826888 26888960 26951570 27015316 
3079.540 27080378 27146892 27214372 27282180 27349540 27415850 27480972 
3082.915 27544936 27608098 27670316 27731874 27792274 27851726 27910624 
3086.290 27970094 28031762 28097258 28167996 28244582 28326306 28412010 
3089.665 28499534 28586936 28672866 28756444 28837770 28917520 28996856 
3093.041 29076670 29158056 29241514 29327008 29414184 29502230 29590330 
3096.416 29678056 29765128 29852216 29940280 30030136 30122604 30217400 
3099.791 30314030 30411498 30508490 30604722 30700194 30795614 30891660 
3103.166 30988760 31086878 31185482 31283752 31381082 31477540 31573630 
3106.542 31670280 31768124 31867310 31967516 32067816 32167178 32264776 
3109.917 32360758 32455258 32549352 32643500 32738708 32835148 32933004 
3113.292 33032492 33133398 33235758 33339466 33444092 33549066 33653960 
3116.667 33758196 33861740 33964992 34068404 34172668 34278500 34386084 
3120.042 34495192 34605588 34716444 34826788 34936012 35043396 35148504 
3123.418 35251880 35353552 35454352 35554884 35656096 35758116 35861564 
3126.793 35966544 36073464 36182676 36294260 36408104 36523564 36639272 
3130.168 36753856 36865836 36974276 37079204 37181308 37282136 37382696 
3133.543 37483824 37585912 37688676 37792148 37896592 38002648 38111552 
3136.919 38223920 38339972 38458804 38578904 38698892 38817612 38935232 
3140.294 39052456 39170256 39289316 39409356 39529100 39647136 39761788 
3143.669 39872732 39980980 40088128 40195956 40306500 40420388 40537644 
3147.044 40657848 40780264 40904212 41029252 41154872 41280312 41404728 
3150.420 41527428 41648052 41767392 41886588 42007200 42130364 42256264 
3153.795 42384328 42512932 42640336 42765364 42888084 43009160 43129972 
3157.170 43251592 43374780 43499140 43624048 43748624 43872064 43994260 
3160.545 44115528 44236176 44357076 44478560 44601256 44725892 44853028 
3163.921 44983176 45115900 45250688 45385996 45519948 45651108 45778256 
3167.296 45901060 46019512 46134536 46246716 46356524 46464152 46569776 
3170.671 46673400 46775196 46875472 46974220 47071288 47166204 47258736 
3174.046 47348588 47435656 47520300 47602848 47683236 47761304 47836652 
3177.422 47909012 47978800 48046892 48114552 48183372 48254308 48327372 
3180.797 48402300 48477684 48552632 48626860 48700204 48773272 48846752 
3184.172 48921064 48995832 49070948 49146040 49220960 49295704 49370652 
3187.547 49445796 49520876 49595452 49668664 49740184 49810004 49878832 
3190.923 49947040 50015588 50084412 50152908 50221012 50288044 50353932 
3194.298 50419308 50484588 50550060 50616064 50681628 50746236 50809180 
3197.673 50870304 50929724 50988368 51046500 51104532 51162344 51219492 
3201.048 51275900 51331384 51386096 51440180 51493596 51545904 51596532 
3204.424 51645528 51693264 51740480 51788444 51838244 51889656 51942164 
3207.799 51993920 52043784 52090928 52135868 52180292 52225992 52274272 
3211.174 52325176 52376872 52427192 52473624 52514940 52551288 52584612 
3214.549 52617524 52652456 52690876 52733072 52778228 52824740 52871256 
3217.925 52916916 52961344 53004692 53047744 53091364 53136372 53183740 
3221.300 53234004 53287456 53343576 53401800 53461080 53520704 53580336 
3224.675 53639980 53700380 53761916 53824208 53886548 53947544 54005400 
3228.050 54059320 54109156 54155996 54201756 54248344 54297264 54349344 
3231.426 54404588 54463064 54523992 54587256 54652300 54718776 54786056 
3234.801 54853012 54919068 54983896 55047532 55110796 55174636 55239580 
3238.176 55305472 55372240 55439172 55505732 55572644 55640356 55709548 
3241.551 55780900 55853844 55927480 56000676 56072524 56143184 56213928 
3244.927 56286492 56362276 56442340 56525960 56611564 56697484 56781688 
3248.302 56863412 56942696 57020408 57097452 57174968 57253476 57333096 
3251.677 57413452 57494576 57575564 57656080 57735432 57812984 57888048 
3255.052 57960672 58030724 58098560 58164428 58228192 58289384 58347440 
3258.427 58401788 58452548 58500388 58546608 58592600 58639696 58687904 
3261.803 58736832 58785164 58831636 58875196 58915456 58952760 58987260 
3265.178 59019484 59049284 59076616 59101100 59122968 59142444 59160212 
3268.553 59177072 59193208 59208436 59222300 59233844 59242120 59246716 
3271.928 59247328 59244440 59238552 59230424 59221008 59211172 59201412 
3275.304 59192376 59183796 59175288 59166400 59156492 59145520 59133596 
3278.679 59121756 59110668 59100912 59092860 59085912 59079688 59073880 
3282.054 59068792 59065340 59065112 59069136 59077868 59091192 59107324 
3285.429 59124412 59141004 59155960 59169100 59181288 59193516 59206956 
3288.805 59222640 59240828 59262176 59286668 59314360 59345280 59379580 
3292.180 59416964 59457236 59500668 59547484 59598412 59653908 59714848 
3295.555 59780772 59851504 59926088 60003916 60084500 60168524 60256252 
3298.930 60348612 60445784 60547440 60652504 60759696 60868092 60977200 
3302.306 61087296 61199360 61314432 61433540 61557184 61685868 61819404 
3305.681 61958028 62101356 62249780 62402960 62561020 62723652 62890672 
3309.056 63062200 63237780 63416996 63599168 63783408 63968724 64154124 
3312.431 64339520 64525232 64712480 64902468 65096544 65295316 65498740 
3315.807 65706260 65916964 66129892 66344508 66560044 66775992 66991860 
3319.182 67206552 67419848 67630928 67839624 68045864 68249328 68449560 
3322.557 68645648 68836624 69022096 69202040 69377480 69549336 69718888 
3325.932 69887224 70054448 70220064 70383640 70545096 70703880 70860192 
3329.308 71013120 71160872 71301464 71431696 71549240 71652856 71743056 
3332.683 71821008 71888560 71947136 71996488 72036104 72064344 72080264 
3336.058 72084328 72077336 72061096 72036928 72004696 71963168 71910144 
3339.433 71843136 71760456 71661496 71546656 71417168 71274128 71118336 
3342.809 70950072 70769472 70577176 70372960 70157440 69930304 69690760 
3346.184 69437856 69170456 68888696 68593728 68288136 67975216 67658336 
3349.559 67340096 67021512 66702852 66383272 66061988 65738172 65411792 
3352.934 65082832 64751752 64418836 64084648 63750288 63417116 63087368 
3356.310 62762848 62445388 62135764 61834036 61539584 61251472 60969312 
3359.685 60693200 60424424 60163576 59911864 59670024 59437708 59214132 
3363.060 58998456 58789448 58586380 58388412 58195228 58006488 57822484 
3366.435 57643440 57469652 57301792 57139896 56983724 56832932 56686724 
3369.811 56544228 56405288 56268840 56134740 56001692 55867708 55730080 
3373.186 55586124 55433524 55270624 55097520 54914968 54724344 54526660 
3376.561 54322120 54110096 53889548 53659100 53417872 53165544 52901792 
3379.936 52626460 52339228 52039600 51726668 51400568 51061448 50709816 
3383.312 50347048 49973876 49590884 49198844 48798404 48390744 47977724 
3386.687 47561628 47144780 46729480 46316972 45907652 45501440 45098180 
3390.062 44697576 44300160 43906708 43518292 43135900 42760060 42390828 
3393.437 42027712 41669860 41316128 40965164 40615752 40267240 39919044 
3396.813 39571708 39226064 38883376 38545048 38211508 37882924 37558524 
3400.188 37236860 36916948 36598176 36280464 35964060 35649476 35336408 
3403.563 35024468 34712320 34399068 34084676 33769656 33455868 33144876 
3406.938 32838256 32536746 32239404 31945046 31652496 31360600 31069616 
3410.313 30780534 30494770 30213742 29938468 29668902 29405250 29147072 
3413.689 28894252 28647278 28406526 28172310 27944332 27721842 27503316 
3417.064 27287402 27073182 26859598 26646506 26434152 26223240 26014188 
3420.439 25807874 25605348 25407136 25213714 25025226 24841204 24660942 
3423.814 24483384 24307510 24132830 23959232 23786930 23616448 23447920 
3427.190 23281762 23117558 22955546 22795620 22638404 22484458 22334052 
3430.565 22187290 22043472 21901200 21759220 21616412 21472192 21327322 
3433.940 21182746 21039538 20898984 20761536 20626910 20494896 20364972 
3437.315 20236544 20109438 19983514 19857836 19731394 19602876 19471104 
3440.691 19335942 19198364 19060412 18925102 18795438 18673112 18558532 
3444.066 18450100 18344944 18239504 18131014 18017750 17900132 17779678 
3447.441 17659226 17541116 17426764 17316444 17209150 17103018 16996638 
3450.816 16889148 16780342 16671250 16562497 16455216 16349409 16244691 
3454.192 16140344 16036090 15931414 15827211 15724132 15622691 15523335 
3457.567 15425717 15328878 15232025 15134199 15035366 14935595 14835779 
3460.942 14736568 14638716 14543045 14449587 14358993 14271806 14187958 
3464.317 14107412 14029824 13954269 13879240 13803847 13726997 13648246 
3467.693 13567801 13486071 13403501 13320607 13237728 13154933 13072768 
3471.068 12991541 12911525 12833091 12756345 12681045 12607156 12534884 
3474.443 12464634 12397669 12334907 12276689 12222668 12171381 12121089 
3477.818 12069507 12015717 11959583 11902300 11845705 11791160 11739549 
3481.194 11690429 11642745 11595474 11548004 11500709 11455086 11412700 
3484.569 11374637 11340762 11310357 11281519 11252615 11222420 11190970 
3487.944 11159080 11128179 11099420 11073826 11051563 11032428 11015741 
3491.319 11001093 10988316 10977135 10967790 10960722 10956611 10956237 
3494.695 10960450 10969898 10985121 11005715 11030966 11059448 11090141 
3498.070 11122094 11155681 11191480 11230716 11274479 11323314 11377018 
3501.445 11434913 11496251 11560015 11626579 11696761 11771788 11853401 
3504.820 11942963 12040993 12147564 12261862 12382566 12507874 12636185 
3508.196 12766104 12896847 13028756 13162857 13300791 13444033 13593406 
3511.571 13748884 13909209 14072706 14237122 14400742 14562027 14720252 
3514.946 14874557 15024698 15169402 15307906 15439279 15562828 15678303 
3518.321 15785599 15884602 15974589 16054071 16121259 16174391 16211774 
3521.697 16232584 16236642 16224844 16198086 16157126 16102346 16033305 
3525.072 15948739 15846971 15725987 15584395 15421804 15239060 15038899 
3528.447 14825391 14602905 14375774 14147015 13918446 13690373 13462248 
3531.822 13233867 13004446 12773884 12542046 12308660 12072811 11834162 
3535.198 11591969 11347087 11100372 10854647 10612422 10376474 10149032 
3538.573 9931031 9723102 9524822 9336045 9156046 8983971 8818928 8659255 
3542.430 8503560 8349947 8197267 8044270 7890719 7736379 7581756 7427323 
3546.288 7274361 7124180 6978597 6839222 6707363 6583078 6466060 6354453 
3550.145 6246202 6139491 6033007 5926785 5821462 5718379 5618612 5523028 
3554.002 5431658 5344334 5261018 5181138 5104759 5031746 4961225 4891722 
3557.860 4821827 4749431 4673831 4595097 4514804 4435397 4360053 4290980 
3561.717 4229612 4176383 4129784 4087672 4047236 4004965 3957146 3900608 
3565.575 3832711 3752258 3660659 3561863 3461654 3366610 3281903 3210498 
3569.432 3152654 3105864 3066388 3030785 2995451 2957952 2917488 2874226 
3573.290 2828966 2783746 2740296 2700119 2664546 2634009 2607942 2585109 
3577.147 2563344 2540480 2514218 2483592 2447970 2408319 2366440 2324599 
3581.004 2285492 2251085 2222843 2201429 2186243 2175787 2167228 2156939 
3584.862 2141489 2117082 2080891 2032252 1973034 1906935 1839948 1778161 
3588.719 1726130 1686512 1658971 1641576 1631166 1623450 1615269 1603695 
3592.577 1586236 1562692 1533197 1499249 1463176 1427637 1394994 1367239 
3596.434 1345501 1329581 1318913 1311668 1306184 1300302 1292558 1282090 
3600.292 1269362 1255838 1242878 1232511 1225666 1222310 1221379 1221080 
3604.149 1219419 1214535 1204965 1189349 1167123 1137588 1100548 1056537 
3608.006 1007647 957169 909420 868748 837541 815996 801755 790302 776925 
3612.346 758205 733112 703740 674801 651671 638830 638000 647756 663817 
3616.686 680476 691328 690963 676593 649017 611720 571275 533985 504891 
3621.025 486315 477890 477093 480477 485486 490859 497361 507180 522241 
3625.365 543307 568620 592774 607904 604785 576517 521644 447374 367313 
3629.704 297380 248311 222684 215955 220231 227359 231237 229348 221922 
3634.044 211579 201269 193214 187778 184231 181380 178562 176408 176308 
3638.384 179457 186684 196927 207700 216485 221159 220728 216783 212175 
3642.723 210617 215557 228751 250366 278746 310676 342111 368839 386846 
3647.063 391887 381109 352623 306531 245327 174518 102064 37575 -10238 
3651.402 -36247 -39361 -22729 6759 40226 68924 85162 83837 64649 31776 -5864 
3656.706 -38665 -58742 -62585 -51155 -29156 -2418 23724 44965 59247 65875 
3661.528 65809 60738 52852 44666 38801 37708 43474 57093 79031 107732 140312 
3666.832 172894 200573 217977 220529 205910 175413 135141 95535 67764 60374 
3671.654 75485 109356 151680 189369 208628 197490 149924 69653 -27765 
3675.993 -120723 -191141 -229922 -239161 -228001 -206574 -183291 -162127 
3679.851 -143744 -126288 -107307 -85212 -59935 -33033 -5897 20941 48179 
3684.190 76811 107997 140709 171568 195733 206739 199114 170839 124668 67499 
3689.012 8846 -42707 -81932 -108334 -123506 -130495 -131754 -128574 -122379 
3693.352 -113899 -104989 -97568 -93659 -94222 -98761 -104889 -109229 -108599 
3697.691 -101047 -86239 -66528 -45291 -27069 -15274 -12226 -18123 -31277 
3702.031 -48439 -66163 -81104 -91572 -96276 -94984 -87730 -75075 -57251 
3706.371 -35253 -10205 16368 42546 66173 84466 95005 95237 83903 60506 26806 
3711.675 -13319 -54303 -90744 -117510 -132118 -134801 -127547 -113568 -96541 
3716.014 -79978 -65600 -54833 -47677 -43535 -41514 -40752 -40852 -41216 
3720.354 -41514 -41316 -39692 -36147 -29985 -21337 -11132 -828 7322 11530 
3725.176 10437 3909 -6693 -17925 -25943 -26572 -17494 1656 29026 60772 91857 
3730.479 118569 137958 150023 156785 161558 166431 170972 171137 161724 
3734.819 138456 100440 52023 2021 -39560 -65600 -73783 -66064 -46484 -18753 
3739.641 15540 56894 106008 162784 223281 279409 318932 329643 302785 241614 
3744.463 162486 92022 53481 56331 96430 160199 231370 294064 336540 352191 
3749.284 340221 305470 256102 201170 147637 100871 65477 44965 42082 57292 
3754.106 88808 131562 179060 225137 263860 291113 305338 306531 295888 
3758.446 275630 248112 216551 184728 158277 141405 137693 147140 166364 
3762.785 189932 210617 223082 224209 215258 200341 186352 178927 181115 
3767.125 191789 206805 220695 228220 225900 213402 193446 170209 147869 
3771.465 129971 117741 110648 107466 106671 107135 108593 111377 116282 
3775.804 123143 131661 139417 143626 141339 130832 112173 88443 64317 45263 
3780.626 34957 34261 41353 52852 64317 72867 77474 79131 79528 81119 84831 
3785.930 90332 96265 101004 103622 104616 105279 106969 111543 119232 129739 
3790.752 141737 154034 165403 175281 182805 187181 187347 182010 170508 
3795.091 153271 133451 115354 105113 107400 124535 154730 192882 230541 
3799.431 258058 266910 251924 214562 163845 115222 84168 80390 105213 152145 
3804.253 209888 265086 305371 322414 313395 282360 240255 199744 171038 
3808.592 158442 161392 175645 197026 222751 252422 286836 326924 371923 
3812.932 418452 460343 490395 501740 490594 459115 416528 375902 349704 
3817.271 345460 363301 396762 434803 465948 479017 467043 429132 372321 
3821.611 310112 255737 219203 203225 204485 216783 232829 247548 257859 
3825.951 263793 267573 272182 279542 290119 302586 314124 322746 327255 
3830.290 328217 327918 329742 336507 350401 371458 398520 428767 459016 
3834.630 485851 506019 516767 516502 504327 481505 450492 415434 380578 
3838.969 349373 323840 304343 290218 279907 271916 264854 257262 248377 
3843.309 237536 225800 214164 205247 201899 206573 220927 245460 279542 
3847.649 322513 373415 432150 498688 572469 651041 729030 797074 842653 
3851.988 851052 811282 721529 594997 456827 334451 247283 200706 189932 
3856.328 205081 235845 273839 312665 348743 379650 404224 422001 433543 
3860.667 440508 444886 449098 455002 462333 469531 474141 473776 469099 
3865.007 462864 460243 465948 482135 506915 533885 554819 560359 544468 
3869.347 506848 455002 401405 358227 333058 326393 332959 345029 355574 
3873.686 360747 360946 359719 362704 373946 395004 424024 456230 486282 
3878.026 508407 518492 514777 498588 474407 448866 429165 421072 427241 
3882.365 446412 473677 502569 524895 533852 526222 503730 473810 446644 
3886.705 432415 436760 459248 493944 532359 565104 583982 584148 565800 
3891.045 533985 496897 463792 441702 433941 440607 459049 486448 519421 
3895.384 555283 592044 627614 659968 687180 707424 719339 723122 720168 
3899.724 712834 703674 694647 686217 677124 665012 647623 623698 593537 
3904.063 559928 527482 500446 482732 475634 479017 490893 508573 529473 
3908.403 551302 572668 592509 610227 625523 638232 648652 657213 665144 
3912.743 673474 683396 695543 709482 723952 737128 747285 752861 752894 
3917.082 747650 737692 724151 708154 691461 675498 662722 655189 654293 
3921.422 660167 671018 683629 693651 697468 692888 680675 663817 647457 
3925.761 636474 634084 641219 656085 675432 695310 712336 724051 729561 
3930.101 728366 721263 709116 693352 676029 659802 647656 641849 643508 
3934.441 652501 666638 683297 699658 713497 723819 730689 735203 738755 
3938.780 741908 745160 748015 749907 750139 748479 745061 740580 735767 
3943.120 731818 729694 730557 734738 742538 753292 765905 778485 789273 
3947.459 796410 799431 798269 794352 789439 785224 783066 783730 787248 
3951.799 793323 801223 810717 821108 831930 842719 852812 861709 869113 
3956.139 874857 879040 881829 883589 884551 885016 885647 887075 889897 
3960.478 894412 900688 907959 915131 920842 924063 924329 922237 918850 
3964.818 915563 913537 913338 914434 916260 917721 918086 917389 916393 
3969.157 916360 918717 924993 935851 951093 969589 989581 1008477 1023688 
3973.497 1033486 1036973 1034615 1028072 1020035 1013194 1009806 1010636 
3977.354 1015452 1022858 1030962 1038368 1044446 1049495 1054511 1060456 
3981.212 1068062 1077197 1086829 1095566 1102176 1105730 1106362 1104634 
3985.069 1102076 1099519 1098090 1097725 1098024 1097991 1096595 1093207 
3988.927 1087992 1081681 1075802 1072247 1072546 1077562 1086763 1098755 
3992.784 1111510 1122340 1129515 1131907 1129615 1123768 1116161 1108620 
3996.642 1102508 1098655 1096795 1096130 1095798 1094901 1092609 1088922 
4000.499 1084205 
##END=
