##TITLE=1541_2_b
##JCAMP-DX=5.01  $$ Nicolet v. 1
##DATATYPE=INFRARED SPECTRUM
##ORIGIN=UniL
##OWNER=Nicolet
##LONGDATE=2011/09/29
##TIME=14:16:07
##SPECTROMETER/DATA SYSTEM=Nicolet iS5
##DATA PROCESSING=
Ratio against background
%Transmittance->Absorbance
Truncated
ElementMultiply or ElementDivide
##COMMENTS=
Number of sample scans: 32
Collection length: 51.21 sec
Sample gain: 2.0
Background collected on: Jeu Sep 29 14:10:12 2011 (GMT+02:00);
Number of background scans: 32
Background gain: 2.0
Sample spacing:  1.000
Number of scan points: 12415
Resolution points: 8192
Number of FFT points: 65536
Apodization: N-B fort;
Phase correction: Mertz;
Laser frequency: 15798.0 cm-1
Number of rejected sample scans: 0
Number of rejected background scans: 0
Bench serial number: ASB1000141;
##RESOLUTION=4.000
##XUNITS=1/CM
##YUNITS=ABSORBANCE
##FIRSTX=649.893372
##LASTX=4000.122314
##FIRSTY=0.090936
##MAXX=4000.122314
##MINX=649.893372
##MAXY=0.242501
##MINY=-0.000758
##XFACTOR=1.000000
##YFACTOR=1.000000E-009
##NPOINTS=6950
##DELTAX=0.482117
##ZPD=6100
##XYDATA=(X++(Y..Y))
649.893 90935928 90155464 89523296 89051896 88717064 88472504 88265792 
653.268 88060152 87842648 87623104 87420648 87256120 87143112 87085656 
656.643 87084528 87142064 87262400 87449624 87700544 87999288 88317728 
660.018 88622544 88888128 89102016 89270296 89411536 89552168 89715160 
663.393 89914328 90153552 90428888 90728944 91034880 91320024 91546728 
666.767 91669432 91655312 91509624 91293000 91091240 90971384 90949904 
670.142 90997624 91061112 91084824 91030960 90883360 90653736 90371648 
673.517 90071024 89772360 89474552 89157912 88798160 88380392 87906824 
676.892 87396656 86875320 86364064 85870720 85391216 84914576 84432464 
680.267 83942152 83447064 82951176 82454120 81950360 81432512 80897840 
683.642 80353048 79813496 79299136 78824208 78391584 77990520 77602376 
687.016 77209872 76803656 76385880 75968736 75566432 75188368 74836424 
690.391 74506592 74194584 73901768 73637952 73417824 73257024 73165048 
693.766 73142232 73180544 73267920 73393960 73553720 73748512 73983904 
697.141 74266480 74600768 74988872 75431712 75929824 76483864 77093560 
700.516 77754136 78455368 79181312 79914088 80638088 81343472 82027792 
703.890 82692712 83339264 83962336 84549544 85083536 85549112 85938360 
707.265 86255488 86513808 86733360 86932864 87125704 87321344 87528168 
710.640 87756024 88021408 88342656 88735768 89207544 89749744 90337088 
714.015 90928296 91476824 91934800 92262040 92434664 92445528 92308832 
717.390 92057368 91744936 91440048 91215280 91143016 91280776 91659320 
720.765 92277936 93098648 94051152 95030664 95917744 96593864 96951600 
724.139 96925584 96503736 95736784 94727504 93614408 92544048 91628752 
727.514 90936544 90480960 90232504 90135928 90133328 90183072 90260480 
730.889 90357328 90472432 90603360 90743480 90885568 91025688 91167584 
734.264 91320808 91495960 91697296 91919408 92147816 92366208 92563976 
737.639 92740744 92906136 93074712 93257640 93457616 93668296 93878416 
741.013 94078880 94266976 94446656 94624816 94805640 94987568 95164384 
744.388 95329296 95480848 95625656 95776696 95946592 96141032 96356032 
747.763 96578216 96792320 96986760 97159544 97316136 97465824 97613600 
751.138 97758160 97892344 98008840 98105560 98189376 98272008 98366496 
754.513 98478336 98602728 98726984 98837136 98925416 98993664 99052520 
757.888 99114416 99188104 99274176 99366296 99457152 99544480 99632992 
761.262 99732992 99853696 99997624 100158832 100326784 100493000 100659024 
764.637 100838624 101056176 101338976 101707592 102172848 102733928 
767.530 103380088 104091648 104841768 105597304 106318120 106971424 
770.423 107545536 108068928 108616448 109301824 110249144 111535624 
773.315 113148344 114944368 116674672 118006176 118608296 118261824 
776.208 116899432 114639624 111728344 108487200 105213416 102107752 99271048 
779.583 96698008 94320040 92042048 89785808 87507624 85198912 82879744 
782.958 80584872 78355864 76230128 74241352 72417896 70779376 69337408 
786.332 68094272 67044908 66180288 65492072 64976804 64636952 64479144 
789.707 64510740 64738364 65166176 65798396 66643476 67716496 69036928 
793.082 70627000 72499400 74649712 77044144 79618304 82273320 84873280 
796.457 87266568 89284656 90759696 91559280 91597088 90861952 89422688 
799.832 87429480 85090392 82622168 80240040 78107232 76310704 74860944 
803.206 73689976 72679000 71677320 70550672 69210168 67630112 65854684 
806.581 63982436 62141228 60442052 58957544 57702280 56634700 55672220 
809.956 54717616 53693072 52550056 51280860 49910236 48481460 47041304 
813.331 45626004 44261784 42963868 41741128 40601564 39553016 38602660 
816.706 37754848 37010104 36364688 35812552 35347336 34963912 34657872 
820.081 34425284 34261076 34158724 34112704 34119768 34181776 34305824 
823.455 34504128 34790172 35175056 35664764 36257084 36941124 37694172 
826.830 38482952 39264472 39983452 40582500 41008496 41220736 41204780 
830.205 40976012 40582356 40092816 39590692 39161804 38874824 38779208 
833.580 38894280 39206480 39666776 40193776 40688484 41036572 41133268 
836.955 40906180 40323336 39405980 38220048 36867928 35459528 34093492 
840.329 32848514 31768586 30869106 30143522 29572630 29132862 28799990 
843.704 28553248 28373524 28244192 28152370 28089836 28053394 28044452 
847.079 28066046 28119776 28203318 28310180 28431642 28559828 28690600 
850.454 28824742 28967032 29124430 29302974 29507160 29739614 30002512 
853.829 30298574 30631744 31006516 31426388 31893230 32407772 32970682 
857.204 33584544 34255124 34991892 35807264 36714264 37727888 38863700 
860.578 40138204 41569176 43170996 44949332 46890756 48956480 51078852 
863.953 53156628 55074724 56713984 57965516 58756972 59058088 58889500 
867.328 58317580 57451688 56430908 55395728 54486652 53823756 53491584 
870.703 53545740 54006900 54864628 56078784 57582564 59286596 61070400 
874.078 62794588 64311704 65467836 66137724 66238672 65742916 64683712 
877.452 63147256 61260476 59158884 56978736 54840040 52827920 51000888 
880.827 49387656 47992640 46805460 45806824 44976744 44296640 43752656 
884.202 43334948 43035792 42846940 42758668 42759108 42837176 42985600 
887.577 43203752 43499032 43885224 44379424 44995268 45739820 46611496 
890.952 47601292 48696500 49884704 51157832 52513484 53953844 55483140 
894.327 57105204 58818888 60614792 62467920 64332724 66140620 67791088 
897.701 69164352 70135944 70585992 70433560 69647544 68256808 66343388 
901.076 64031848 61475564 58822832 56213552 53765704 51560344 49651652 
904.451 48065288 46803468 45852668 45188764 44784736 44612968 44650864 
907.826 44883156 45300076 45897888 46675944 47634868 48775456 50097164 
911.201 51595380 53259588 55067952 56981572 58947828 60898592 62758104 
914.575 64461120 65958768 67231544 68293024 69188480 69987096 70765304 
917.950 71602336 72560952 73676032 74947808 76335824 77763248 79117064 
921.325 80273680 81121080 81577096 81620840 81300840 80742344 80120208 
924.700 79646208 79540616 79981840 81096800 82932800 85450072 88516824 
928.075 91915352 95379480 98585064 101197656 102921816 103500592 102769352 
931.450 100673352 97272360 92739928 87336416 81399776 75275800 69287032 
934.824 63715220 58752308 54513736 51046168 48340112 46354792 45035624 
938.199 44329924 44185552 44544932 45339504 46468648 47797292 49169936 
941.574 50407924 51344736 51855796 51866248 51371700 50429988 49154056 
944.949 47680204 46144892 44672600 43349188 42224640 41316496 40616700 
948.324 40102480 39744868 39516472 39392412 39350580 39372712 39441032 
951.698 39539372 39654648 39777148 39902044 40029304 40162264 40306032 
955.073 40465300 40643692 40843124 41064612 41308548 41575560 41865424 
958.448 42177136 42508440 42856268 43217076 43588912 43971488 44366656 
961.823 44777204 45205388 45652060 46115816 46594048 47084104 47584692 
965.198 48096416 48620892 49160068 49714660 50284212 50867284 51463344 
968.573 52073372 52700488 53349380 54024500 54728852 55463752 56229316 
971.947 57026380 57857576 58727692 59643608 60611932 61637448 62722116 
975.322 63865580 65066360 66323584 67637584 69009936 70442752 71937904 
978.697 73497520 75125576 76829120 78619376 80512400 82525392 84674392 
982.072 86971408 89421464 92022064 94761544 97618416 100555144 103511816 
985.447 106407984 109132368 111551688 113532512 114944848 115689624 
988.339 115716528 115026792 113678072 111772096 109455176 106892976 
991.232 104252608 101701184 99375128 97376424 95772680 94592144 93833544 
994.607 93474752 93484696 93829472 94477592 95404200 96586656 98004112 
997.982 99637120 101464936 103466024 105618848 107894984 110256880 112654392 
1001.356 115016992 117259888 119293664 121027240 122389040 123334968 
1004.249 123853520 123969392 123740536 123258080 122628432 121972040 
1007.142 121412608 121055080 120987136 121269552 121932504 122983600 
1010.035 124413064 126203600 128334832 130787936 133547200 136596080 
1012.927 139917824 143495680 147312608 151352560 155598048 160018720 
1015.820 164563552 169147200 173637040 177869040 181654256 184801472 
1018.713 187164336 188657136 189282704 189133280 188393936 187322784 
1021.605 186199808 185326016 184969104 185325648 186525008 188607920 
1024.498 191539568 195219008 199506176 204245456 209263328 214394368 
1027.391 219477264 224343776 228839024 232821456 236173776 238823984 
1030.284 240745056 241954656 242500640 242452032 241887744 240882656 
1033.177 239513136 237847424 235935216 233803648 231447104 228828944 
1036.070 225886896 222552704 218773776 214522192 209807328 204670288 
1038.963 199179568 193417168 187474688 181453584 175452448 169568480 
1041.856 163889568 158477328 153366928 148564304 144051024 139797344 
1044.750 135775232 131971912 128394368 125070136 122038392 119347008 
1047.643 117040536 115153376 113710016 112720584 112181080 112073768 
1050.536 112369240 113028496 114003384 115246216 116710560 118352104 
1053.429 120132368 122010168 123935048 125846800 127666352 129300416 
1056.322 130656272 131641032 132178408 132219416 131742296 130760584 
1059.215 129321216 127510248 125444488 123259264 121109992 119142896 
1062.108 117485176 116243552 115487440 115254680 115553416 116364816 
1065.001 117645448 119325856 121319720 123517448 125792800 128023040 
1067.894 130086120 131878432 133326816 134381136 135016000 135224576 
1070.787 135011968 134392192 133386136 132022736 130336624 128366488 
1073.680 126159072 123765608 121246688 118678880 116146600 113745544 
1076.573 111577128 109730328 108281968 107287296 106772968 106738944 
1079.466 107155520 107967424 109087000 110398192 111769656 113048952 
1082.359 114090848 114781248 115048128 114885136 114351480 113570728 
1085.252 112704088 111928728 111427816 111352752 111819416 112899440 
1088.146 114608688 116907240 119694488 122826440 126110840 129326792 
1091.039 132265480 134729104 136564960 137682496 138047232 137682720 
1093.932 136655808 135071248 133051024 130717192 128190456 125569136 
1096.825 122926208 120313336 117758800 115274648 112861664 110512232 
1099.718 108211064 105934872 103656672 101346968 98981720 96550864 94063904 
1103.093 91553312 89068616 86675720 84445296 82441144 80721952 79332552 
1106.468 78302768 77651704 77385816 77501568 77985240 78814832 79959856 
1109.844 81379640 83027944 84850520 86781232 88748816 90669864 92450168 
1113.219 93999560 95229480 96067488 96468432 96413944 95915312 95005840 
1116.594 93739304 92180704 90396616 88458000 86428736 84360344 82294864 
1119.969 80258456 78265632 76324016 74437600 72612096 70856680 69182848 
1123.344 67603128 66128656 64767092 63523912 62404760 61417088 60573840 
1126.720 59893340 59396180 59104440 59035884 59199780 59595408 60210200 
1130.095 61020596 61989328 63069552 64206092 65333136 66386124 67306632 
1133.470 68049192 68593648 68947296 69147376 69249840 69325936 69449208 
1136.845 69679016 70057520 70600208 71293968 72097360 72944768 73759472 
1140.221 74453760 74945832 75170096 75076736 74639136 73850936 72722120 
1143.596 71276192 69546376 67577848 65421456 63134036 60777572 58408236 
1146.971 56078180 53831784 51700912 49709456 47872680 46198580 44691000 
1150.346 43349884 42172352 41153268 40285600 39561764 38973652 38514236 
1153.722 38178188 37961532 37860800 37873236 37995128 38222436 38551892 
1157.097 38980828 39509032 40137912 40870068 41707792 42652140 43701976 
1160.472 44853908 46101484 47434252 48838036 50290424 51760784 53212096 
1163.847 54598304 55870500 56982248 57888848 58553504 58949232 59057784 
1167.223 58872616 58399288 57655928 56670228 55477908 54120264 52636412 
1170.598 51064464 49439520 47791152 46146988 44532264 42968696 41476464 
1173.973 40072536 38769132 37575580 36497076 35535792 34692580 33967068 
1177.348 33358392 32865844 32488252 32223844 32071098 32028794 32097000 
1180.724 32277626 32573744 32988984 33526302 34187224 34971636 35878152 
1184.099 36904540 38047568 39301428 40657008 42097692 43598880 45129800 
1187.474 46650784 48118920 49491988 50726352 51784152 52634540 53255092 
1190.849 53637020 53785916 53723740 53484876 53113756 52661620 52176368 
1194.225 51701624 51272916 50912808 50633224 50435016 50310400 50244368 
1197.600 50216400 50204048 50181288 50120516 49994136 49771916 49424708 
1200.975 48927180 48259680 47413776 46395752 45227744 43944504 42590336 
1204.350 41214652 39861620 38569092 37365544 36267064 35281312 34408392 
1207.726 33643756 32980476 32410380 31925578 31518370 31182206 30912474 
1211.101 30706558 30564086 30486810 30477532 30538634 30671958 30877856 
1214.476 31155684 31503834 31919334 32397884 32932792 33514562 34131844 
1217.851 34772008 35422932 36074832 36721076 37357200 37980952 38591000 
1221.227 39186932 39769996 40344752 40920088 41508908 42128612 42797828 
1224.602 43533384 44349812 45256056 46254712 47341532 48504948 49725212 
1227.977 50972980 52212912 53403072 54497396 55454376 56235952 56813144 
1231.352 57169600 57302548 57226524 56972048 56590200 56148012 55719720 
1234.728 55388992 55235064 55325456 55718852 56457164 57568076 59068528 
1238.103 60964316 63251884 65915264 68926320 72239688 75789904 79499752 
1241.478 83273920 87003920 90580832 93887216 96807848 99245112 101117104 
1244.853 102373624 103000600 103019208 102480880 101456608 100036248 
1247.746 98314808 96386280 94344216 92264168 90198856 88171208 86169944 
1251.122 84154456 82062736 79833840 77419392 74799896 71991328 69045792 
1254.497 66043316 63072616 60227556 57588656 55210720 53125060 51333588 
1257.872 49813980 48522396 47402100 46391696 45426608 44451692 43425128 
1261.247 42319232 41124564 39846836 38504388 37121900 35728576 34354200 
1264.623 33024200 31760674 30580582 29494570 28508310 27622682 26834010 
1267.998 26135714 25519742 24978618 24505646 24096016 23745634 23450472 
1271.373 23206118 23007178 22848106 22724388 22632994 22572644 22542874 
1274.748 22543328 22572644 22628210 22705816 22799844 22903988 23009974 
1278.124 23107912 23187490 23237576 23248972 23216570 23139434 23021468 
1281.499 22868956 22688360 22484318 22258292 22010114 21740302 21451792 
1284.874 21152826 20855668 20575628 20329172 20130158 19989654 19916108 
1288.249 19915310 19992916 20154208 20403830 20744818 21177110 21697006 
1291.625 22295544 22958724 23667844 24396594 25113194 25782876 26367674 
1295.000 26835278 27163966 27345798 27389734 27319192 27169290 26977624 
1298.375 26781214 26612650 26495040 26444646 26469614 26570696 26741110 
1301.750 26966272 27226366 27496078 27748898 27962072 28116488 28200100 
1305.125 28208056 28141412 28006104 27812408 27574732 27309666 27035202 
1308.501 26769620 26527654 26319898 26152184 26025834 25940108 25894278 
1311.876 25888510 25924560 26004058 26127480 26293040 26497082 26735614 
1315.251 27005620 27306138 27638288 28004230 28405786 28843614 29317826 
1318.626 29828188 30375252 30960364 31584180 32244328 32933328 33637600 
1322.002 34336628 35003668 35611420 36132368 36544180 36835972 37010140 
1325.377 37086856 37101000 37102408 37146512 37281812 37546208 37954948 
1328.752 38499140 39147228 39853776 40570968 41254440 41874948 42419944 
1332.127 42892508 43308076 43690512 44068512 44469016 44916700 45430800 
1335.503 46021280 46688856 47423644 48208916 49020612 49832784 50620456 
1338.878 51359620 52028736 52611092 53093496 53469172 53737052 53901140 
1342.253 53968100 53944392 53834112 53637732 53352304 52972648 52494228 
1345.628 51915048 51236528 50464192 49606856 48676224 47684972 46648088 
1349.004 45582396 44506568 43444060 42422208 41470116 40621028 39906876 
1352.379 39355660 38991920 38832792 38887324 39154768 39622088 40262152 
1355.754 41030416 41871844 42722040 43512616 44184888 44689788 44993652 
1359.129 45081900 44958516 44646860 44185916 43633720 43061804 42544212 
1362.505 42156432 41957088 41977052 42217556 42650752 43229228 43891128 
1365.880 44572984 45212192 45747624 46129708 46321908 46304988 46080040 
1369.255 45665832 45093516 44397736 43614596 42778160 41918844 41069856 
1372.630 40268004 39551672 38962088 38533388 38284528 38215888 38309752 
1376.006 38538820 38873484 39291780 39782380 40344352 40985260 41719028 
1379.381 42564900 43543936 44678516 45984628 47462192 49082040 50773980 
1382.756 52433880 53921320 55082400 55780788 55900496 55374160 54196084 
1386.131 52440424 50262672 47873092 45512072 43378260 41594080 40202864 
1389.507 39179316 38460760 37969052 37632844 37389812 37187084 36983404 
1392.882 36743868 36441720 36063092 35608796 35094040 34541868 33974840 
1396.257 33407054 32841864 32276948 31711020 31150274 30612652 30123490 
1399.632 29708178 29384260 29155680 29015064 28947800 28940008 28981590 
1403.008 29068520 29202458 29388728 29632790 29937332 30300636 30717476 
1406.383 31180284 31681470 32215246 32778118 33368338 33984336 34624000 
1409.758 35283720 35958700 36644208 37336148 38031076 38725336 39413236 
1413.133 40086676 40735756 41350784 41926436 42463420 42969136 43455888 
1416.509 43938564 44432828 44952344 45509608 46115188 46772724 47478232 
1419.884 48217024 48965272 49694708 50378564 50997908 51542392 52016072 
1423.259 52436648 52833908 53241008 53684892 54180920 54729300 55321804 
1426.634 55946736 56596164 57265048 57948932 58641256 59330580 60001560 
1430.010 60641192 61243268 61812452 62362260 62912420 63481496 64083116 
1433.385 64725712 65415600 66162692 66985212 67911752 68977080 70213096 
1436.760 71630392 73213720 74926456 76720224 78542152 80331048 82019792 
1440.135 83521192 84733424 85561656 85919544 85749888 85031664 83775720 
1443.510 82021872 79829536 77279424 74461280 71462944 68376288 65286808 
1446.886 62279340 59447624 56881088 54653088 52805096 51336536 50214724 
1450.261 49391888 48829140 48505096 48416484 48566196 48947876 49533692 
1453.636 50278632 51118172 51981448 52803712 53526364 54114184 54565992 
1457.011 54923392 55250268 55603484 56018732 56503848 57052564 57655928 
1460.387 58307236 59001000 59727924 60472484 61206380 61887336 62468880 
1463.762 62905988 63173964 63279136 63260356 63173196 63065224 62966004 
1467.137 62880940 62798076 62695936 62549344 62330056 62000676 61513016 
1470.512 60809164 59831272 58548616 56984064 55229572 53419036 51685164 
1473.888 50115352 48737308 47540628 46504976 45622472 44904536 44374876 
1477.263 44051536 43937356 44015268 44256684 44631292 45118732 45714492 
1480.638 46426872 47271924 48263788 49411228 50716184 52179208 53805456 
1484.013 55608456 57606816 59815908 62236436 64838028 67545128 70243360 
1487.389 72770232 74929576 76523656 77361456 77303216 76300512 74416168 
1490.764 71821512 68744696 65424732 62046120 58716956 55489464 52369844 
1494.139 49350272 46439996 43672556 41111672 38837356 36917564 35386552 
1497.514 34236376 33431924 32925892 32675292 32648894 32823532 33179354 
1500.890 33695960 34348784 35108448 35944988 36819384 37685064 38484364 
1504.265 39132396 39519120 39515892 38999820 37914812 36320268 34386440 
1507.640 32313068 30248270 28258088 26348310 24503612 22716498 20993632 
1511.015 19361786 17855418 16500646 15311956 14286051 13407636 12655630 
1514.391 12009211 11450459 10963135 10534369 10155408 9823037 9540537 
1517.766 9313838 9146165 9033191 8961003 8907292 8849903 8775379 8688798 
1521.623 8613322 8578545 8603656 8687547 8812064 8951836 9086579 9206336 
1525.481 9315124 9427562 9562012 9729913 9932387 10161784 10408442 10666649 
1529.338 10937004 11224834 11535958 11872061 12229723 12601187 12978159 
1532.713 13357371 13743036 14144756 14569873 15019210 15483262 15947260 
1536.089 16393416 16805586 17172920 17486508 17741330 17934764 18065828 
1539.464 18133536 18139962 18093050 18006320 17895954 17774846 17646354 
1542.839 17503342 17332132 17119254 16859592 16561775 16245965 15936879 
1546.214 15652610 15396365 15157530 14917282 14658970 14375192 14073527 
1549.590 13773201 13497931 13263177 13070003 12907155 12758358 12610806 
1552.965 12461565 12318204 12195270 12105791 12053904 12031795 12021508 
1556.340 12000423 11941839 11819079 11611673 11315798 10959364 10598399 
1559.715 10295207 10086086 9972629 9933743 9940659 9966797 9989581 9994938 
1563.573 9978427 9945473 9909369 9885912 9886522 9912929 9957949 10008398 
1567.430 10051970 10081032 10095818 10103923 10117455 10147743 10200521 
1570.805 10276376 10371926 10482806 10604545 10731854 10857603 10970985 
1574.181 11059788 11113663 11130014 11119069 11103262 11109856 11156462 
1577.556 11245984 11367971 11508092 11653534 11797084 11938468 12081397 
1580.931 12231495 12392623 12565817 12748873 12938116 13128431 13313740 
1584.306 13486617 13636006 13749158 13813458 13819752 13766327 13660898 
1587.682 13521789 13373704 13244765 13162993 13150698 13224201 13393250 
1591.057 13659633 14015759 14441229 14904183 15358432 15749453 16026190 
1594.432 16144333 16078930 15827555 15411814 14870854 14251056 13601645 
1597.807 12963513 12367361 11836069 11384059 11019547 10744827 10557590 
1601.183 10451376 10418420 10452088 10547983 10703427 10915938 11179955 
1604.558 11485637 11819079 12162283 12495358 12799034 13052793 13237455 
1607.933 13336255 13334752 13224269 13003832 12681659 12275768 11812882 
1611.308 11326477 10847954 10402537 10004736 9656490 9350535 9073654 8812605 
1615.166 8556951 8303304 8057704 7833834 7648825 7515439 7439053 7415695 
1619.023 7435278 7483346 7544500 7605089 7654525 7688249 7709632 7729295 
1622.881 7761271 7816932 7901178 8010281 8135785 8267741 8399569 8528125 
1626.738 8652732 8774161 8892546 9008022 9120415 9231584 9344542 9463253 
1630.595 9590228 9724999 9863473 9997752 10117829 10213886 10276886 10301280 
1634.453 10286453 10239668 10174979 10111148 10065840 10048647 10060312 
1637.828 10094089 10139230 10183527 10215685 10228643 10220468 10195976 
1641.203 10163684 10133735 10112470 10100329 10091105 10073741 10035999 
1644.579 9967136 9861947 9723609 9564959 9405553 9267259 9169008 9120753 
1648.436 9123765 9171207 9251825 9349215 9441479 9502267 9499456 9403759 
1652.293 9206200 8938340 8671998 8477712 8387645 8387104 8439602 8508460 
1656.151 8568779 8609029 8626672 8626030 8613490 8594361 8570096 8538297 
1660.008 8494066 8432339 8349340 8244508 8120762 7984834 7846317 7715062 
1663.866 7599998 7506606 7435210 7381823 7337912 7292825 7234738 7153552 
1667.723 7043889 6907019 6751177 6590546 6440434 6312427 6212052 6138483 
1671.581 6086027 6046514 6009120 5962794 5896253 5801313 5677120 5533800 
1675.438 5391030 5269805 5183820 5133492 5108313 5092221 5070565 5036137 
1679.295 4990217 4942089 4903014 4881334 4875168 4872689 4852752 4793584 
1683.153 4680597 4518956 4336090 4172269 4058708 4002256 3989783 3999714 
1687.010 4014462 4022354 4018843 4004965 3983396 3957548 3930130 3904285 
1690.868 3883825 3872759 3873929 3886165 3903215 3912343 3898033 3845915 
1694.725 3751121 3624673 3494219 3392824 3340465 3335958 3358496 3378865 
1698.583 3365041 3293288 3158729 2983140 2810357 2681949 2618542 2612275 
1702.440 2641043 2679382 2707221 2712722 2691117 2646044 2587042 2526515 
1706.297 2474728 2437374 2415016 2404288 2400723 2400090 2399857 2399490 
1710.155 2400256 2404055 2412751 2426911 2446137 2468863 2493023 2517217 
1714.012 2539947 2559844 2574276 2578476 2566510 2533947 2480826 2415016 
1717.870 2351482 2307443 2294619 2315238 2362876 2425845 2491590 2549479 
1721.727 2593975 2623976 2642377 2654145 2664113 2675448 2688917 2704020 
1725.584 2719757 2735328 2750033 2762704 2771474 2774008 2769707 2759369 
1729.442 2747565 2739163 2738262 2743864 2748933 2739896 2699752 2614875 
1733.299 2483092 2321234 2161101 2038011 1971570 1959920 1985849 2027092 
1737.157 2064477 2083754 2078594 2050195 2006720 1959621 1919615 1893357 
1741.014 1882475 1884672 1896153 1913724 1934725 1957557 1981156 2005022 
1744.872 2028657 2052293 2076163 2100501 2125106 2148914 2170725 2188474 
1748.729 2200163 2204093 2199664 2187575 2170625 2153076 2140556 2137693 
1752.586 2146716 2166330 2192238 2216948 2231935 2230503 2208855 2169327 
1756.444 2119346 2070204 2032319 2010182 2002526 2001827 1998964 1985017 
1760.301 1955360 1910397 1855920 1800985 1754507 1722970 1708500 1709564 
1764.159 1722072 1741200 1761693 1778128 1786379 1784117 1772439 1755505 
1768.016 1740235 1732950 1736543 1748519 1761560 1766384 1754640 1723569 
1771.874 1678030 1630834 1595913 1582877 1593785 1622552 1660635 1699618 
1775.731 1734647 1764920 1791836 1817355 1841745 1862975 1877883 1884239 
1779.588 1881777 1873490 1864639 1859847 1861344 1867733 1874888 1878549 
1783.446 1875554 1866136 1852926 1840580 1833193 1832694 1839183 1851428 
1787.303 1867733 1887101 1908433 1930032 1948304 1958655 1955094 1933693 
1791.161 1893723 1839815 1780956 1727727 1688442 1666222 1659603 1663561 
1795.018 1672276 1681822 1689107 1692466 1690970 1683386 1668817 1646698 
1798.875 1617996 1585305 1552184 1522856 1500213 1485584 1478602 1477970 
1802.733 1482126 1490571 1502574 1518002 1535957 1554977 1573001 1588597 
1806.590 1601135 1610779 1618428 1624548 1629204 1631665 1630967 1627142 
1810.448 1621056 1615369 1612908 1616100 1625579 1639980 1657109 1674737 
1814.305 1691136 1706271 1721373 1738106 1757601 1780058 1804579 1829467 
1818.163 1853092 1874189 1892758 1908999 1923509 1937154 1950268 1962516 
1822.020 1973400 1981389 1984784 1982687 1975098 1963814 1953097 1947905 
1825.877 1952398 1967842 1991807 2018437 2039742 2048398 2040441 2016806 
1829.735 1984551 1953130 1932395 1927702 1939052 1961817 1990110 2018670 
1833.592 2045069 2069471 2093742 2120511 2151045 2185211 2221943 2260045 
1837.450 2299649 2342088 2389662 2444638 2508319 2580276 2658445 2739729 
1841.307 2820829 2897974 2968595 3030951 3085842 3136434 3188334 3247751 
1845.165 3319363 3403844 3497961 3595138 3687658 3767899 3831273 3876336 
1849.022 3904787 3920133 3926017 3924814 3916689 3900708 3875768 3841235 
1852.879 3798014 3747411 3690566 3627580 3558055 3481460 3398634 3312385 
1856.737 3227055 3147081 3075864 3014068 2959120 2907815 2856749 2804421 
1860.594 2751667 2700586 2653545 2611942 2575576 2543446 2514918 2490357 
1864.452 2470896 2457966 2451369 2448770 2446071 2438707 2423813 2402689 
1868.309 2380033 2362576 2356513 2364575 2385130 2412984 2442106 2468396 
1872.167 2489057 2504253 2514185 2519750 2520616 2516684 2507953 2496022 
1876.024 2483026 2472029 2464431 2459732 2455401 2447737 2433709 2412484 
1879.881 2385930 2357345 2330695 2308376 2290555 2275466 2261111 2246189 
1883.739 2230836 2217148 2207157 2202694 2203493 2207656 2212319 2214916 
1887.596 2213251 2206358 2194235 2177985 2159536 2141389 2126771 2118680 
1891.454 2119013 2128070 2143786 2162400 2179317 2191272 2197199 2199364 
1895.311 2201362 2207556 2220245 2238929 2260744 2282095 2300448 2315671 
1899.168 2329829 2345952 2366374 2391627 2420114 2449136 2476194 2500521 
1903.026 2522716 2544213 2565777 2587009 2606675 2622742 2634009 2640743 
1906.883 2644144 2645877 2647210 2647911 2647244 2644910 2641477 2638510 
1910.741 2638743 2643544 2652578 2663612 2672947 2677048 2675247 2668180 
1914.598 2658445 2648311 2638643 2628009 2613975 2594742 2570776 2545446 
1918.456 2523916 2510152 2504987 2505820 2507119 2503587 2492290 2473528 
1922.313 2451635 2431976 2418482 2412651 2412351 2413950 2414550 2412984 
1926.170 2410152 2407753 2407053 2407653 2408153 2406853 2403955 2401323 
1930.028 2401889 2407753 2418581 2431076 2440106 2440872 2432309 2416816 
1933.885 2400656 2389595 2387796 2395059 2407620 2420081 2429544 2435708 
1937.743 2442039 2452468 2469629 2492356 2516517 2535914 2546446 2546879 
1941.600 2540980 2535314 2535447 2545846 2567110 2597042 2632876 2672347 
1945.458 2714923 2759436 2804221 2845776 2879829 2903245 2915587 2919156 
1949.315 2919356 2920957 2926661 2936736 2947978 2956785 2962089 2964758 
1953.172 2968828 2978470 2995318 3017505 3039426 3054375 3056644 3044732 
1957.030 3020541 2988712 2954983 2924393 2899609 2882965 2876694 2882898 
1960.887 2904245 2941406 2991881 3051672 3113240 3171011 3221280 3263108 
1964.745 3297161 3324839 3345440 3357728 3359231 3350482 3334789 3319397 
1968.602 3311250 3314555 3329180 3349748 3368380 3378799 3377864 3367779 
1972.459 3353821 3342001 3335190 3334889 3340599 3353821 3378732 3422712 
1976.317 3491480 3585616 3698252 3813590 3912544 3981924 4014529 4014730 
1980.174 3992558 3961326 3931668 3908197 3890946 3877540 3865170 3851965 
1984.032 3838226 3823518 3806170 3783274 3751355 3710048 3662162 3615017 
1987.889 3578199 3558723 3559458 3577598 3605161 3634062 3657484 3674158 
1991.747 3685587 3695745 3707442 3720374 3732372 3740159 3741897 3737953 
1995.604 3731102 3723650 3718035 3714459 3711886 3709881 3709580 3713290 
1999.461 3724318 3743735 3769470 3795674 3814994 3820844 3810549 3786716 
2003.319 3755466 3725020 3702596 3692170 3695679 3711686 3737853 3772578 
2007.176 3813223 3855843 3896161 3928291 3948587 3957381 3958584 3959052 
2011.034 3966475 3985670 4016201 4053223 4089478 4118612 4138348 4149855 
2014.891 4157449 4164809 4173473 4181134 4184479 4180431 4168722 4153133 
2018.749 4139184 4131724 4133765 4144503 4160460 4178424 4196590 4215092 
2022.606 4235300 4258153 4282346 4304967 4323272 4334952 4341712 4346565 
2026.463 4353426 4364504 4378929 4392585 4400886 4400986 4392886 4380201 
2030.321 4368554 4362697 4364939 4375315 4391916 4412902 4438242 4468102 
2034.178 4502819 4540518 4576848 4606583 4624667 4628954 4621720 4606952 
2038.036 4590108 4574303 4560608 4547650 4534123 4520027 4508343 4503388 
2041.893 4508376 4524782 4548955 4573934 4591916 4596571 4585554 4561177 
2045.750 4528498 4494851 4465993 4445807 4435564 4434191 4437907 4440786 
2049.608 4436635 4418459 4381339 4325615 4256882 4185216 4123596 4084060 
2053.465 4073256 4091151 4128948 4174510 4215125 4242360 4254238 4254071 
2057.323 4248115 4241624 4237341 4234732 4231252 4226099 4219542 4214021 
2061.180 4212549 4216564 4224828 4234230 4241423 4244736 4245037 4245874 
2065.038 4249688 4257986 4268961 4278096 4280472 4273311 4257283 4236438 
2068.895 4215661 4198932 4187156 4178458 4168522 4154271 4134434 4110785 
2072.752 4086903 4066668 4052386 4044661 4042353 4044092 4049075 4057035 
2076.610 4068039 4080983 4093459 4102188 4104229 4098342 4085933 4069945 
2080.467 4054326 4042387 4034594 4030347 4027304 4024461 4021317 4019411 
2084.325 4020381 4025197 4033123 4041885 4048440 4050447 4047035 4038474 
2088.182 4026635 4012489 3996370 3977845 3956344 3932303 3907763 3885697 
2092.040 3869717 3862095 3863231 3871622 3884594 3899070 3912410 3923243 
2095.897 3930130 3931468 3926118 3913145 3892952 3868246 3843742 3824688 
2099.754 3816198 3820510 3836956 3862529 3892751 3923878 3953870 3982526 
2103.612 4010449 4038607 4066835 4093726 4118244 4139719 4158452 4175614 
2107.469 4192642 4209571 4226200 4240654 4251796 4259157 4264143 4268426 
2111.327 4274348 4282748 4293155 4303695 4312296 4317851 4320562 4321934 
2115.184 4323841 4327589 4333781 4341545 4350180 4359417 4369491 4381439 
2119.042 4396166 4413572 4432819 4452301 4470278 4486380 4501078 4515742 
2122.899 4531444 4548286 4564693 4578120 4586525 4588333 4583645 4574537 
2126.756 4564023 4554313 4547181 4542996 4541321 4540451 4538676 4534290 
2130.614 4525585 4511456 4492306 4470412 4450527 4438208 4438978 4456419 
2134.471 4488758 4530071 4571791 4604608 4622524 4625471 4617802 4607454 
2138.329 4601862 4605914 4620280 4642618 4668874 4695736 4722063 4748091 
2142.186 4773182 4797035 4816935 4828829 4830605 4821693 4803366 4779513 
2146.043 4753015 4724442 4693157 4656148 4611473 4559135 4501379 4442091 
2149.901 4384853 4330903 4278899 4226802 4172905 4117307 4063123 4014830 
2153.758 3974902 3943738 3917893 3892684 3866140 3841502 3826961 3836856 
2157.616 3884861 3978781 4116672 4286696 4470713 4647842 4802830 4924897 
2161.473 5009623 5058731 5075928 5069156 5046060 5015154 4983715 4955696 
2165.331 4931064 4906634 4877112 4836971 4783701 4719048 4647976 4576814 
2169.188 4511758 4456285 4410593 4373440 4342716 4317048 4296066 4280606 
2173.045 4269195 4260529 4251060 4238312 4220780 4199434 4176149 4153368 
2176.903 4131591 4109012 4082622 4050246 4012622 3973330 3939626 3917960 
2180.760 3912644 3923075 3943872 3966877 3984667 3992491 3989248 3977009 
2184.618 3958684 3937452 3915452 3894222 3875534 3862295 3857815 3863900 
2188.475 3881117 3905957 3932972 3957481 3975805 3987074 3994832 4002557 
2192.333 4013459 4029076 4047604 4066968 4085063 4101586 4117140 4133497 
2196.190 4150692 4166481 4177822 4181402 4175514 4161095 4142562 4122927 
2200.047 4105767 4090950 4075932 4057537 4033992 4005767 3977109 3953736 
2203.905 3940629 3940462 3952432 3972795 3996972 4021017 4042454 4060580 
2207.762 4075598 4087037 4094796 4098442 4098342 4096502 4095566 4098543 
2211.620 4107239 4121623 4139117 4156211 4169894 4177990 4179863 4176919 
2215.477 4170295 4160560 4148651 4134802 4120117 4106470 4096536 4092154 
2219.334 4094328 4102188 4113528 4125737 4136575 4145573 4152565 4158218 
2223.192 4162166 4163169 4159088 4147815 4128011 4100282 4065765 4026233 
2227.049 3984299 3940830 3897699 3857582 3823317 3799719 3790761 3798114 
2230.907 3820577 3854005 3891882 3927689 3957314 3979751 3996437 4010950 
2234.764 4026033 4042855 4060982 4078240 4092522 4103259 4110417 4115267 
2238.622 4119014 4122225 4124499 4125937 4126573 4127543 4130453 4136709 
2242.479 4145975 4157683 4169626 4179495 4187055 4192642 4198062 4205690 
2246.336 4216966 4231653 4248584 4265515 4280238 4291615 4299212 4302758 
2250.194 4302156 4297170 4287633 4274114 4258622 4243632 4232925 4229044 
2254.051 4232289 4241189 4252766 4262604 4267222 4265113 4255610 4239918 
2257.909 4219508 4196122 4170796 4145038 4120117 4097940 4080013 4067671 
2261.766 4061483 4060948 4065296 4073390 4085164 4100717 4119482 4141024 
2265.624 4162902 4182372 4196356 4202947 4202010 4195119 4185450 4175949 
2269.481 4168388 4163805 4161396 4159723 4158118 4155709 4152665 4149153 
2273.338 4144369 4137879 4129115 4117742 4105266 4094361 4087371 4086936 
2277.196 4094094 4108243 4127275 4148852 4171198 4192642 4213151 4232423 
2281.053 4250324 4266619 4280573 4292151 4302089 4311359 4321097 4332275 
2284.911 4344022 4354966 4363299 4367583 4367248 4363299 4357643 4352054 
2288.768 4348004 4346297 4346565 4348272 4351217 4355032 4360153 4366479 
2292.625 4373708 4381339 4388334 4394091 4398844 4403463 4408752 4415547 
2296.483 4424216 4433857 4443665 4452703 4460837 4468604 4477074 4486950 
2300.340 4498567 4511323 4523978 4535261 4544268 4550730 4554949 4557527 
2304.198 4558967 4559302 4558934 4557996 4557460 4558298 4561981 4568945 
2308.055 4579158 4591180 4602766 4611908 4617601 4619242 4617802 4615023 
2311.913 4612678 4612209 4614487 4619644 4627849 4638532 4651325 4665827 
2315.770 4681501 4697645 4713589 4728830 4743099 4756398 4769296 4781791 
2319.627 4794723 4808693 4824239 4841561 4860224 4878251 4892124 4897586 
2323.485 4890113 4866021 4824474 4767621 4700023 4628552 4559938 4499805 
2327.342 4451331 4415011 4389037 4371432 4359551 4352020 4348473 4348975 
2331.200 4353493 4361726 4372771 4386058 4401321 4418760 4438811 4461674 
2335.057 4487016 4513666 4540652 4566970 4592586 4618036 4644392 4672090 
2338.915 4700995 4730036 4757337 4781758 4802830 4821056 4837239 4852182 
2342.772 4865116 4874733 4879491 4878419 4872756 4866557 4864915 4874264 
2346.629 4899060 4941385 5000406 5073012 5154347 5238850 5322094 5399753 
2350.487 5468600 5527289 5575347 5613744 5644256 5668761 5688769 5705085 
2354.344 5717775 5726874 5732749 5737080 5741411 5748596 5760449 5778345 
2358.202 5802354 5831603 5864850 5901023 5939280 5978918 6019636 6060760 
2362.059 6101451 6140432 6177131 6210875 6241597 6269464 6294138 6314814 
2365.917 6330884 6341676 6347493 6349275 6348636 6347325 6346350 6345308 
2369.774 6343391 6339155 6332128 6322143 6310948 6300223 6291853 6287549 
2373.631 6287987 6293433 6304594 6322244 6347493 6381721 6425705 6479378 
2377.489 6542140 6612851 6690370 6774297 6864266 6960078 7060896 7165274 
2381.346 7270620 7374308 7473941 7567831 7655806 7738267 7815751 7888593 
2385.204 7956014 8016526 8068235 8109790 8140815 8161917 8174882 8181466 
2389.061 8183863 8183661 8181634 8178157 8173126 8165698 8155164 8140039 
2392.918 8119108 8091493 8057637 8018719 7977409 7936981 7900673 7871250 
2396.776 7850332 7838220 7834340 7837950 7847835 7863221 7883700 7908467 
2400.633 7937150 7969377 8004780 8043224 8085552 8132207 8184403 8242954 
2404.491 8308336 8381057 8461090 8547725 8640428 8737952 8839420 8943685 
2408.348 9050310 9159905 9273623 9393466 9521571 9658489 9803685 9954321 
2412.206 10106196 10254459 10394833 10524219 10640842 10744589 10835929 
2415.581 10915054 10982403 11037662 11080488 11111114 11130082 11138479 
2418.956 11138071 11130252 11116689 11099047 11078279 11055438 11031069 
2422.331 11005002 10976830 10946043 10912540 10877341 10842756 10812149 
2425.707 10789492 10778012 10779608 10794451 10821253 10857943 10902924 
2429.082 10955557 11016387 11086776 11167987 11260572 11363788 11476315 
2432.457 11596426 11723005 11855580 11994734 12141055 12295367 12457951 
2435.832 12628476 12806404 12991712 13183895 13383170 13589953 13803984 
2439.208 14025136 14253933 14490078 14734546 14988445 15253096 15529482 
2442.583 15818758 16120950 16436119 16763775 17103260 17453048 17811852 
2445.958 18177516 18547430 18919980 19293230 19666490 20039480 20412026 
2449.333 20783920 21154252 21521316 21883360 22238972 22586988 22926516 
2452.708 23256838 23576636 23883400 24173742 24443948 24690016 24908992 
2456.084 25098694 25257400 25383738 25476312 25532638 25550454 25527016 
2459.459 25460326 25349244 25193454 24993602 24751256 24468800 24149080 
2462.834 23795926 23414032 23008016 22583150 22144576 21696832 21245024 
2466.209 20794102 20349242 19916212 19500526 19107706 18741916 18406506 
2469.585 18102894 17831770 17592904 17385620 17209252 17062698 16944130 
2472.960 16850638 16778308 16722623 16678756 16643053 16612757 16586594 
2476.335 16564080 16545286 16529556 16516615 16505051 16493659 16481509 
2479.710 16467778 16451947 16433744 16412649 16388047 16359627 16327286 
2483.086 16290888 16251124 16208507 16163558 16117098 16069680 16021548 
2486.461 15973901 15927495 15883192 15841473 15802264 15764467 15726812 
2489.836 15688198 15647594 15605003 15560595 15515300 15469459 15423452 
2493.211 15377312 15330148 15281856 15231579 15178975 15123666 15064523 
2496.587 15000929 14932097 14857482 14777257 14692214 14603727 14512964 
2499.962 14421020 14328410 14235135 14141094 14046764 13952660 13860185 
2503.337 13771149 13686714 13607936 13535018 13467580 13404766 13345651 
2506.712 13289414 13234961 13181675 13128739 13075534 13022098 12968600 
2510.088 12915586 12864252 12814970 12767708 12722157 12677087 12631137 
2513.463 12583621 12533928 12482127 12429207 12375986 12323454 12273007 
2516.838 12225293 12181093 12141294 12106369 12076525 12051485 12030739 
2520.213 12013503 11999163 11987411 11978691 11973446 11972799 11977057 
2523.589 11986798 12001649 12020963 12043684 12068348 12093388 12116966 
2526.964 12137512 12153764 12165214 12172437 12176356 12178810 12180991 
2530.339 12183615 12186341 12188863 12190022 12189544 12188113 12186614 
2533.714 12186579 12189272 12194588 12201915 12210059 12217863 12225088 
2537.090 12232143 12240254 12250922 12265441 12284289 12307126 12333714 
2540.465 12362998 12394737 12428389 12463202 12498121 12532087 12563395 
2543.840 12590648 12613672 12632877 12649728 12665591 12682000 12699263 
2547.215 12717414 12735259 12751739 12765660 12776512 12784428 12789956 
2550.591 12794427 12798556 12803880 12811387 12821625 12834764 12850497 
2553.966 12867664 12885139 12901455 12915381 12926100 12933302 12936579 
2557.341 12935794 12931083 12922379 12909885 12894594 12876982 12857972 
2560.716 12837904 12816574 12792925 12766036 12734474 12698172 12657267 
2564.092 12613330 12567864 12522504 12478615 12436538 12396953 12359929 
2567.467 12325908 12295776 12270451 12250342 12236062 12227269 12223656 
2570.842 12224849 12230405 12240015 12253307 12269530 12287220 12304945 
2574.217 12321647 12336441 12350214 12364327 12380316 12399851 12423649 
2577.593 12451268 12481343 12512580 12543546 12573696 12603779 12634445 
2580.968 12667024 12702744 12742253 12785520 12832511 12882170 12933644 
2584.343 12985738 13037633 13088852 13139325 13189737 13241178 13294641 
2587.718 13350537 13408457 13467101 13524763 13579628 13630912 13679123 
2591.094 13725596 13772415 13821325 13873047 13927239 13982498 14036258 
2594.469 14086979 14133426 14175497 14214422 14252187 14290742 14332383 
2597.844 14378720 14430850 14488571 14551439 14617983 14686388 14754906 
2601.219 14822304 14887861 14952296 15016432 15081744 15149810 15221318 
2604.594 15296820 15376523 15459983 15546995 15637530 15731210 15827589 
2607.970 15926396 16026601 16127551 16228663 16329592 16429512 16528180 
2611.345 16624840 16717803 16805862 16886876 16959532 17023170 17077586 
2614.720 17123078 17160888 17192050 17217700 17238834 17256208 17270206 
2618.095 17281102 17289066 17293962 17296066 17295788 17293652 17290996 
2621.471 17289032 17288654 17290996 17296274 17304376 17314856 17327410 
2624.846 17341858 17358412 17377550 17399554 17425144 17454462 17487714 
2628.221 17525040 17566406 17612020 17661572 17715170 17771774 17830840 
2631.596 17891190 17951858 18012364 18072566 18132360 18192374 18252774 
2634.972 18314254 18377126 18441976 18509258 18579142 18651770 18726558 
2638.347 18802946 18879834 18956496 19032164 19106842 19180666 19253778 
2641.722 19326658 19399134 19470862 19541838 19611786 19681362 19750950 
2645.097 19821660 19893874 19967868 20043574 20120542 20198360 20277230 
2648.473 20357090 20438560 20522304 20608670 20698006 20790246 20885600 
2651.848 20983964 21085482 21190086 21297324 21406644 21517104 21627732 
2655.223 21738040 21848096 21958216 22069722 22183700 22300984 22422070 
2658.598 22546992 22675128 22806060 22938954 23073180 23208320 23343330 
2661.974 23477262 23609486 23739230 23866036 23990326 24112760 24234034 
2665.349 24355204 24476898 24599154 24722002 24845098 24968158 25091182 
2668.724 25214698 25338952 25464646 25592520 25722966 25856086 25991884 
2672.099 26129556 26268504 26407390 26545618 26682126 26816316 26947938 
2675.475 27076674 27202450 27325368 27445462 27563436 27679676 27795064 
2678.850 27910624 28027274 28146008 28267424 28392342 28521402 28655806 
2682.225 28796770 28945888 29104268 29272774 29451910 29641482 29841106 
2685.600 30050410 30268590 30495836 30731452 30975416 31226816 31484988 
2688.976 31749122 32018732 32293722 32574210 32860700 33153496 33452536 
2692.351 33757336 34067404 34381992 34701300 35025436 35355064 35690912 
2695.726 36033036 36381368 36735608 37095084 37459624 37829420 38204816 
2699.101 38586400 38974412 39367960 39765964 40166624 40567876 40967856 
2702.477 41365036 41758312 42146868 42529924 42906552 43275420 43635256 
2705.852 43983880 44318916 44637824 44937900 45216640 45471712 45701496 
2709.227 45904776 46081404 46231308 46354976 46453276 46527216 46577596 
2712.602 46605592 46611752 46596592 46559856 46500844 46418540 46311956 
2715.978 46180412 46023416 45841696 45636384 45408840 45161264 44896160 
2719.353 44615832 44322988 44020548 43711288 43398248 43084636 42773736 
2722.728 42468792 42173852 41891876 41626392 41379760 41153524 40948412 
2726.103 40764836 40602036 40459516 40337224 40235320 40154160 40093944 
2729.479 40054844 40035948 40036460 40054628 40089076 40138348 40201412 
2732.854 40277164 40365076 40464352 40573876 40693108 40821068 40956788 
2736.229 41099540 41248136 41401192 41556852 41713264 41868344 42020524 
2739.604 42168884 42312732 42451764 42586240 42715784 42840468 42960504 
2742.979 43076404 43189332 43301044 43413080 43526940 43643576 43762952 
2746.355 43884272 44006944 44130092 44253164 44376088 44498860 44620936 
2749.730 44741648 44859752 44974100 45083772 45188584 45289228 45387100 
2753.105 45484224 45582728 45684232 45790220 45901132 46017412 46138844 
2756.480 46264920 46394868 46528136 46663732 46800256 46936376 47069924 
2759.856 47198596 47319844 47430964 47529280 47612312 47678240 47725132 
2763.231 47751912 47757196 47740296 47700944 47639196 47556304 47454428 
2766.606 47336176 47204616 47062796 46913528 46759072 46601976 46444348 
2769.981 46288880 46138588 45995936 45863276 45742028 45632300 45533340 
2773.357 45443864 45362672 45288160 45219616 45156560 45098476 45044808 
2776.732 44994496 44945544 44895796 44842116 44781172 44709436 44623172 
2780.107 44519416 44395868 44252208 44089088 43908868 43715280 43511956 
2783.482 43303024 43091992 42881612 42673600 42470108 42271608 42079072 
2786.858 41892680 41712312 41537016 41365584 41196764 41029284 40862532 
2790.233 40696164 40530696 40366932 40205736 40048160 39895180 39747556 
2793.608 39605788 39470600 39342132 39220224 39104948 38995692 38891528 
2796.983 38791884 38695452 38601180 38507536 38413232 38317100 38218384 
2800.359 38116616 38011724 37904436 37795152 37684632 37572944 37460056 
2803.734 37345288 37228488 37109592 36988596 36866052 36743000 36620200 
2807.109 36498880 36379712 36263496 36150952 36042900 35939584 35841556 
2810.484 35749012 35661920 35579668 35502064 35428468 35358336 35291156 
2813.860 35226616 35164132 35103524 35044580 34987904 34934108 34884772 
2817.235 34842188 34808300 34785972 34777788 34785972 34812644 34859640 
2820.610 34928112 35018900 35131836 35266364 35421100 35593584 35781716 
2823.985 35982528 36193192 36410912 36632568 36855052 37075416 37290076 
2827.361 37496068 37690336 37870452 38033788 38178476 38302804 38405776 
2830.736 38486720 38545808 38584336 38603820 38607116 38596396 38574524 
2834.111 38544180 38508008 38469124 38430212 38393648 38361760 38335884 
2837.486 38316520 38303528 38296688 38296832 38305484 38325496 38361432 
2840.862 38418116 38500836 38614396 38763520 38952740 39187076 39472452 
2844.237 39815100 40221692 40697436 41245040 41861808 42538404 43258580 
2847.612 43996128 44718324 45388020 45963672 46407776 46689516 46787708 
2850.987 46695128 46418172 45976380 45397656 44716964 43972296 43197788 
2854.363 42425972 41684160 40991560 40362788 39805400 39321200 38907548 
2857.738 38557940 38263832 38015416 37803140 37618828 37455396 37307808 
2861.113 37171708 37044164 36922616 36805172 36690252 36577448 36466624 
2864.488 36359284 36257808 36165752 36087288 36026552 35987820 35974032 
2867.864 35987388 36028604 36096688 36189952 36305460 36439236 36586676 
2871.239 36742320 36899996 37053908 37198092 37328460 37442608 37540860 
2874.614 37625512 37701000 37773172 37846736 37926312 38015088 38114228 
2877.989 38224100 38344388 38474304 38613452 38762180 38920736 39090232 
2881.365 39271364 39464540 39669348 39884356 40106408 40331768 40555324 
2884.740 40772076 40976996 41166236 41337412 41489440 41623400 41741276 
2888.115 41846780 41944388 42039356 42137412 42244436 42366496 42510048 
2891.490 42681900 42889768 43143364 43453544 43833652 44297964 44860888 
2894.865 45535512 46330464 47247284 48276564 49396900 50571540 51748132 
2898.241 52865456 53855300 54649632 55195028 55454868 55418052 55098084 
2901.616 54533308 53778788 52893860 51941940 50978200 50045552 49177544 
2904.991 48396296 47714332 47138800 46672144 46313764 46061768 45913656 
2908.366 45867028 45920396 46073148 46325188 46676388 47125204 47667812 
2911.742 48296448 48999840 49761100 50558544 51367676 52159220 52902808 
2915.117 53571080 54138432 54587372 54908616 55101696 55173700 55137316 
2918.492 55008376 54802108 54531732 54207800 53837220 53424356 52972084 
2921.867 52482412 51958144 51403476 50824784 50230832 49633152 49043312 
2925.243 48474276 47937392 47441164 46991608 46591172 46239192 45932804 
2928.618 45667964 45439520 45242376 45071128 44920780 44785800 44660888 
2931.993 44540968 44420640 44295576 44161452 44015120 43854472 43678744 
2935.368 43488408 43285304 43072196 42852316 42629004 42405624 42185532 
2938.744 41971832 41768524 41579532 41409284 41261872 41140520 41046876 
2942.119 40980564 40938836 40916556 40905924 40897296 40879896 40841492 
2945.494 40771132 40659376 40500292 40292108 40038784 39749336 39435444 
2948.869 39111620 38791740 38487264 38206732 37954732 37732188 37537284 
2952.245 37366700 37215636 37079604 36954000 36835000 36719056 36603688 
2955.620 36486840 36367176 36244084 36117464 35987388 35854508 35719800 
2958.995 35584160 35448636 35314340 35182208 35052844 34927000 34805392 
2962.370 34689024 34579288 34477548 34385436 34304140 34234980 34178120 
2965.746 34134208 34103348 34085860 34082344 34093028 34118256 34157760 
2969.121 34210524 34275132 34350184 34434036 34525868 34625540 34732812 
2972.496 34848112 34971456 35101908 35237508 35374760 35508612 35632104 
2975.871 35737104 35814424 35854508 35849000 35791360 35677744 35508428 
2979.247 35286704 35020048 34717952 34392072 34055288 33719196 33394530 
2982.622 33090022 32811418 32561102 32338910 32142096 31966302 31806696 
2985.997 31659480 31521968 31393406 31274456 31166578 31070116 30983566 
2989.372 30902192 30817702 30719504 30594910 30432964 30225818 29971058 
2992.748 29672204 29339414 28987292 28631280 28286626 27964864 27672188 
2996.123 27409992 27175534 26963662 26768632 26585420 26410454 26241542 
2999.498 26077516 25917456 25760830 25607494 25457198 25310854 25169438 
3002.873 25034316 24906502 24786124 24672796 24565178 24462174 24362844 
3006.249 24267144 24175878 24090378 24011862 23941028 23877728 23820812 
3009.624 23768732 23719526 23671798 23624634 23577580 23531022 23485376 
3012.999 23441310 23399450 23359972 23323470 23290258 23260962 23236564 
3016.374 23217584 23204756 23198254 23197520 23201504 23208634 23217200 
3019.750 23225728 23233314 23239534 23244324 23247748 23249672 23249498 
3023.125 23246246 23239326 23228454 23214508 23199654 23186650 23178856 
3026.500 23179136 23189166 23209508 23238766 23274282 23312914 23350602 
3029.875 23384030 23410394 23427670 23434910 23432358 23420888 23402352 
3033.250 23378644 23351790 23323682 23295886 23269772 23246560 23227160 
3036.626 23212306 23202450 23197346 23196508 23198848 23203638 23209894 
3040.001 23217444 23226462 23237612 23251664 23269386 23291238 23317212 
3043.376 23347070 23380322 23416304 23454074 23492686 23530812 23567294 
3046.751 23601544 23633310 23663506 23693458 23724986 23759774 23798448 
3050.127 23840834 23885710 23930942 23974252 24013648 24047896 24076580 
3053.502 24100256 24120044 24137698 24154896 24173324 24194236 24218340 
3056.877 24245842 24276430 24309506 24344446 24380858 24418534 24457584 
3060.252 24498318 24540564 24583936 24627662 24671078 24713796 24756306 
3063.628 24799840 24846116 24896992 24953770 25016590 25084864 25156622 
3067.003 25229834 25302318 25372568 25439666 25503262 25563422 25620744 
3070.378 25675542 25728520 25780238 25831294 25882356 25934022 25986854 
3073.753 26041066 26097114 26155456 26216164 26279558 26345880 26414714 
3077.129 26485144 26556150 26626248 26694246 26759292 26821602 26881770 
3080.504 26941134 27001282 27063096 27127072 27192750 27258754 27323426 
3083.879 27385604 27444192 27499714 27553304 27606510 27661560 27719758 
3087.254 27781886 27847912 27917336 27989424 28063396 28139044 28216258 
3090.630 28295008 28375330 28456512 28538174 28619672 28700902 28782252 
3094.005 28864434 28948720 29035786 29126166 29219894 29316514 29415566 
3097.380 29516486 29618848 29722122 29825704 29928422 30029142 30126580 
3100.755 30219958 30309304 30395294 30479202 30562344 30645716 30729888 
3104.131 30814964 30901230 30988582 31077660 31169106 31263276 31360426 
3107.506 31459942 31560876 31662188 31762992 31862960 31962346 32061790 
3110.881 32161292 32261104 32360758 32459580 32557278 32653682 32749638 
3114.256 32846012 32943800 33043932 33146522 33251460 33358142 33466100 
3117.632 33574912 33684680 33795228 33906808 34019132 34131772 34243904 
3121.007 34354632 34463128 34568776 34671188 34770392 34867072 34962008 
3124.382 35056288 35151164 35247676 35346476 35448168 35552728 35659976 
3127.757 35769880 35882004 35995848 36110584 36225212 36338388 36449324 
3131.133 36557300 36662380 36765612 36868828 36973772 37082128 37194592 
3134.508 37310908 37429932 37550364 37670428 37789260 37906536 38021888 
3137.883 38135536 38247728 38358576 38468256 38577240 38685816 38794636 
3141.258 38903996 39014212 39125144 39236908 39349056 39461348 39574068 
3144.634 39687104 39800752 39915556 40031520 40148964 40267860 40388128 
3148.009 40509820 40632524 40755772 40878872 41001540 41123724 41245876 
3151.384 41368680 41492868 41618624 41745580 41872980 41999280 42123392 
3154.759 42244728 42363684 42481216 42599032 42718160 42839408 42963140 
3158.135 43088660 43215464 43343036 43471268 43599720 43728288 43856632 
3161.510 43984284 44110764 44235848 44360012 44483660 44607460 44731584 
3164.885 44855928 44979540 45101600 45221272 45338512 45453832 45568448 
3168.260 45683200 45799020 45915936 46033288 46150120 46265364 46378164 
3171.635 46487716 46593716 46696236 46795496 46892008 46986220 47078784 
3175.011 47169712 47258920 47345672 47429116 47508284 47583032 47653724 
3178.386 47721732 47788860 47856848 47927140 48000260 48075908 48153420 
3181.761 48231688 48310260 48388668 48466456 48543852 48620524 48696536 
3185.136 48772380 48848344 48925292 49003476 49083044 49163068 49242112 
3188.512 49318868 49392184 49461652 49528228 49593188 49658340 49724540 
3191.887 49792316 49861104 49930272 49999044 50067268 50135132 50202932 
3195.262 50270892 50338492 50405208 50470480 50533864 50595920 50657312 
3198.637 50719200 50782024 50845944 50910276 50974100 51036924 51098456 
3202.013 51159060 51218892 51278216 51336536 51392736 51446184 51496580 
3205.388 51544408 51590828 51637172 51684716 51733944 51784416 51835188 
3208.763 51885440 51934468 51982344 52029368 52076136 52122756 52168972 
3212.138 52214704 52259772 52304320 52349284 52395152 52442256 52490188 
3215.514 52538200 52584948 52629420 52671348 52711036 52749644 52788296 
3218.889 52828108 52869836 52913920 52960672 53010680 53064516 53122252 
3222.264 53184008 53248200 53313340 53377404 53439080 53497764 53554364 
3225.639 53610516 53667836 53727528 53789780 53853316 53916480 53977408 
3229.015 54034968 54088592 54139072 54187568 54235844 54285364 54337400 
3232.390 54392608 54451080 54512232 54575124 54638848 54702204 54764708 
3235.765 54826504 54887824 54949752 55012968 55077884 55144540 55212492 
3239.140 55281236 55350560 55420724 55491912 55564472 55637908 55711656 
3242.516 55784252 55854976 55923220 55989784 56055448 56121992 56190548 
3245.891 56261636 56335112 56410680 56487620 56565780 56645348 56726592 
3249.266 56809744 56894120 56978624 57061668 57142088 57219076 57292984 
3252.641 57364820 57436180 57508384 57582148 57657516 57733312 57808856 
3256.017 57882372 57953172 58020312 58083708 58143520 58200536 58255544 
3259.392 58309888 58364496 58419644 58475332 58530608 58584296 58635148 
3262.767 58682480 58725720 58765588 58802728 58837556 58870148 58900088 
3266.142 58926460 58948772 58966764 58981336 58993976 59006540 59020244 
3269.518 59036336 59054292 59073120 59090924 59106112 59117196 59123992 
3272.893 59126460 59126004 59123840 59121184 59118868 59117044 59115144 
3276.268 59113020 59110136 59106640 59102808 59099544 59097152 59095556 
3279.643 59094492 59092976 59090204 59085912 59080712 59075628 59072664 
3283.019 59073004 59077868 59086636 59098632 59112564 59127372 59142480 
3286.394 59158012 59174108 59191236 59209388 59228260 59246948 59265136 
3289.769 59282800 59300116 59318044 59337568 59359600 59385468 59416396 
3293.144 59453892 59499640 59554820 59620080 59694888 59777544 59865764 
3296.520 59956480 60048316 60140096 60232048 60325160 60420424 60518260 
3299.895 60618220 60719300 60820752 60922340 61024792 61130088 61240144 
3303.270 61356828 61481136 61612704 61750340 61892532 62037868 62185540 
3306.645 62335524 62488312 62644988 62806308 62973128 63145728 63323752 
3310.021 63506612 63693232 63882424 64073124 64264872 64457692 64652452 
3313.396 64850108 65051736 65257736 65467724 65680892 65895640 66110640 
3316.771 66325320 66539072 66752232 66965536 67179320 67393568 67608472 
3320.146 67823816 68039120 68253784 68467168 68678248 68886208 69090072 
3323.521 69289800 69485608 69678472 69869584 70059824 70249272 70437416 
3326.897 70622592 70803288 70977848 71145536 71305832 71458728 71604328 
3330.272 71742672 71873392 71996408 72111560 72218608 72317016 72405672 
3333.647 72482960 72546976 72595888 72628864 72646256 72649896 72642216 
3337.022 72625648 72601528 72569960 72529944 72479664 72417576 72342344 
3340.398 72253432 72150568 72033056 71900248 71751304 71585608 71403336 
3343.773 71205344 70993224 70768464 70532232 70284880 70025872 69754760 
3347.148 69471096 69175232 68868576 68553024 68230752 67903696 67573704 
3350.523 67241872 66909484 66577040 66244772 65911792 65577380 65240064 
3353.899 64898848 64553984 64206556 63859248 63514932 63176608 62846324 
3357.274 62524356 62210776 61904488 61605220 61312944 61028640 60753220 
3360.649 60486952 60229764 59980292 59737048 59498996 59265668 59037588 
3364.024 58816196 58602800 58398192 58202920 58016068 57836984 57664216 
3367.400 57497224 57335364 57178672 57026908 56879916 56737164 56597864 
3370.775 56460752 56324480 56187416 56048020 55904604 55755920 55600924 
3374.150 55439284 55270284 55093720 54908768 54715060 54511632 54298764 
3377.525 54076472 53845584 53606504 53359384 53102820 52834768 52552748 
3380.901 52254580 51939620 51608436 51263412 50907744 50543728 50173140 
3384.276 49796292 49412972 49022244 48624336 48220280 47811904 47401508 
3387.651 46991384 46582652 46176728 45773396 45372936 44975312 44580584 
3391.026 44188928 43800408 43415424 43034476 42658688 42288920 41926468 
3394.402 41571836 41224416 40882624 40543756 40205044 39865216 39523620 
3397.777 39181424 38841088 38505004 38174824 37851112 37532840 37218200 
3401.152 36905264 36592300 36278300 35963124 35646668 35329508 35011536 
3404.527 34693368 34375468 34059052 33745412 33435792 33130858 32830502 
3407.903 32533816 32239296 31945474 31651356 31357006 31063460 30772494 
3411.278 30486204 30206708 29934954 29671388 29415284 29165426 28920458 
3414.653 28679098 28440594 28204874 27972072 27742612 27516906 27294564 
3418.028 27075052 26857660 26641538 26426792 26214406 26005958 25803232 
3421.404 25607880 25420766 25241000 25067206 24896712 24727264 24557008 
3424.779 24384818 24210946 24036164 23861872 23689714 23520878 23355812 
3428.154 23194794 23037190 22881914 22727462 22572436 22416104 22258432 
3431.529 22100506 21944100 21791200 21643438 21501678 21365328 21233542 
3434.905 21104092 20975376 20846210 20716390 20585878 20455474 20325386 
3438.280 20195548 20065366 19933904 19800472 19664512 19526380 19387390 
3441.655 19249066 19113732 18983078 18858346 18739528 18625450 18513510 
3445.030 18400596 18283772 18161520 18033810 17902478 17771188 17643974 
3448.406 17524178 17413418 17311684 17216700 17125698 17035404 16943476 
3451.781 16848294 16749278 16646840 16541500 16434122 16325498 16216762 
3455.156 16109051 16003223 15899999 15799034 15699740 15600984 15501495 
3458.531 15400313 15297472 15193489 15089428 14986592 14885667 14787165 
3461.906 14691426 14598177 14507585 14419889 14334848 14252324 14171663 
3465.282 14091838 14012029 13931516 13849786 13766738 13682542 13597270 
3468.657 13511500 13425544 13340219 13256447 13175323 13097594 13023362 
3472.032 12951804 12881180 12809954 12736828 12661838 12586077 12511557 
3475.407 12440424 12373941 12312239 12254261 12198370 12143236 12087937 
3478.783 12032545 11977635 11923721 11870971 11818943 11767158 11715448 
3482.158 11664256 11614735 11568148 11524900 11484378 11444949 11404332 
3485.533 11360556 11313282 11263598 11214294 11168871 11130252 11100135 
3488.908 11078380 11063119 11051869 11041774 11030830 11017746 11002521 
3492.284 10985461 10967825 10951038 10937038 10927354 10923447 10926098 
3495.659 10934966 10949339 10968165 10990797 11016862 11047076 11082051 
3499.034 11122468 11167783 11217184 11268869 11321103 11372970 11425082 
3502.409 11478866 11537082 11602553 11676917 11760894 11853775 11954101 
3505.785 12059968 12168826 12279619 12390885 12502451 12614866 12729492 
3509.160 12848245 12973072 13105448 13245584 13392395 13543358 13695776 
3512.535 13847596 13997656 14146022 14293481 14441126 14588685 14735231 
3515.910 14878363 15015335 15143909 15262980 15372232 15472103 15562621 
3519.286 15643610 15713790 15771683 15816215 15847314 15865253 15871337 
3522.661 15866078 15849616 15820784 15777936 15718875 15642270 15546755 
3526.036 15432001 15298296 15145864 14975857 14789427 14588411 14375192 
3529.411 14152253 13922106 13687466 13450594 13213646 12978329 12746177 
3532.787 12517968 12293220 12070188 11846556 11620010 11388991 11153607 
3536.162 10915971 10679112 10447031 10222265 10006263 9798975 9599543 
3539.537 9406670 9220110 9039551 8865526 8697554 8535154 8376362 8219824 
3543.395 8063712 7907421 7751321 7595951 7442356 7290905 7141561 6994456 
3547.252 6849590 6708069 6570901 6439728 6315218 6197532 6085691 5978516 
3551.109 5875128 5775122 5678698 5586155 5497557 5411897 5327763 5243612 
3554.967 5158538 5072710 4987167 4903819 4823971 4747990 4674836 4602565 
3558.824 4529000 4452870 4374411 4295028 4217501 4144034 4076668 4015633 
3562.682 3960357 3908832 3858451 3806337 3749116 3683882 3608736 3523748 
3566.539 3431229 3336792 3247284 3169109 3106599 3060047 3026881 3001824 
3570.396 2979203 2954349 2924026 2888034 2846509 2801086 2753234 2704020 
3574.254 2653845 2603275 2552678 2502920 2455034 2409485 2366540 2325498 
3578.111 2285359 2245224 2204426 2163233 2122576 2083288 2046567 2013411 
3581.969 1984484 1960253 1940849 1925805 1913092 1900080 1882375 1855288 
3585.826 1815326 1761161 1694928 1622419 1551619 1490305 1443894 1413443 
3589.684 1396423 1388146 1383061 1377011 1367272 1352980 1334832 1314094 
3593.541 1292060 1269994 1248627 1228955 1211245 1195961 1183103 1172671 
3597.398 1163568 1154431 1144000 1131409 1116394 1099485 1082279 1066269 
3601.256 1052684 1042520 1035446 1030729 1027375 1023821 1018939 1011466 
3605.113 999909 982640 958564 926487 887108 842421 795979 752031 714958 
3609.453 686483 666372 651373 637204 619949 596955 568355 537236 507910 
3613.792 484789 470360 464456 464290 465020 461338 449297 425848 391091 
3618.132 346687 296849 246985 202595 168254 146808 138356 141173 152443 
3622.472 168718 186982 205910 225237 245592 267739 290550 310610 321784 
3626.811 316014 285212 225834 141770 46356 -41150 -102902 -129667 -123141 
3631.151 -93229 -52182 -11596 20311 39895 47483 46423 40889 34129 27502 
3635.973 20642 11994 397 -14346 -31012 -48141 -64407 -79978 -95349 -111746 
3640.794 -130197 -149905 -169116 -184418 -192300 -190743 -179052 -159113 
3644.652 -134635 -110984 -93659 -87398 -95879 -120558 -160769 -213761 
3648.509 -275190 -339093 -398552 -446682 -476868 -484248 -467567 -428576 
3652.367 -372995 -308401 -243996 -188822 -149706 -131157 -133443 -151661 
3656.224 -177164 -200878 -215317 -217867 -209886 -195711 -180642 -168652 
3660.082 -162690 -163253 -169712 -180377 -193393 -206574 -218364 -227107 
3663.939 -232273 -233432 -231677 -228498 -226842 -229458 -239757 -260554 
3667.796 -293965 -340583 -398187 -461345 -520521 -564204 -582668 -571120 
3671.654 -532137 -473955 -409939 -354786 -321645 -320718 -354786 -416725 
3675.511 -489544 -552456 -590841 -600205 -585878 -558049 -526909 -498778 
3679.369 -475742 -456479 -438407 -419506 -399611 -379848 -362500 -348529 
3683.226 -336941 -325353 -310586 -291382 -269130 -248997 -237506 -242374 
3687.083 -269395 -319162 -387396 -464026 -537995 -599213 -642060 -665682 
3690.941 -671935 -663631 -643681 -615227 -581014 -544647 -509699 -479714 
3694.798 -457075 -442213 -434765 -431886 -430628 -428973 -426027 -422981 
3698.656 -422154 -426556 -438903 -460021 -488650 -521382 -553284 -578466 
3702.513 -592595 -593356 -580947 -557387 -525982 -490669 -454328 -419605 
3706.371 -387660 -359256 -334922 -315487 -302242 -297342 -302872 -320817 
3710.228 -351972 -394745 -445821 -498646 -545904 -580584 -597658 -595010 
3714.085 -574296 -539186 -495468 -449661 -407821 -374650 -353131 -343695 
3717.943 -344556 -352634 -364420 -377199 -389349 -400637 -410469 -418744 
3721.800 -424008 -424934 -420399 -410833 -398187 -386402 -379748 -380973 
3725.658 -390143 -403517 -414971 -416394 -402193 -370578 -324294 -269892 
3729.515 -216510 -173355 -146494 -138842 -148812 -170209 -195910 -220086 
3733.373 -241181 -261746 -286415 -318731 -359090 -402855 -442213 -469619 
3737.230 -480707 -475842 -458763 -434368 -406099 -375643 -343464 -309990 
3741.087 -278137 -254428 -249096 -273435 -335716 -434666 -554243 -666476 
3744.945 -740179 -758206 -723210 -653143 -570557 -495601 -443041 -419307 
3748.802 -423279 -447277 -481303 -515954 -546467 -571947 -593091 -609172 
3752.660 -616881 -612249 -592992 -559968 -518039 -473955 -434765 -405867 
3756.517 -389812 -386303 -392858 -406331 -424008 -443868 -463562 -480542 
3760.375 -490769 -490471 -478225 -455254 -426656 -399479 -380940 -375378 
3764.232 -383191 -399810 -417950 -429900 -431786 -424471 -414176 -408714 
3768.089 -414540 -434666 -466541 -502816 -533792 -550967 -550074 -532005 
3771.947 -500962 -463827 -426556 -393818 -367565 -347701 -332869 -321016 
3775.804 -310421 -300951 -293501 -289892 -291680 -299494 -311613 -324194 
3779.662 -332207 -331512 -320155 -299925 -275322 -252374 -236645 -231478 
3783.519 -236777 -249096 -263401 -274031 -277475 -273104 -262971 -250719 
3787.376 -240254 -234525 -234724 -241446 -253467 -269693 -288468 -307838 
3791.234 -325585 -339656 -348529 -352370 -352634 -352436 -355151 -363030 
3795.091 -375842 -390739 -402292 -404576 -394281 -372498 -344291 -318235 
3798.949 -303732 -309295 -338497 -389051 -450455 -507118 -541701 -543257 
3802.806 -510428 -451382 -379616 -310156 -256547 -228299 -229193 -255620 
3806.664 -297011 -339193 -367565 -374783 -360348 -330220 -292210 -253335 
3810.521 -217636 -186438 -158119 -131687 -107042 -87895 -79613 -88690 
3814.378 -119431 -170904 -235486 -298203 -342901 -358991 -344622 -307573 
3818.236 -261878 -224127 -207866 -223067 -271150 -344722 -426755 -496726 
3822.093 -538557 -545342 -520422 -473757 -417917 -364520 -321347 -292607 
3825.951 -277574 -272276 -270786 -267673 -259726 -247175 -232406 -218629 
3829.808 -209091 -205448 -206773 -211012 -214655 -214556 -208528 -196341 
3833.666 -179450 -160604 -143844 -133079 -132151 -143711 -168056 -202997 
3837.523 -243731 -283137 -314858 -334127 -340020 -334591 -322274 -308202 
3841.380 -296912 -290951 -290720 -294892 -300686 -304560 -303699 -296249 
3845.238 -282210 -262607 -239625 -215052 -190545 -166002 -140531 -112541 
3849.095 -80905 -46186 -12259 13817 22067 1424 -56887 -154940 -282210 
3853.435 -415798 -528431 -599610 -622672 -604738 -559604 -501856 -442213 
3857.292 -387429 -340749 -302309 -271316 -246149 -225650 -209058 -196208 
3861.150 -187630 -184616 -188922 -202335 -225253 -255620 -288104 -313997 
3865.007 -324592 -313533 -280057 -230617 -176701 -132681 -111249 -120094 
3868.865 -158716 -218000 -280819 -329757 -354124 -353760 -337008 -315652 
3872.722 -300752 -298004 -306580 -320254 -330022 -328631 -312838 -284495 
3876.579 -249162 -214556 -187332 -171997 -170606 -182000 -201805 -223232 
3880.437 -239029 -242473 -230054 -202534 -165009 -126619 -96641 -84781 
3884.294 -96906 -132350 -183291 -235386 -273634 -286514 -271514 -233797 
3888.152 -184782 -136822 -100748 -83920 -87995 -109527 -140399 -171070 
3892.009 -193956 -204355 -202335 -190313 -172196 -151561 -130959 -112442 
3895.866 -96906 -85013 -77592 -74810 -76499 -82297 -90810 -100384 -109991 
3900.206 -119166 -128441 -138941 -152489 -169845 -191207 -214390 -236082 
3904.063 -252308 -259660 -256083 -241546 -218331 -189452 -158119 -127083 
3907.921 -98032 -72060 -49532 -30714 -15837 -5069 1722 5036 6096 6295 6560 
3913.225 7554 8747 8449 5102 -2683 -15208 -31641 -50162 -68648 -85676 
3918.047 -100649 -113535 -124400 -132880 -137550 -136457 -128375 -113369 
3921.904 -93129 -70867 -50791 -36379 -29521 -29720 -34391 -39924 -43005 
3926.244 -41813 -35783 -26042 -14379 -2418 8250 16832 22366 23724 20311 
3931.065 11497 -1756 -17825 -33298 -44927 -49797 -46948 -36810 -21635 -4605 
3935.887 11829 25745 36614 45064 52189 59347 67300 75784 83638 89073 90167 
3941.191 84897 72735 53945 30981 6958 -14081 -28825 -35451 -33861 -25777 
3946.013 -14545 -3710 4208 7521 6792 3313 -662 -3412 -3611 -927 4439 12425 
3951.799 23061 36515 52454 70249 88178 104053 115818 122314 123872 122116 
3956.621 119961 120061 124568 133550 145979 159238 170077 176275 175944 
3960.960 169082 157315 142963 128877 117840 112040 112372 118735 130070 
3965.300 144422 160033 174585 187148 197026 204087 209059 212374 214695 
3969.640 216120 217082 217546 217778 218275 218971 220563 223181 226961 
3973.979 232364 239161 247747 258257 270259 283487 296783 308985 319098 
3978.319 326227 329742 330107 327985 324437 320756 318170 317407 319032 
3982.658 322613 327288 331599 334020 333025 328217 319828 309317 298607 
3986.998 289853 284250 282228 282891 284880 285908 284979 281299 275563 
3991.338 268866 262534 257726 255074 254643 256234 259284 263561 268700 
3995.677 274801 281664 288925 296286 303282 309018 312831 313892 311604 
4000.017 305238 294827 
##END=
