##TITLE=1541_3_a
##JCAMP-DX=5.01  $$ Nicolet v. 1
##DATATYPE=INFRARED SPECTRUM
##ORIGIN=UniL
##OWNER=Nicolet
##LONGDATE=2011/09/29
##TIME=14:33:59
##SPECTROMETER/DATA SYSTEM=Nicolet iS5
##DATA PROCESSING=
Ratio against background
%Transmittance->Absorbance
Truncated
ElementMultiply or ElementDivide
##COMMENTS=
Number of sample scans: 32
Collection length: 51.23 sec
Sample gain: 2.0
Background collected on: Jeu Sep 29 14:32:34 2011 (GMT+02:00);
Number of background scans: 32
Background gain: 2.0
Sample spacing:  1.000
Number of scan points: 12415
Resolution points: 8192
Number of FFT points: 65536
Apodization: N-B fort;
Phase correction: Mertz;
Laser frequency: 15798.0 cm-1
Number of rejected sample scans: 0
Number of rejected background scans: 0
Bench serial number: ASB1000141;
##RESOLUTION=4.000
##XUNITS=1/CM
##YUNITS=ABSORBANCE
##FIRSTX=649.893372
##LASTX=4000.122314
##FIRSTY=0.097872
##MAXX=4000.122314
##MINX=649.893372
##MAXY=0.270162
##MINY=0.000341
##XFACTOR=1.000000
##YFACTOR=1.000000E-009
##NPOINTS=6950
##DELTAX=0.482117
##ZPD=6100
##XYDATA=(X++(Y..Y))
649.893 97871888 97083920 96363928 95735056 95195528 94728936 94319880 
653.268 93964344 93673968 93468880 93364888 93364272 93452240 93605120 
656.643 93799744 94022392 94274144 94562616 94892784 95260624 95649600 
660.018 96039216 96414936 96774064 97126680 97487592 97868688 98269640 
663.393 98678576 99075664 99441032 99759008 100014096 100188376 100258448 
666.767 100200352 100010808 99731744 99454528 99274800 99249808 99375256 
670.142 99601192 99858784 100081184 100221392 100254272 100182208 100025736 
673.517 99812000 99557480 99261136 98908160 98483040 97982016 97420584 
676.892 96827272 96232000 95654192 95095912 94544976 93986272 93412552 
680.267 92828336 92248024 91684688 91143016 90614704 90084312 89536400 
683.642 88965960 88380752 87797592 87233360 86696384 86183440 85683408 
687.016 85185920 84688080 84198456 83732568 83307272 82931352 82603056 
690.391 82313408 82052768 81817288 81612360 81449576 81341392 81295008 
693.766 81309312 81376840 81489712 81644904 81846808 82105120 82429208 
697.141 82822488 83280296 83791312 84342800 84927384 85545920 86206272 
700.516 86917456 87682416 88493712 89334680 90183120 91017928 91825856 
703.890 92601288 93343328 94050824 94718224 95335072 95891920 96383008 
707.265 96811448 97188304 97528648 97845856 98148128 98439560 98724368 
710.640 99012432 99322904 99681264 100112184 100631960 101238272 101907016 
714.015 102592064 103237056 103782344 104175656 104384808 104399640 
716.908 104237192 103937720 103566912 103207928 102945200 102862856 
719.800 103024880 103462752 104171360 105103328 106175512 107268464 
722.693 108249616 108990912 109380152 109353472 108904520 108095536 
725.586 107040224 105887048 104789048 103859600 103163560 102709456 
728.478 102463008 102367160 102365696 102421568 102516120 102644776 
731.371 102806344 102993296 103190624 103382064 103555936 103712880 
734.264 103863728 104024528 104205936 104408320 104621432 104831560 
737.156 105028720 105213464 105395792 105590368 105807648 106048216 
740.049 106302128 106554568 106794448 107018904 107234784 107452760 
742.942 107681248 107920864 108164344 108401328 108624872 108835976 
745.835 109043208 109256432 109481056 109713304 109942304 110155112 
748.727 110343720 110509584 110662304 110814224 110972352 111135072 
751.620 111293712 111438568 111564712 111676448 111784320 111899536 
754.513 112025984 112158048 112282688 112386792 112466504 112529616 
757.405 112593080 112674280 112783432 112917568 113063528 113204200 
760.298 113328752 113437160 113539400 113647856 113771416 113909904 
763.191 114056800 114205216 114356400 114522680 114727520 114998208 
766.083 115355880 115812896 116368880 117013552 117727000 118482144 
768.976 119246096 119981176 120658568 121272928 121862888 122513704 
771.869 123348168 124496160 126030608 127922776 129998728 131969216 
774.762 133454744 134082480 133609536 131967232 129298496 125888512 
777.654 122107072 118293880 114678888 111378144 108388064 105632880 
780.547 103006352 100420048 97823944 95207360 92591368 90014192 87520344 
783.922 85149848 82937008 80910216 79087648 77479664 76087472 74905320 
787.297 73924344 73137688 72544504 72150680 71967000 72003880 72269744 
790.671 72768704 73503408 74479408 75708448 77208656 78999568 81092560 
794.046 83479392 86118912 88936280 91817384 94607600 97136584 99217832 
797.421 100668096 101346384 101163728 100114144 98278112 95823992 92980832 
800.796 89987248 87080632 84443728 82178504 80306728 78766928 77442240 
804.171 76181080 74846896 73347912 71655320 69810088 67906256 66066116 
807.546 64394012 62954516 61754580 60746356 59842300 58941604 57963356 
810.920 56856540 55610828 54247816 52809624 51342764 49885928 48470052 
814.295 47116824 45841436 44657216 43574664 42600568 41736936 40980020 
817.670 40321664 39751840 39261860 38845548 38499968 38223632 38015340 
821.045 37873740 37797972 37788896 37851764 37995304 38231556 38573076 
824.420 39028676 39601580 40286580 41068620 41920708 42803536 43667316 
827.794 44448900 45082780 45509608 45684420 45592000 45251352 44717516 
831.169 44068548 43398544 42803608 42361056 42126496 42122588 42336180 
834.544 42716116 43177368 43616976 43916788 43969176 43700656 43079660 
837.919 42129272 40918192 39551564 38142120 36789196 35570604 34528056 
841.294 33672580 32991916 32462542 32057364 31750906 31523962 31360566 
844.669 31248108 31176938 31140698 31136212 31162910 31221832 31312418 
848.043 31431980 31575378 31735898 31908960 32092504 32287870 32498464 
851.418 32727774 32977256 33246920 33535678 33843940 34174964 34535336 
854.793 34932960 35375300 35867860 36413436 37014324 37674224 38399908 
858.168 39202748 40097652 41100452 42228440 43498812 44927944 46532084 
861.543 48323556 50304488 52457884 54740652 57079276 59365184 61473772 
864.917 63275872 64652720 65525324 65860620 65682820 65066820 64135036 
868.292 63042848 61945988 60999168 60334104 60042608 60185156 60783476 
871.667 61824676 63261620 65015444 66981116 69016224 70958576 72638344 
875.042 73882200 74553128 74565248 73896344 72592712 70757696 68538088 
878.417 66087372 63557892 61083560 58759820 56653768 54800528 53209248 
881.792 51872260 50771524 49885524 49191680 48668812 48298484 48061696 
885.166 47939688 47914636 47968952 48090604 48274936 48527364 48862396 
888.541 49300680 49864336 50569936 51425112 52427264 53565872 54825944 
891.916 56193448 57658992 59218464 60872288 62623164 64472996 66418984 
895.291 68449480 70536288 72628152 74647712 76480704 77991192 79037160 
898.666 79482880 79236824 78266344 76607960 74359584 71668368 68713496 
902.040 65666788 62689348 59914220 57430092 55293804 53528164 52130336 
905.415 51079820 50346528 49899124 49706636 49745164 49999044 50459092 
908.790 51122232 51988844 53060100 54336992 55817820 57495560 59354848 
912.165 61366828 63483068 65640160 67758432 69751216 71545216 73087576 
915.540 74359304 75379136 76201816 76909800 77593032 78345032 79241432 
918.914 80325744 81603888 83035480 84539720 85995064 87266728 88230760 
922.289 88793608 88926392 88674400 88164544 87578232 87137080 87074160 
925.664 87579888 88792472 90767776 93469824 96765280 100427440 104174560 
929.039 107657728 110511336 112406712 113052824 112258400 109955144 
931.932 106204712 101199408 95232776 88685328 81946560 75377200 69289800 
935.306 63894748 59315536 55599380 52731764 50664760 49335868 48685416 
938.681 48653988 49175168 50168940 51518816 53069160 54642868 56038296 
942.056 57070924 57606172 57569136 56965400 55870388 54419008 52769176 
945.431 51074192 49469704 48046152 46852552 45902312 45182480 44665772 
948.806 44319316 44113588 44021392 44018680 44084688 44198868 44342800 
952.181 44502016 44666028 44830912 44997692 45171192 45357452 45561456 
955.555 45786576 46034320 46304988 46598620 46915632 47256224 47619744 
958.930 48004852 48408520 48827544 49259816 49704368 50162356 50635608 
962.305 51126184 51634744 52160528 52701908 53257264 53825780 54407892 
965.680 55005032 55618060 56247568 56893212 57554876 58233268 58931204 
969.055 59652804 60403024 61185780 62003468 62856660 63745684 64671876 
972.429 65638996 66652632 67719632 68846024 70034984 71287208 72601408 
975.804 73976792 75413704 76914704 78484112 80126064 81844296 83642216 
979.179 85524536 87499352 89579072 91781032 94123784 96623704 99292960 
982.554 102135744 105147904 108313984 111607416 114982184 118365632 
985.447 121661624 124739360 127444208 129624424 131134704 131868872 
988.339 131777584 130872000 129226608 126965032 124258656 121298200 
991.232 118273304 115371000 112741464 110494840 108702656 107392760 
994.125 106561856 106185032 106228832 106657104 107436464 108539104 
997.017 109938208 111607072 113520640 115651480 117972304 120456600 
999.910 123070552 125769872 128496272 131167504 133686288 135950896 
1002.803 137859904 139335904 140334688 140851056 140919984 140614096 
1005.695 140041568 139325392 138601984 138008944 137660480 137650240 
1008.588 138041456 138863712 140123008 141807600 143899312 146377104 
1011.481 149221568 152415552 155938496 159767296 163877360 168241296 
1014.374 172832944 177623968 182571296 187609408 192635488 197495824 
1017.266 202006592 205961936 209162320 211464272 212797984 213194160 
1020.159 212778832 211775168 210478640 209198944 208260784 207946912 
1023.052 208458432 209920992 212363136 215732256 219904048 224713088 
1025.945 229979344 235505552 241105648 246601024 251808192 256561936 
1028.838 260715184 264151280 266805552 268664256 269762080 270161728 
1031.731 269945408 269199488 268001728 266426656 264538288 262380368 
1034.624 259972480 257299808 254316000 250949200 247124160 242785360 
1037.517 237907904 232508960 226641040 220386288 213839888 207105280 
1040.410 200295360 193518400 186880608 180478352 174379920 168626976 
1043.303 163230400 158176400 153439712 148996864 144838608 140975120 
1046.196 137435664 134258976 131490480 129170848 127329456 125985224 
1049.089 125142712 124792968 124913064 125468312 126414208 127696408 
1051.982 129260880 131054264 133025456 135129136 137316336 139526960 
1054.875 141690864 143716864 145499648 146935824 147925280 148388096 
1057.768 148276848 147576816 146312880 144547040 142384256 139961488 
1060.661 137433840 134975936 132749872 130894216 129523112 128709408 
1063.554 128489896 128868264 129818872 131287992 133193192 135434304 
1066.448 137885264 140402768 142849504 145089808 147009728 148529648 
1069.341 149594912 150178544 150273696 149888112 149041168 147762400 
1072.234 146093280 144082656 141784512 139260672 136575248 133799312 
1075.127 131017448 128320280 125807312 123582008 121732800 120333400 
1078.020 119432936 119049664 119172368 119758344 120739152 122013768 
1080.913 123452816 124914224 126237048 127271440 127904760 128072080 
1083.806 127780752 127106904 126194568 125224096 124389408 123887368 
1086.699 123878416 124482920 125772344 127757144 130386072 133539992 
1089.592 137052112 140701552 144237024 147422912 150040016 151923648 
1092.485 152981872 153189056 152585168 151257216 149332736 146954880 
1095.378 144263248 141392512 138449248 135510112 132626368 129822792 
1098.271 127105984 124470256 121901928 119379936 116876672 114361960 
1101.164 111805616 109185064 106494480 103749776 100992240 98280072 95688008 
1104.540 93294320 91167624 89370096 87947680 86929504 86332648 86160536 
1107.915 86405496 87048200 88060400 89404080 91030352 92884880 94904656 
1111.290 97015224 99137688 101181008 103044624 104633320 105856944 106643768 
1114.665 106953240 106774288 106126856 105053400 103615744 101885024 
1117.558 99932384 97831080 95645640 93427384 91216672 89037944 86903848 
1120.934 84820192 82790616 80821080 78922432 77108048 75393008 73790848 
1124.309 72311232 70962008 69751064 68688568 67790736 67079284 66577576 
1127.684 66309920 66294408 66539304 67040496 67780168 68728080 69839000 
1131.059 71057024 72317960 73547640 74674424 75636112 76386864 76910040 
1134.435 77220248 77364192 77407472 77429448 77509136 77707384 78064432 
1137.810 78590392 79265336 80039728 80840472 81585216 82182584 82550120 
1141.185 82624536 82360824 81738768 80758504 79436808 77801776 75890360 
1144.560 73749104 71429312 68987216 66483616 63974252 61510840 59138344 
1147.936 56889056 54787936 52850748 51085936 49497148 48083756 46842660 
1151.311 45768312 44853616 44091396 43473976 42994820 42648560 42430904 
1154.686 42338372 42367668 42515052 42777464 43151928 43637640 44235332 
1158.061 44947276 45776524 46724792 47791816 48974096 50265760 51657248 
1161.437 53134872 54681348 56270952 57869876 59438240 60926648 62283396 
1164.812 63459560 64407772 65089612 65476812 65550752 65305412 64747900 
1168.187 63899124 62789648 61458808 59951344 58309508 56574384 54784068 
1171.562 52970104 51162308 49387360 47668036 46025368 44477384 43037216 
1174.938 41715816 40519932 39453076 38516556 37709816 37030924 36477400 
1178.313 36046320 35735016 35541296 35464168 35503860 35662136 35941384 
1181.688 36343936 36871644 37525184 38304360 39209128 40239324 41394268 
1185.063 42670676 44061364 45551484 47117044 48727600 50343104 51919568 
1188.438 53412664 54775760 55966564 56949572 57696908 58195228 58446820 
1191.814 58471840 58304312 57990396 57584192 57136644 56695336 56299584 
1195.189 55974628 55734824 55581492 55505768 55489576 55508292 55535212 
1198.564 55539316 55489692 55356056 55106696 54711976 54147140 53393176 
1201.939 52443940 51307784 50010532 48590616 47096508 45581656 44093672 
1205.315 42673196 41351076 40145072 39063404 38106596 37269860 36544936 
1208.690 35922164 35392304 34946064 34576060 34277500 34048160 33888500 
1212.065 33801248 33789388 33855580 34001216 34226156 34529060 34907788 
1215.440 35359124 35878656 36459740 37092412 37764824 38463476 39174928 
1218.816 39888532 40595960 41291532 41972016 42635036 43280032 43908464 
1222.191 44525988 45142924 45773836 46437936 47155124 47943388 48817944 
1225.566 49787820 50855476 52015924 53256064 54553520 55875020 57180900 
1228.941 58423924 59553072 60523176 61293864 61835872 62134652 62191084 
1232.317 62024640 61671816 61190128 60652888 60139944 59740356 59537528 
1235.692 59602744 59998364 60769300 61946104 63547612 65580576 68040392 
1239.067 70907624 74148672 77710192 81516608 85479832 89493448 93437488 
1242.442 97193312 100634424 103638584 106103376 107945536 109116904 
1245.335 109609104 109452192 108709432 107463960 105819408 103883888 
1248.229 101762416 99558192 97353080 95201880 93125824 91108240 89099088 
1251.604 87025328 84815032 82410056 79784264 76951336 73964064 70907200 
1254.979 67875184 64968804 62274484 59851580 57733348 55921296 54390540 
1258.354 53092260 51963484 50937252 49943284 48922768 47832320 46644732 
1261.729 45352416 43963936 42500876 40991376 39467952 37963736 36507200 
1265.105 35123540 33831940 32644716 31568322 30603192 29745006 28986124 
1268.480 28317430 27730602 27218500 26775538 26397144 26078324 25813184 
1271.855 25595438 25418448 25277524 25169858 25094658 25052360 25043196 
1275.230 25065662 25116776 25191452 25283002 25384512 25487380 25582050 
1278.606 25658704 25707040 25718572 25688340 25615544 25503438 25357288 
1281.981 25182394 24981916 24756060 24503612 24224258 23920824 23602104 
1285.356 23281378 22975912 22704838 22484770 22329972 22251492 22257108 
1288.731 22353168 22544794 22835638 23227196 23717882 24302500 24971246 
1292.107 25709044 26495814 27303208 28096446 28836956 29482408 29996798 
1295.482 30355922 30551218 30592598 30505896 30329912 30105770 29874326 
1298.857 29671068 29521806 29444748 29449784 29538582 29704948 29933994 
1302.232 30205216 30491714 30764848 31000112 31176188 31279620 31304616 
1305.608 31251312 31125926 30938802 30705100 30442168 30169200 29905420 
1308.983 29666668 29464322 29305136 29190834 29121134 29095022 29112524 
1312.358 29174568 29282238 29435246 29631726 29868436 30142100 30451016 
1315.733 30795330 31177114 31598862 32061930 32566388 33111334 33695600 
1319.109 34318984 34982340 35685772 36426480 37196068 37979612 38755116 
1322.484 39494040 40166880 40744092 41201572 41527244 41724204 41814600 
1325.859 41836820 41846124 41903700 42062976 42365476 42827120 43437432 
1329.234 44160644 44945804 45739380 46492176 47171892 47764744 48274936 
1332.610 48720480 49128896 49533208 49964324 50450384 51012964 51663220 
1335.985 52401432 53216512 54088740 54990780 55892392 56764772 57579196 
1339.360 58310604 58939328 59450740 59837928 60101052 60245676 60280504 
1342.735 60213052 60047936 59785416 59421900 58951620 58369764 57673976 
1346.111 56865940 55951300 54939788 53844612 52681112 51468604 50229676 
1349.486 48989824 47779536 46632560 45583276 44667792 43919024 43364088 
1352.861 43025400 42917272 43045708 43406672 43983624 44745140 45640800 
1356.236 46609096 47577816 48470976 49223408 49781096 50107872 50189208 
1359.612 50031764 49663728 49129676 48495316 47839720 47244436 46792320 
1362.987 46547500 46544360 46785528 47241704 47862400 48581056 49328628 
1366.362 50036856 50638140 51077432 51312856 51321620 51102856 50675000 
1369.737 50070876 49327628 48484868 47580924 46650008 45729696 44861076 
1373.113 44086556 43450836 42990648 42726460 42658284 42767188 43023864 
1376.488 43396308 43860228 44403024 45022648 45726712 46529940 47452804 
1379.863 48518324 49749920 51164056 52758740 54499988 56309464 58073256 
1383.238 59639008 60841528 61535420 61598956 60963784 59628860 57680108 
1386.614 55290760 52690612 50139668 47849300 45946728 44472868 43395760 
1389.989 42644536 42133688 41786512 41536800 41328412 41117280 40864424 
1393.364 40539316 40125264 39622088 39047416 38428580 37793776 37161060 
1396.739 36536104 35916228 35298312 34686724 34098080 33558052 33093170 
1400.115 32723236 32454222 32279876 32186628 32160684 32192014 32276626 
1403.490 32415840 32614354 32876820 33204642 33595604 34043856 34541796 
1406.865 35082404 35660120 36271708 36914676 37586564 38283768 39001272 
1410.240 39733104 40474356 41220812 41969424 42716920 43457792 44183828 
1413.615 44885324 45552364 46179936 46769108 47327748 47867948 48404336 
1416.991 48951176 49521100 50125912 50776180 51476920 52226964 53013600 
1420.366 53814308 54600332 55343296 56022164 56624736 57153764 57626756 
1423.741 58074584 58531744 59027420 59578192 60185648 60841260 61533056 
1427.116 62252228 62992512 63748060 64509928 65263860 65990820 66674380 
1430.492 67305128 67886416 68432840 68967096 69513168 70089488 70708992 
1433.867 71380112 72112072 72920824 73832400 74880280 76099480 77507272 
1437.242 79095952 80834376 82673792 84555496 86407680 88151432 89686568 
1440.617 90899656 91688624 91964240 91671520 90795336 89354944 87399168 
1443.993 84995080 82230112 79198416 75990248 72698112 69407264 66203476 
1447.368 63183776 60443616 58064392 56095300 54540820 53369912 52533828 
1450.743 51991008 51716848 51704420 51952956 52451900 53168612 54053164 
1454.118 55035344 56038408 56991508 57828616 58508120 59025140 59422892 
1457.494 59771192 60133968 60552312 61035848 61577648 62167344 62797768 
1460.869 63463584 64155892 64859180 65544240 66167132 66680372 67040340 
1464.244 67227024 67254560 67170704 67036904 66902524 66794036 66710888 
1467.619 66634780 66537684 66389136 66156560 65798008 65260312 64480372 
1470.995 63396448 61977284 60252372 58326444 56349000 54465580 52769700 
1474.370 51287984 50004768 48894252 47944572 47167088 46587700 46227660 
1477.745 46092828 46167848 46424476 46831736 47369764 48033788 48832884 
1481.120 49782876 50897276 52182760 53638444 55261520 57053240 59023624 
1484.496 61187536 63555324 66122828 68853128 71663600 74432496 76990064 
1487.871 79133528 80660944 81379920 81154904 79947584 77837288 75014232 
1491.246 71723368 68215480 64679600 61222288 57890476 54683452 51587244 
1494.621 48605328 45768204 43137952 40794972 38808588 37214772 36007076 
1497.997 35151632 34602000 34315720 34262156 34418216 34763608 35277972 
1501.372 35935988 36708600 37565792 38469376 39372676 40217620 40916336 
1504.747 41354032 41394300 40904616 39820872 38199896 36217072 34081416 
1508.122 31950292 29895374 27923662 26019078 24171920 22387948 20692932 
1511.498 19121940 17702572 16451260 15367186 14436845 13640553 12958120 
1514.873 12371213 11861981 11415251 11019683 10670079 10369211 10123798 
1518.248 9939032 9811718 9728523 9666011 9600052 9514018 9411242 9314515 
1522.105 9255785 9256800 9318712 9423770 9546499 9665875 9771525 9868252 
1525.963 9972121 10102669 10271762 10479412 10715721 10968742 11230852 
1529.338 11501865 11787619 12094853 12426036 12777365 13139325 13501007 
1532.713 13856764 14209663 14572066 14956000 15367735 15801989 16245654 
1536.089 16680546 17089026 17458050 17776020 18034674 18227340 18348746 
1539.464 18394892 18367274 18277102 18143866 17990190 17833878 17680346 
1542.839 17522764 17345340 17132694 16877678 16587386 16281085 15983079 
1546.214 15711008 15467262 15240913 15012419 14765191 14492545 14203261 
1549.590 13918001 13661684 13450286 13284768 13152645 13036541 12922277 
1552.965 12805415 12692440 12596855 12531985 12502519 12502622 12516365 
1556.340 12523288 12497677 12411920 12240766 11972084 11623448 11245542 
1559.715 10903638 10644170 10478835 10394596 10366226 10367820 10376304 
1563.091 10376406 10361814 10336500 10312137 10303112 10320010 10364461 
1566.466 10428839 10499609 10564007 10613305 10645935 10667634 10689164 
1569.841 10721732 10772679 10844999 10938194 11050204 11177847 11316240 
1573.216 11457671 11589859 11698463 11770597 11800693 11796709 11779925 
1576.592 11778802 11813188 11888270 11996438 12124530 12260839 12398999 
1579.967 12539419 12687186 12848551 13028244 13227583 13443998 13673070 
1583.342 13908285 14141505 14362828 14558361 14712231 14809893 14840236 
1586.717 14801049 14700372 14557847 14400263 14258863 14165432 14146126 
1590.093 14221338 14403894 14697013 15093030 15568700 16087491 16596474 
1593.468 17033852 17341962 17471432 17394588 17109912 16642330 16037190 
1596.843 15348066 14631280 13933637 13289449 12723112 12248024 11869404 
1600.218 11585912 11390998 11275228 11228982 11245746 11322838 11460598 
1603.594 11659524 11916705 12223691 12566704 12926646 13281352 13608928 
1606.969 13886013 14090812 14204631 14212265 14104845 13882250 13553716 
1610.344 13138847 12665079 12167020 11676814 11220244 10813135 10458435 
1613.719 10150524 9877404 9626509 9386761 9152798 8926334 8717431 8540088 
1617.577 8407373 8326777 8298238 8314854 8364810 8433589 8507108 8572699 
1621.434 8622785 8657193 8682815 8711245 8753436 8816156 8899244 8998110 
1625.292 9106880 9221566 9340142 9462136 9586874 9712360 9835883 9955474 
1629.149 10071842 10188412 10310305 10441838 10583799 10733518 10883151 
1632.524 11022572 11141572 11230275 11281825 11294577 11273392 11229730 
1635.899 11180464 11141776 11123488 11128179 11150955 11183490 11215586 
1639.275 11238401 11246494 11239659 11223032 11204672 11193384 11193656 
1642.650 11204366 11218204 11224154 11210384 11166798 11089053 10979956 
1646.025 10850774 10718404 10602236 10520180 10483214 10495094 10553041 
1649.400 10648584 10768161 10890965 10991170 11034501 10986209 10828998 
1652.776 10584785 10320010 10108096 9990869 9962424 9992463 10046104 
1656.151 10098633 10137228 10157748 10162395 10155713 10140756 10117693 
1659.526 10083169 10032168 9959949 9864354 9746380 9610722 9465692 9321759 
1663.384 9189414 9077308 8990263 8928025 8885377 8853014 8819097 8770172 
1667.241 8694511 8584662 8440075 8268383 8083595 7902764 7740494 7605696 
1671.098 7500201 7420953 7359850 7305495 7244610 7162849 7048335 6897559 
1674.956 6720049 6537599 6375367 6252152 6171921 6125747 6096982 6069462 
1678.813 6033780 5989097 5943109 5906564 5887185 5883222 5882516 5862970 
1682.671 5800910 5680074 5503396 5298716 5109285 4970811 4893967 4867864 
1686.528 4871214 4884886 4895140 4894704 4881568 4856538 4822028 4781624 
1690.385 4740822 4706722 4686324 4684817 4701899 4730739 4757337 4764606 
1694.243 4736433 4666028 4562483 4451765 4366412 4326284 4331371 4362228 
1698.100 4390276 4384218 4320026 4191204 4017739 3841970 3705704 3631121 
1701.958 3612979 3630821 3660291 3681610 3681911 3655413 3604459 3537410 
1705.815 3467031 3404645 3357394 3327276 3312018 3307177 3307578 3310182 
1709.673 3313754 3319030 3328445 3343537 3365108 3391989 3421243 3449764 
1713.530 3475181 3496023 3511990 3521877 3522712 3509083 3475849 3420642 
1717.387 3349180 3274559 3214570 3182493 3183728 3213602 3261472 3314455 
1721.245 3360834 3394327 3412894 3419673 3420442 3421510 3427221 3439144 
1725.102 3456744 3478287 3501835 3525384 3546930 3564068 3574491 3577064 
1728.960 3573723 3568779 3567476 3573790 3586485 3597710 3593133 3554280 
1732.817 3466196 3325540 3148983 2970496 2827999 2744264 2719524 2737196 
1736.675 2774408 2811558 2832835 2831134 2806355 2765605 2719591 2678748 
1740.532 2650177 2636043 2634576 2642777 2657478 2676648 2698652 2722891 
1744.389 2748966 2777210 2807456 2839972 2873892 2908048 2939638 2965559 
1748.247 2982807 2988812 2982607 2964758 2938237 2908081 2880897 2863786 
1752.104 2861985 2876861 2906047 2943007 2978570 3002424 3005861 2984141 
1755.962 2938804 2877761 2813592 2758703 2719857 2697452 2685449 2675348 
1759.819 2658578 2629943 2589009 2539980 2489857 2446071 2413950 2395625 
1763.677 2390328 2394926 2405721 2417849 2426578 2428111 2420214 2404821 
1767.534 2387163 2374969 2375002 2389428 2414283 2440306 2456101 2451369 
1771.391 2422980 2376568 2326531 2288657 2273501 2282894 2310375 2346252 
1775.249 2381999 2413284 2440106 2464964 2490690 2517250 2541780 2559844 
1779.106 2567943 2565477 2555611 2544579 2538147 2539080 2545946 2554145 
1782.964 2558444 2555545 2545612 2531981 2520217 2514818 2517850 2528915 
1786.821 2545946 2567010 2590442 2615775 2641243 2664346 2680515 2684016 
1790.678 2670413 2638310 2591509 2538647 2489024 2451202 2428311 2418815 
1794.536 2418015 2420781 2423513 2423779 2420714 2413484 2401189 2382798 
1798.393 2357345 2325198 2288290 2250186 2214617 2184711 2161967 2146283 
1802.251 2136794 2132065 2131299 2134329 2140756 2149613 2159803 2169726 
1806.108 2178551 2186077 2193037 2200530 2208656 2216349 2221844 2223675 
1809.966 2220811 2214883 2208889 2206757 2211586 2224042 2242160 2262743 
1813.823 2282361 2298449 2311141 2322200 2334292 2350249 2371071 2396292 
1817.680 2423946 2451569 2476661 2497855 2514784 2527915 2538513 2547945 
1821.538 2557111 2566177 2574043 2578909 2578543 2571710 2559011 2544079 
1825.395 2532248 2528682 2536280 2554045 2577009 2597342 2607042 2601542 
1829.253 2581409 2553145 2526649 2512252 2515584 2536447 2569610 2607742 
1833.110 2644544 2676181 2702153 2724492 2746198 2769573 2795851 2825265 
1836.968 2857649 2893838 2935702 2985509 3045332 3115743 3195644 3282037 
1840.825 3370784 3457746 3538345 3609237 3668778 3718302 3762418 3808677 
1844.682 3865471 3938355 4028374 4131356 4239015 4342014 4431681 4503153 
1848.540 4555083 4590208 4612042 4623930 4626576 4618036 4595399 4556791 
1852.397 4502819 4437371 4366278 4294828 4226200 4160293 4094328 4024695 
1856.255 3949389 3868613 3784577 3700357 3618659 3540450 3465629 3393525 
1860.112 3324572 3260037 3201853 3151386 3108835 3072761 3040894 3012166 
1863.969 2986677 2965992 2952081 2945542 2944608 2944875 2940939 2929030 
1867.827 2908315 2882664 2858516 2842674 2839239 2848043 2865287 2885633 
1871.684 2904579 2919690 2930531 2937970 2943074 2946677 2948979 2950146 
1875.542 2950480 2950580 2950513 2949646 2945809 2935835 2917855 2890903 
1879.399 2857282 2820962 2787180 2759636 2739229 2724458 2711455 2696952 
1883.257 2679248 2658945 2638310 2620009 2605442 2593775 2582476 2568643 
1887.114 2549845 2525549 2496788 2465997 2436075 2410185 2390894 2380499 
1890.971 2380866 2392494 2414117 2442838 2473462 2500787 2520916 2532614 
1894.829 2538080 2541413 2547246 2558311 2574310 2592642 2610475 2625809 
1898.686 2639610 2654811 2674781 2701186 2733294 2767539 2799119 2824564 
1902.544 2842707 2854914 2863986 2872224 2880663 2888268 2893405 2894806 
1906.401 2892271 2887601 2882197 2877194 2872191 2865554 2855981 2843041 
1910.259 2828666 2815660 2806856 2803187 2803954 2806589 2808456 2808790 
1914.116 2807656 2806389 2805255 2802287 2793250 2773708 2740496 2695018 
1917.973 2643510 2594742 2556644 2533014 2521716 2517151 2512351 2502520 
1921.831 2486958 2468830 2452602 2441506 2435541 2431510 2425379 2414483 
1925.688 2399390 2383665 2371637 2366141 2366540 2369272 2369772 2364775 
1929.546 2354847 2342554 2332160 2326398 2324465 2322866 2317103 2304479 
1933.403 2285659 2264808 2246589 2235165 2231202 2232334 2234866 2237164 
1937.260 2239295 2243958 2254150 2269837 2288057 2303046 2308742 2302813 
1941.118 2287258 2268638 2254949 2251618 2258479 2271170 2282594 2287391 
1944.975 2284593 2277864 2273135 2275700 2286958 2304012 2322433 2338223 
1948.833 2350283 2360744 2373137 2389662 2409352 2428344 2441139 2444405 
1952.690 2438207 2426545 2414250 2405387 2399723 2394059 2383065 2362542 
1956.548 2332560 2297950 2264974 2239995 2225141 2218546 2214683 2207456 
1960.405 2193436 2172157 2145618 2116183 2085984 2056254 2026793 1999896 
1964.262 1978759 1966910 1966377 1975930 1990775 2003990 2010581 2008584 
1968.120 2002659 1999463 2005854 2024196 2051427 2080558 2103198 2113619 
1971.977 2111189 2099369 2083255 2067274 2055755 2050695 2056521 2080891 
1975.835 2132532 2219179 2341588 2490390 2645877 2783979 2884732 2936535 
1979.692 2941005 2907448 2852079 2788748 2726692 2670447 2621175 2579243 
1983.550 2546046 2524049 2514684 2516951 2527649 2541746 2555878 2569876 
1987.407 2587509 2613075 2649844 2695218 2742631 2782378 2806956 2812925 
1991.264 2804388 2789881 2778943 2776909 2783612 2793483 2800019 2797885 
1995.122 2786580 2769973 2753467 2740930 2733328 2727293 2718690 2704153 
1998.979 2683182 2658545 2633676 2610875 2590642 2570476 2548112 2522916 
2002.837 2497155 2475628 2463031 2461299 2469396 2482592 2495489 2504987 
2006.694 2511385 2516784 2524616 2536080 2549445 2561344 2568443 2570343 
2010.552 2569777 2571376 2579376 2595275 2616175 2636143 2649511 2652744 
2014.409 2645844 2632009 2616575 2603708 2596775 2597775 2607475 2627942 
2018.266 2660279 2703986 2754801 2806155 2848811 2875460 2884032 2878161 
2022.124 2865987 2858216 2861585 2876494 2897441 2915386 2922058 2913785 
2025.981 2892204 2863853 2836237 2814192 2799119 2790081 2784713 2782512 
2029.839 2785546 2795817 2815326 2843641 2877795 2914586 2952515 2992248 
2033.696 3037591 3091281 3153188 3219444 3283039 3336459 3376161 3403310 
2037.553 3422679 3441481 3463892 3489710 3515330 3535740 3546797 3549469 
2041.411 3547532 3547231 3553745 3568344 3588189 3608368 3624673 3635231 
2045.268 3642782 3652105 3668778 3696514 3736650 3786650 3842940 3900374 
2049.126 3953301 3995902 4021819 4026702 4008275 3969719 3917759 3863432 
2052.983 3818638 3792198 3787686 3801758 3825657 3849793 3865738 3870285 
2056.841 3864869 3854005 3842405 3832711 3825490 3819774 3815161 3812187 
2060.698 3813189 3821078 3836956 3860055 3888004 3917324 3946581 3976106 
2064.555 4006603 4039176 4072387 4101586 4121087 4125804 4113628 4087271 
2068.413 4053390 4019879 3993026 3976173 3968014 3964971 3963199 3960055 
2072.270 3955909 3952465 3951195 3952566 3955809 3959086 3961560 3964034 
2076.128 3968348 3977042 3991522 4010349 4029979 4046467 4056300 4058239 
2079.985 4053490 4044527 4034360 4024729 4015900 4007606 3999982 3993795 
2083.843 3990986 3992825 3999346 4008744 4017471 4021351 4017438 4005065 
2087.700 3985435 3961493 3935881 3910136 3884126 3857147 3828198 3797245 
2091.557 3765927 3736550 3711385 3692638 3681510 3678803 3685386 3701493 
2095.415 3727359 3761449 3800655 3840299 3875567 3902246 3919197 3927188 
2099.272 3929327 3929261 3929963 3933072 3939224 3948754 3962496 3981556 
2103.130 4007272 4039109 4075230 4111755 4144202 4169592 4187223 4199200 
2106.987 4209672 4222452 4239918 4261867 4286395 4311091 4334785 4357810 
2110.844 4381707 4407949 4436133 4463884 4487452 4502685 4507941 4504258 
2114.702 4495186 4485276 4479451 4480020 4487084 4498701 4512394 4525685 
2118.559 4537137 4545909 4551534 4554112 4553509 4550362 4545574 4540685 
2122.417 4537002 4534994 4533688 4530875 4524280 4512628 4496022 4477107 
2126.274 4458360 4441857 4427731 4413136 4393824 4365943 4326954 4277360 
2130.132 4220044 4159489 4100583 4046968 4001420 3966242 3942769 3932738 
2133.989 3936784 3953937 3980486 4010717 4038607 4058674 4068373 4068407 
2137.846 4061417 4050346 4037337 4022220 4004128 3982392 3957113 3930832 
2141.704 3905221 3882421 3862128 3842472 3820844 3795775 3768133 3741162 
2145.561 3719505 3706372 3702095 3703732 3705303 3700724 3684885 3655312 
2149.419 3611175 3552877 3480993 3396263 3300800 3198448 3094185 2994550 
2153.276 2903445 2821696 2746065 2671180 2594609 2520283 2460699 2434808 
2157.134 2464164 2562510 2729360 2947944 3189035 3420709 3616621 3762852 
2160.991 3857381 3907595 3923510 3916188 3895994 3871020 3849625 3839162 
2164.848 3842940 3860791 3887469 3914315 3932403 3935814 3923476 3899638 
2168.706 3871455 3844076 3820476 3799585 3777959 3753026 3725254 3697617 
2172.563 3675796 3664134 3663699 3671920 3683983 3694075 3698853 3696848 
2176.421 3688059 3672421 3648897 3615151 3570048 3516065 3459850 3411558 
2180.278 3381503 3376728 3398300 3440246 3491948 3543423 3587353 3620897 
2184.135 3645489 3664234 3678836 3688995 3693707 3692069 3685587 3678101 
2187.993 3674793 3679204 3692638 3712488 3735280 3757137 3777224 3797379 
2191.850 3821680 3853102 3893386 3940528 3990184 4038307 4081652 4119114 
2195.708 4150424 4175346 4192275 4198999 4193613 4176417 4151059 4124165 
2199.565 4103025 4093726 4098141 4113962 4135772 4157349 4174343 4185249 
2203.423 4191204 4193914 4195587 4196356 4196189 4195152 4194784 4197159 
2207.280 4205891 4222185 4245706 4273412 4300583 4323975 4341679 4354363 
2211.137 4364604 4374913 4386025 4396769 4404501 4406610 4402024 4392652 
2214.995 4380870 4371432 4367382 4369926 4378829 4392619 4409354 4427262 
2218.852 4444903 4460469 4472220 4478881 4479015 4473157 4462712 4448887 
2222.710 4433355 4416316 4396568 4372603 4343587 4310723 4277126 4247145 
2226.567 4224795 4212315 4208869 4211311 4216096 4220244 4222854 4225363 
2230.425 4229546 4236739 4246877 4258889 4270969 4282781 4295229 4311526 
2234.282 4333814 4364102 4400685 4440418 4478212 4509682 4532750 4547549 
2238.139 4555786 4560306 4563354 4565697 4567840 4569716 4571691 4575408 
2241.997 4582373 4593457 4608626 4626308 4644627 4662076 4677415 4691114 
2245.854 4703976 4717139 4731443 4747454 4764740 4783266 4802797 4822664 
2249.712 4841930 4859319 4872856 4881434 4885221 4886092 4886461 4889745 
2253.569 4897318 4908845 4921948 4932806 4938369 4937263 4930158 4919602 
2257.427 4908544 4898892 4890918 4883679 4875303 4865183 4853791 4842734 
2261.284 4833888 4829097 4828394 4831342 4837440 4846084 4858080 4874598 
2265.141 4895776 4920943 4947585 4972487 4992597 5006473 5014517 5019277 
2268.999 5023970 5030808 5040596 5052328 5063458 5071503 5075190 5074319 
2272.856 5070062 5064262 5058530 5054541 5053669 5056652 5064664 5078308 
2276.714 5097585 5121858 5149116 5177080 5204041 5228185 5249716 5268731 
2280.571 5286742 5304116 5321658 5339000 5356410 5373652 5391634 5410320 
2284.428 5430115 5449910 5467962 5482558 5491585 5494135 5490612 5481753 
2288.286 5469204 5454239 5438100 5421828 5406731 5394687 5387440 5387138 
2292.143 5394553 5409582 5430685 5454910 5479874 5503027 5523430 5540713 
2296.001 5555714 5568568 5579845 5589343 5596593 5601493 5604346 5605454 
2299.858 5605554 5605521 5605622 5606394 5608173 5611261 5615691 5621297 
2303.716 5627036 5631434 5632642 5629218 5620827 5608542 5594411 5581020 
2307.573 5571018 5564910 5562762 5562963 5563735 5563668 5562493 5560312 
2311.430 5558265 5557460 5558466 5561688 5567226 5574743 5584410 5596291 
2315.288 5609784 5624083 5637778 5649258 5657113 5660973 5661544 5660906 
2319.145 5661946 5667754 5680645 5701694 5729660 5761422 5791710 5813436 
2323.003 5819950 5806015 5768944 5710221 5634555 5550177 5465815 5389721 
2326.860 5327797 5282516 5252935 5235798 5227112 5222988 5220875 5219835 
2330.718 5219734 5220707 5222988 5226743 5232176 5240225 5251828 5268161 
2334.575 5289325 5314547 5341985 5369426 5394653 5416795 5435919 5452729 
2338.432 5468264 5482659 5495544 5505947 5513262 5517625 5519873 5521383 
2342.290 5523028 5524974 5526517 5527155 5527323 5529773 5538968 5560379 
2346.147 5598607 5656005 5731574 5821327 5919429 6019400 6115127 6201935 
2350.005 6276523 6337037 6383134 6415919 6437676 6450758 6458157 6462529 
2353.862 6465354 6467809 6470600 6473963 6478874 6486307 6496733 6511027 
2357.719 6528820 6549742 6572549 6596165 6620084 6644173 6669172 6695720 
2361.577 6724894 6757066 6792841 6832557 6876519 6924794 6976981 7031969 
2365.434 7087535 7141324 7190977 7234941 7273316 7306573 7336058 7362984 
2369.292 7387452 7409190 7427593 7442491 7454491 7464839 7475829 7488908 
2373.149 7505595 7526058 7550501 7579059 7612676 7652771 7700964 7758607 
2377.007 7826243 7903102 7987703 8078328 8173835 8273415 8377004 8484740 
2380.864 8596254 8710534 8825860 8940133 9051290 9157772 9258290 9351652 
2384.721 9437010 9512968 9578304 9632132 9674006 9704262 9724219 9735232 
2388.579 9738723 9735842 9727710 9714800 9697825 9677733 9654864 9629693 
2392.436 9601678 9570209 9534645 9494510 9450284 9403860 9357476 9314109 
2396.294 9276026 9244514 9220043 9202342 9190734 9185217 9186132 9194084 
2400.151 9209991 9234224 9266684 9306729 9353345 9405519 9463050 9525906 
2404.009 9594395 9669195 9750989 9839849 9936049 10039086 10148353 10263382 
2407.866 10383532 10508468 10638465 10773867 10915292 11063153 11216776 
2411.241 11374841 11534870 11693969 11849212 11997868 12138125 12268304 
2414.616 12386930 12492494 12583144 12657199 12713695 12753069 12776682 
2417.992 12787533 12788830 12783336 12772929 12758426 12739831 12716936 
2421.367 12689506 12658427 12624655 12589215 12553198 12516911 12480524 
2424.742 12444619 12410454 12379907 12356077 12342032 12340430 12353521 
2428.117 12382328 12426684 12486151 12559269 12644884 12741537 12847698 
2431.493 12962216 13084242 13213270 13349410 13493385 13645785 13806925 
2434.868 13976851 14154478 14339129 14529409 14724399 14923867 15128263 
2438.243 15338214 15555478 15781509 16018247 16267050 16529178 16805206 
2441.618 17094954 17397278 17711130 18035124 18368518 18711058 19062318 
2444.994 19422452 19790726 20165662 20545856 20929372 21315212 21703066 
2448.369 22092976 22485224 22879296 23274142 23667460 24056686 24439426 
2451.744 24813838 25178778 25533130 25875322 26202896 26512510 26799892 
2455.119 27060876 27291882 27489654 27651954 27776660 27861584 27904864 
2458.495 27904298 27858404 27766416 27628330 27445356 27219030 26951570 
2461.870 26645732 26304058 25929484 25525152 25094202 24640356 24168102 
2465.245 23682190 23188992 22695096 22207970 21735182 21283092 20857024 
2468.620 20460336 20094722 19760556 19457104 19184060 18940954 18727974 
2471.996 18545460 18392818 18268636 18170780 18095156 18037508 17993470 
2475.371 17958420 17928756 17901790 17875134 17847790 17819344 17790346 
2478.746 17761350 17733426 17706712 17680898 17654878 17627064 17596148 
2482.121 17561506 17523384 17482748 17440700 17398140 17355238 17311306 
2485.497 17265310 17216562 17165406 17112600 17060148 17009872 16963286 
2488.872 16921184 16883566 16849534 16818018 16787574 16757026 16725138 
2492.247 16690807 16653210 16612172 16567765 16520884 16472492 16423179 
2495.622 16372977 16321369 16267188 16209092 16146431 16079342 16008278 
2498.998 15934508 15858689 15781064 15701218 15618947 15533946 15447245 
2502.373 15360286 15274820 15192563 15114712 15041163 14971982 14906687 
2505.748 14845653 14789324 14738590 14694031 14655475 14621650 14590672 
2509.123 14560485 14529546 14496725 14461783 14424445 14384439 14341252 
2512.499 14294269 14243250 14189053 14133221 14078354 14026470 13979316 
2515.874 13937161 13899048 13863605 13828714 13793894 13758803 13724501 
2519.249 13692014 13663120 13638639 13619629 13606363 13599047 13597474 
2522.624 13600893 13608517 13618979 13630877 13643425 13656657 13670985 
2526.000 13687432 13706991 13729836 13755007 13780794 13804702 13824302 
2529.375 13837984 13844894 13845852 13842328 13836000 13829228 13824336 
2532.750 13822660 13825294 13832238 13842944 13856251 13870448 13884474 
2536.125 13897781 13910543 13923715 13938598 13956253 13977125 14001044 
2539.500 14027634 14056073 14086568 14119289 14154821 14193607 14235170 
2542.876 14278243 14320773 14360363 14395023 14423623 14446162 14463769 
2546.251 14478191 14491552 14505735 14522386 14542462 14566173 14593105 
2549.626 14622096 14651396 14679191 14703594 14723440 14738385 14748873 
2553.001 14756586 14763613 14771567 14781919 14795084 14810203 14825905 
2556.377 14840201 14851173 14857379 14858133 14853368 14843939 14830842 
2559.752 14815140 14796901 14776572 14753330 14726765 14696877 14664248 
2563.127 14629566 14594133 14558498 14522419 14485283 14446094 14404031 
2566.502 14359575 14314267 14270470 14230925 14197647 14171457 14152390 
2569.878 14139382 14131235 14127367 14127812 14132605 14142292 14156635 
2573.253 14174744 14195661 14218394 14242223 14267595 14294954 14324712 
2576.628 14357006 14391084 14425918 14460686 14495046 14529306 14564357 
2580.003 14601089 14639847 14680459 14722343 14765088 14808557 14853710 
2583.379 14901372 14952845 15007857 15065586 15124009 15181033 15235354 
2586.754 15286695 15336257 15386341 15439210 15496722 15559633 15627431 
2590.129 15698744 15771443 15842916 15911169 15974142 16030760 16080925 
2593.504 16125523 16166687 16206890 16248545 16293401 16341323 16391454 
2596.880 16442072 16491801 16540503 16589278 16640471 16696662 16759263 
2600.255 16828420 16902550 16979306 17055942 17130834 17203842 17276068 
2603.630 17349514 17425938 17506792 17592420 17682658 17776676 17874064 
2607.005 17973992 18076296 18180832 18287400 18395342 18504416 18613830 
2610.381 18722648 18829728 18933754 19032856 19125746 19210866 19287548 
2613.756 19355828 19415906 19468332 19513488 19551404 19581594 19604088 
2617.131 19618682 19626066 19627696 19625408 19620764 19615562 19610710 
2620.506 19606828 19604160 19602876 19603432 19606412 19612514 19622322 
2623.882 19636432 19655154 19678346 19705702 19736768 19770820 19807130 
2627.257 19845036 19883954 19923810 19964778 20007488 20052458 20100346 
2630.632 20151744 20206726 20265392 20327574 20393272 20462142 20533870 
2634.007 20607904 20683410 20759590 20836094 20912300 20988624 21065554 
2637.383 21143572 21223000 21303728 21385480 21467492 21549658 21631668 
2640.758 21713900 21796494 21879700 21963304 22046576 22128642 22208910 
2644.133 22287068 22363250 22438362 22512862 22587582 22662734 22738914 
2647.508 22815908 22894522 22975282 23059134 23146564 23238138 23333644 
2650.884 23432390 23533714 23636844 23741224 23846996 23954122 24062884 
2654.259 24173392 24285786 24400170 24516792 24635726 24757500 24882466 
2657.634 25010590 25141596 25274890 25409558 25544656 25679200 25812658 
2661.009 25944716 26075440 26205008 26334016 26463064 26592430 26722222 
2664.385 26852548 26982560 27111872 27239668 27365488 27489442 27612088 
2667.760 27734522 27857802 27982958 28110764 28241894 28376390 28514114 
2671.135 28654638 28797760 28942630 29088574 29234460 29379368 29522586 
2674.510 29663334 29801428 29936836 30069194 30198644 30324938 30447748 
2677.885 30567534 30684724 30800664 30916564 31034382 31155542 31281400 
2681.261 31413138 31551682 31698328 31854116 32020338 32198008 32387744 
2684.636 32589604 32803166 33027702 33262014 33504970 33755472 34012684 
2688.011 34275560 34543736 34816664 35094364 35377348 35665916 35961040 
2691.386 36263032 36572152 36888308 37211088 37539884 37874284 38213968 
2694.762 38558880 38908924 39264144 39624520 39990356 40361876 40739396 
2698.137 41123036 41512552 41906836 42304476 42703828 43102932 43500972 
2701.512 43897544 44292828 44687220 45080872 45473328 45862944 46247524 
2704.887 46624260 46990460 47343268 47679832 47997708 48294228 48566864 
2708.263 48813752 49033220 49224784 49388436 49525300 49636012 49721756 
2711.638 49783248 49820744 49834904 49825948 49794436 49740520 49664284 
2715.013 49565516 49443384 49297264 49126784 48931780 48713104 48472532 
2718.388 48212024 47934320 47641816 47337284 47023028 46701732 46375844 
2721.764 46048208 45722224 45401592 45090132 44791640 44509652 44246852 
2725.139 44005444 43786700 43590784 43417620 43266416 43136780 43027560 
2728.514 42938556 42869064 42818892 42787668 42775236 42781268 42805364 
2731.889 42846976 42905128 42978540 43065684 43165068 43274836 43393964 
2735.265 43521444 43656436 43798684 43947292 44100932 44257896 44416052 
2738.640 44573020 44727324 44877680 45023712 45165496 45303164 45436576 
2742.015 45565540 45689648 45808776 45923192 46033844 46142384 46250548 
2745.390 46360100 46472228 46587552 46706452 46828448 46953064 47079524 
2748.766 47206536 47333000 47457276 47578116 47694436 47805840 47912488 
2752.141 48015284 48115664 48215540 48316668 48420744 48529552 48644388 
2755.516 48766224 48895808 49032740 49176764 49326368 49480176 49636088 
2758.891 49791644 49944732 50092108 50230904 50358100 50470776 50566364 
2762.267 50643352 50700768 50737896 50754652 50750372 50724524 50676380 
2765.642 50605896 50513952 50401932 50273160 50131376 49980308 49823532 
2769.017 49664248 49505132 49348268 49196060 49050324 48913056 48785316 
2772.392 48667884 48560264 48462084 48372368 48290188 48215728 48148904 
2775.768 48089568 48037304 47990676 47947012 47902540 47852744 47793076 
2779.143 47718996 47626844 47514052 47379332 47222752 47045956 46851260 
2782.518 46642852 46424328 46200276 45974608 45750644 45530580 45316184 
2785.893 45108068 44906704 44711752 44523092 44340124 44162076 43988280 
2789.269 43817928 43650644 43485696 43323048 43162652 43004916 42850052 
2792.644 42698932 42552180 42410592 42274820 42145372 42022348 41905852 
2796.019 41795156 41689300 41587296 41487436 41388616 41289640 41189476 
2799.394 41087484 40983404 40876728 40767452 40655484 40540664 40422640 
2802.770 40301556 40177348 40050012 39919736 39786880 39651528 39514368 
2806.145 39376052 39237196 39099004 38963144 38830836 38704000 38583792 
2809.520 38470720 38364908 38265640 38171856 38082792 37997516 37915716 
2812.895 37837552 37763672 37694532 37630568 37571784 37518032 37469232 
2816.271 37425416 37387320 37356152 37333692 37322320 37324776 37343516 
2819.646 37381072 37439288 37519728 37622692 37747728 37893628 38058308 
2823.021 38239152 38433648 38639164 38853192 39073920 39299184 39526596 
2826.396 39753400 39976364 40191924 40396056 40585156 40755844 40905888 
2829.771 41033584 41138408 41220224 41280312 41319808 41340652 41345176 
2833.147 41335080 41313104 41281912 41243652 41201284 41157276 41113892 
2836.522 41073060 41036496 41004964 40979544 40961156 40950960 40950960 
2839.897 40963484 40991704 41038976 41108972 41205508 41332452 41494324 
2843.272 41695648 41942016 42238960 42592564 43007440 43486392 44027808 
2846.648 44624388 45262272 45918516 46563580 47163248 47679276 48076984 
2850.023 48327964 48413152 48326480 48074392 47675468 47154824 46544324 
2853.398 45877492 45185056 44495960 43834568 43218392 42660588 42168156 
2856.773 41742956 41382312 41080456 40829512 40620296 40443880 40292176 
2860.149 40158048 40035984 39921624 39812084 39705620 39601180 39498832 
2863.524 39398760 39302012 39210108 39125036 39049776 38988044 38943824 
2866.899 38921536 38924832 38956216 39016532 39104296 39216996 39349964 
2870.274 39497744 39654612 39814624 39972116 40122396 40261420 40386564 
2873.650 40496908 40593304 40678372 40755920 40830860 40908180 40992108 
2877.025 41086212 41192760 41313104 41447300 41595208 41755868 41928552 
2880.400 42111816 42305172 42507708 42718856 42937500 43162468 43391736 
2883.775 43622288 43850880 44073280 44285156 44482784 44663020 44823968 
2887.151 44965464 45089068 45198216 45297648 45393500 45492644 45601716 
2890.526 45727780 45877636 46058416 46278596 46548124 46878792 47285112 
2893.901 47782312 48385220 49107568 49956812 50933116 52024288 53205128 
2897.276 54434704 55655008 56800416 57798564 58579100 59088532 59292140 
2900.652 59182996 58780004 58126436 57281828 56308520 55271036 54225028 
2904.027 53212844 52267996 51412840 50660628 50019528 49492544 49079332 
2907.402 48777196 48582240 48490464 48498428 48603808 48805300 49101404 
2910.777 49489760 49965624 50520800 51144116 51820140 52529152 53249808 
2914.153 53956436 54622352 55222348 55733016 56136660 56423964 56593444 
2917.528 56651804 56611640 56489432 56301276 56060912 55779052 55461268 
2920.903 55109896 54724980 54306276 53854888 53374560 52871408 52355340 
2924.278 51838096 51331124 50846016 50392216 49975472 49599352 49264752 
2927.654 48970872 48715512 48496056 48309004 48150164 48015100 47898248 
2931.029 47793556 47695400 47597968 47496384 47386468 47264684 47128160 
2934.404 46975032 46804280 46616108 46411976 46194492 45967056 45733196 
2937.779 45496916 45261868 45032020 44811920 44606320 44420528 44259656 
2941.155 44127888 44027440 43958032 43916492 43896696 43889220 43882768 
2944.530 43864736 43821228 43740048 43611044 43428132 43190540 42903224 
2947.905 42576704 42224968 41864076 41509636 41173848 40865624 40589192 
2951.280 40344784 40129880 39940364 39771556 39618820 39478040 39345504 
2954.656 39218012 39092660 38966948 38838732 38706716 38569928 38428324 
2958.031 38282356 38133180 37982288 37831480 37682388 37536600 37395044 
2961.406 37258920 37128644 37005268 36889608 36783172 36687476 36603836 
2964.781 36533764 36478008 36437108 36410988 36399456 36402336 36419308 
2968.156 36449832 36493468 36549332 36616560 36694216 36781548 36877992 
2971.532 36983476 37097788 37220652 37351424 37488628 37629268 37769452 
2974.907 37903824 38025216 38125692 38196384 38227788 38211908 38142080 
2978.282 38014656 37829708 37591008 37306432 36986472 36643492 36291020 
2981.657 35941060 35604588 35289580 35001228 34741676 34510116 34303888 
2985.033 34118832 33950156 33794548 33649448 33514418 33390488 33279684 
2988.408 33182860 33099178 33023592 32947372 32858342 32741886 32584996 
2991.783 32378108 32117870 31808336 31460512 31091080 30717228 30356028 
2995.158 30019982 29715380 29443650 29201358 28983218 28783246 28597022 
2998.534 28421632 28255862 28099486 27952212 27813362 27681546 27554750 
3001.909 27431732 27311042 27192502 27076462 26963840 26855580 26752774 
3005.284 26655666 26564214 26478030 26396756 26320112 26247984 26180760 
3008.659 26118754 26062246 26011164 25964904 25922274 25882286 25843566 
3012.035 25805342 25767194 25729504 25692872 25658284 25626860 25599726 
3015.410 25578252 25563634 25556956 25558996 25569538 25587392 25610412 
3018.785 25635612 25660288 25681940 25699410 25712420 25721560 25727640 
3022.160 25731016 25731226 25727676 25719836 25707778 25693224 25678776 
3025.536 25668126 25664610 25670656 25686968 25712876 25746240 25783860 
3028.911 25823206 25861502 25896706 25927234 25951854 25969584 25979502 
3032.286 25981824 25976512 25964976 25948794 25930012 25910878 25893258 
3035.661 25878312 25867022 25859602 25855840 25855276 25857598 25862698 
3039.037 25870610 25882286 25898042 25918512 25943834 25973170 26005534 
3042.412 26039942 26075230 26111260 26148382 26187306 26228766 26273010 
3045.787 26319230 26366336 26412742 26457112 26499090 26539064 26578270 
3049.162 26618286 26660492 26705522 26753196 26802712 26852690 26901404 
3052.538 26947622 26989964 27027904 27061476 27091168 27117900 27143226 
3055.913 27168620 27195500 27224462 27255824 27289342 27324732 27361714 
3059.288 27400214 27440484 27482488 27526366 27571802 27618478 27666362 
3062.663 27715486 27766592 27820568 27878224 27939810 28005222 28073472 
3066.039 28143498 28214560 28286098 28358174 28431008 28504736 28578904 
3069.414 28652656 28724902 28794856 28861778 28926160 28988462 29049498 
3072.789 29109832 29169998 29230136 29290426 29351502 29414042 29478862 
3076.164 29546384 29616686 29689020 29762572 29836316 29909218 29981104 
3079.540 30051902 30121786 30190832 30259034 30326038 30391916 30456988 
3082.915 30521678 30586838 30653078 30720572 30789460 30859500 30930620 
3086.290 31002924 31077232 31153834 31233546 31315978 31400458 31485840 
3089.665 31571102 31655454 31738962 31822600 31907532 31994764 32084976 
3093.041 32177954 32273096 32369756 32466828 32563996 32661256 32758464 
3096.416 32856088 32954272 33052872 33152104 33251676 33351488 33451286 
3099.791 33550854 33649948 33748348 33846336 33944028 34041708 34139732 
3103.166 34237740 34335588 34432852 34529524 34626044 34723444 34823088 
3106.542 34926388 35034056 35145488 35259248 35373000 35484552 35592000 
3109.917 35694832 35793336 35889164 35983932 36079368 36176592 36276248 
3113.292 36378776 36483852 36591432 36701248 36812676 36924960 37037380 
3116.667 37149076 37259572 37369300 37478800 37589092 37701108 37815468 
3120.042 37931592 38049012 38166212 38281704 38394844 38505256 38613200 
3123.418 38719760 38825544 38931392 39037376 39143460 39249200 39354536 
3126.793 39459680 39565140 39671964 39780924 39892564 40006484 40122068 
3130.168 40238124 40353476 40467592 40580572 40693140 40806508 40921216 
3133.543 41037808 41156000 41274516 41392440 41508796 41623252 41736316 
3136.919 41848896 41962124 42077028 42193896 42312624 42432512 42552836 
3140.294 42672648 42790956 42907324 43021672 43134108 43245700 43357168 
3143.669 43469844 43584736 43702528 43822948 43945896 44070200 44195164 
3147.044 44320272 44445268 44569972 44694824 44819780 44944624 45069364 
3150.420 45194064 45318836 45443972 45569880 45696752 45824536 45952656 
3153.795 46080556 46207792 46334220 46459984 46585748 46711988 46838712 
3157.170 46965724 47092560 47218768 47344448 47469916 47595788 47722692 
3160.545 47850672 47979168 48107408 48234464 48360260 48485200 48610628 
3163.921 48738052 48868368 49001912 49137988 49274588 49410192 49542864 
3167.296 49671452 49795624 49915664 50032096 50145660 50256792 50365800 
3170.671 50472900 50578052 50681108 50782024 50880584 50976372 51069648 
3174.046 51160476 51248796 51334592 51418024 51498336 51575192 51648552 
3177.422 51718868 51787064 51855160 51924536 51996984 52073068 52152720 
3180.797 52235220 52319048 52403152 52486488 52568232 52647780 52724880 
3184.172 52798884 52870132 52939220 53007276 53075824 53146144 53219100 
3187.547 53294572 53371824 53449536 53526512 53602192 53676536 53749876 
3190.923 53822444 53894836 53966192 54035944 54103828 54169664 54234304 
3194.298 54298876 54364328 54431288 54499648 54568696 54637460 54704912 
3197.673 54770496 54833572 54894216 54952044 55007064 55059640 55110612 
3201.048 55161472 55213956 55269272 55328128 55390008 55453172 55515784 
3204.424 55576412 55634288 55689732 55743528 55796232 55847516 55896688 
3207.799 55942556 55984732 56023972 56062540 56103256 56148424 56199220 
3211.174 56254808 56312292 56368800 56421512 56469316 56513244 56555396 
3214.549 56598164 56643612 56692312 56743624 56796148 56848492 56899444 
3217.925 56948776 56996416 57042436 57087668 57132524 57177576 57224032 
3221.300 57272832 57324856 57380252 57438828 57499568 57561496 57623612 
3224.675 57685516 57747580 57810068 57872908 57935908 57998460 58059396 
3228.050 58118632 58175832 58231676 58286884 58341868 58396976 58452240 
3231.426 58507936 58564652 58623468 58685552 58752044 58822684 58896936 
3234.801 58972876 59048712 59123540 59196932 59269540 59342428 59416164 
3238.176 59490484 59564968 59637940 59708992 59778188 59846716 59915628 
3241.551 59986340 60059196 60133476 60208140 60282180 60355352 60428420 
3244.927 60502456 60578864 60658224 60739768 60822200 60904156 60984372 
3248.302 61063116 61141416 61220916 61302984 61388388 61476632 61566424 
3251.677 61655700 61742968 61826816 61906708 61982944 62055904 62126356 
3255.052 62195288 62263164 62330436 62397340 62463596 62528604 62591748 
3258.427 62652448 62710404 62765532 62818140 62868304 62916480 62962444 
3261.803 63005880 63046716 63084840 63120896 63155384 63189068 63221908 
3265.178 63254104 63284464 63312100 63335864 63355156 63369832 63380340 
3268.553 63387820 63393036 63397132 63400968 63404456 63407680 63410096 
3271.928 63410440 63407792 63401200 63390160 63375084 63357340 63338204 
3275.304 63319808 63302904 63287876 63274188 63260772 63246324 63230224 
3278.679 63212596 63193968 63175464 63158296 63143192 63131124 63122540 
3282.054 63117908 63117788 63122540 63131468 63143536 63157448 63170596 
3285.429 63181632 63189484 63194396 63197420 63200220 63204392 63210792 
3288.805 63219764 63230648 63242988 63256292 63270396 63286340 63305236 
3292.180 63328736 63358104 63394568 63438164 63488856 63545464 63606836 
3295.555 63671596 63738704 63808008 63879548 63954212 64033152 64116864 
3298.930 64205788 64299220 64396544 64496556 64598584 64702408 64808212 
3302.306 64916588 65028144 65142848 65260664 65381088 65503940 65629288 
3305.681 65757452 65889044 66024840 66165432 66311196 66462688 66619956 
3309.056 66783300 66952696 67127656 67307176 67490360 67675720 67862360 
3312.431 68050088 68239216 68430624 68625160 68823192 69024344 69227928 
3315.807 69432536 69637040 69840560 70043312 70244952 70445944 70646728 
3319.182 70847008 71047424 71248008 71448728 71649496 71849816 72048424 
3322.557 72243768 72434376 72619304 72798328 72972200 73141448 73306752 
3325.932 73468320 73625672 73778240 73926232 74070112 74211008 74350264 
3329.308 74487632 74622128 74751720 74873112 74983824 75082680 75169664 
3332.683 75245816 75312096 75368648 75414648 75448352 75468136 75473224 
3336.058 75464744 75444288 75414208 75375896 75329392 75273360 75205984 
3339.433 75125696 75031672 74924024 74803632 74671120 74526336 74368784 
3342.809 74197136 74010856 73810048 73595168 73367568 73127608 72875512 
3346.184 72610768 72332912 72042008 71739464 71427672 71109320 70787176 
3349.559 70462744 70136528 69808064 69476856 69142824 68806032 68467632 
3352.934 68128608 67789576 67451352 67113696 66777116 66442148 66110216 
3356.310 65782816 65461100 65146200 64838724 64538492 64245664 63960128 
3359.685 63682220 63412400 63150592 62896908 62651224 62412832 62181452 
3363.060 61956652 61738192 61525536 61318092 61115212 60916504 60722044 
3366.435 60532356 60348500 60171416 60001560 59838308 59680212 59525444 
3369.811 59371756 59218308 59063972 58909044 58753296 58596164 58436244 
3373.186 58272332 58102796 57927084 57745540 57558544 57366372 57168692 
3376.561 56963700 56749324 56523356 56284304 56031928 55766696 55489540 
3379.936 55201124 54901136 54588724 54262912 53923308 53570516 53206324 
3383.312 52832824 52452204 52065636 51673596 51275788 50872316 50463148 
3386.687 50049308 49632524 49214984 48798256 48383812 47972472 47564512 
3390.062 47160032 46759328 46362608 45970372 45583608 45203072 44829588 
3393.437 44463768 44105776 43754632 43408576 43065244 42721888 42376400 
3396.813 42028076 41677592 41327132 40979036 40635724 40298288 39966412 
3400.188 39638568 39312860 38987788 38662600 38337476 38013028 37689796 
3403.563 37367924 37046764 36725584 36404212 36082504 35761388 35441988 
3406.938 35125368 34812396 34502980 34197296 33895236 33596712 33302400 
3410.313 33013116 32728988 32450474 32177168 31908314 31643942 31383752 
3413.689 31127990 30877500 30632526 30393268 30159008 29928918 29701580 
3417.064 29475882 29251296 29027072 28802930 28579080 28355982 28134200 
3420.439 27915216 27700476 27491560 27289484 27094590 26906340 26723598 
3423.814 26544702 26368414 26193710 26020416 25848418 25677652 25507654 
3427.190 25338110 25168596 24999254 24830714 24664202 24500948 24341362 
3430.565 24185512 24031996 23879726 23727436 23574748 23422216 23271380 
3433.940 23123500 22979440 22839306 22701940 22566328 22431350 22296832 
3437.315 22162986 22030784 21900642 21772214 21644170 21514562 21381896 
3440.691 21245234 21105552 20964942 20826292 20692690 20565624 20444882 
3444.066 20328340 20212904 20095036 19972308 19843996 19711388 19577330 
3447.441 19445116 19317964 19197776 19084682 18977228 18872880 18769248 
3450.816 18664362 18556872 18447128 18335474 18222884 18109976 17996822 
3454.192 17883488 17770048 17656568 17544014 17433320 17325340 17221216 
3457.567 17120838 17023550 16928524 16833966 16738877 16642192 16543807 
3460.942 16443826 16343009 16242558 16142957 16044995 15948979 15854394 
3464.317 15760791 15668066 15575672 15483777 15393035 15303788 15216720 
3467.693 15132244 15050116 14970061 14891702 14815002 14739687 14665928 
3471.068 14593722 14522214 14450444 14377007 14300844 14221680 14140375 
3474.443 14058880 13979590 13904795 13835419 13771594 13711779 13654572 
3477.818 13597816 13540556 13482516 13423869 13364922 13305984 13247190 
3481.194 13188746 13131402 13076388 13025307 12979354 12939105 12903708 
3484.569 12871692 12840565 12808555 12774669 12739216 12703119 12667637 
3487.944 12633353 12600471 12568410 12536350 12504190 12472852 12443868 
3491.319 12419217 12399919 12386589 12378509 12374657 12373532 12374691 
3494.695 12377963 12383998 12393510 12407215 12425627 12448676 12476501 
3498.070 12509068 12546718 12589488 12636730 12687664 12740922 12795280 
3501.445 12849849 12904834 12961430 13021552 13087451 13160705 13242920 
3504.820 13334308 13434771 13543632 13659735 13781752 13907567 14035539 
3508.196 14163994 14292351 14420951 14551029 14684983 14824498 14970267 
3511.571 15122122 15278492 15437254 15596485 15754880 15911926 16067274 
3514.946 16220512 16370775 16516272 16655825 16788054 16912642 17029752 
3518.321 17139450 17241626 17335098 17417418 17485818 17537804 17571374 
3521.697 17586142 17582346 17561230 17524006 17471468 17404382 17322788 
3525.072 17226628 17115220 16987610 16842646 16679652 16498065 16299112 
3528.447 16085498 15860613 15628736 15393618 15157530 14921638 14685737 
3531.822 14449279 14211101 13970556 13727237 13480636 13230418 12976315 
3535.198 12718745 12459349 12200824 11946948 11701662 11467878 11247106 
3538.573 11038784 10841058 10650927 10465937 10284248 10104805 9927370 
3541.948 9751734 9578033 9405891 9234902 9064181 8893866 8723956 8555125 
3545.805 8388591 8226138 8069653 7921357 7782961 7655367 7538263 7429885 
3549.663 7326993 7226114 7123405 7016680 6905403 6790923 6675665 6562794 
3553.520 6454996 6353612 6259245 6171418 6089421 6012345 5939179 5868713 
3557.378 5799365 5729358 5656710 5580214 5499738 5416460 5333063 5252432 
3561.235 5177550 5110325 5051524 5000306 4954154 4909750 4862670 4808224 
3565.093 4742563 4662745 4568443 4462143 4349912 4239617 4138883 4053323 
3568.950 3985502 3934376 3896027 3866006 3839965 3813958 3785413 3753260 
3572.807 3716565 3675462 3630654 3582877 3533502 3484199 3436639 3392390 
3576.665 3352052 3315691 3282437 3250689 3219177 3186665 3152654 3117778 
3580.522 3082905 3049403 3018840 2992382 2970830 2954316 2941306 2929497 
3584.380 2915353 2894839 2863686 2819028 2759836 2688050 2608242 2527249 
3588.237 2452235 2388995 2341155 2308876 2290455 2282328 2279830 2278397 
3592.094 2273801 2262243 2242126 2213351 2177851 2139124 2101400 2068706 
3595.952 2043671 2027259 2018637 2015841 2015508 2015075 2011779 2004123 
3599.809 1991474 1974798 1955893 1936655 1919682 1906403 1897184 1891527 
3603.667 1887667 1883407 1876286 1864206 1845339 1818620 1783751 1741034 
3607.524 1692134 1639847 1588065 1540912 1501975 1472917 1453036 1439838 
3611.382 1429067 1417166 1401808 1382861 1362818 1345701 1335032 1333403 
3615.239 1340316 1352481 1364746 1371294 1366973 1348426 1315523 1271655 
3619.096 1222642 1175628 1136691 1109318 1093938 1088457 1089022 1092344 
3622.954 1096861 1102674 1112241 1128718 1154033 1187755 1224802 1256502 
3626.811 1270957 1255671 1203238 1114899 1004027 892188 802352 748214 731353 
3631.151 742837 770154 800394 823664 835482 835416 826818 814369 802352 
3635.490 792792 785556 779946 774668 769888 766503 765772 768594 774436 
3639.830 781506 787381 789705 787149 780975 773739 769092 770984 782137 
3644.170 803348 833391 869080 905901 938175 960058 965571 950096 910582 
3648.509 847102 763748 668994 574028 492617 436594 412416 421072 457092 
3652.849 510929 569981 622238 657711 669989 658707 629605 593902 563777 
3657.188 548250 551236 570213 599377 631164 659271 679115 689403 690299 
3661.528 684326 674503 664315 656881 654492 659271 671416 690830 716119 
3665.868 744795 773705 798900 815597 818983 803945 768428 714294 650145 
3670.207 589755 548714 538762 563312 616929 685753 751168 794684 799497 
3674.547 757474 672976 565634 462499 385984 346554 340652 356735 382104 
3678.886 406977 427473 443924 459712 478354 501607 529440 560061 592111 
3683.226 625490 661594 701649 745857 791265 831731 859983 867752 849525 
3687.566 805140 740016 665045 591878 529838 483263 451520 432150 422498 
3691.905 420973 427374 440840 459547 480311 499053 512056 516867 513616 
3696.245 505057 495437 488637 487874 493579 504095 516336 526487 531729 
3700.584 530402 523004 511526 499152 489234 484690 487177 497096 514047 
3704.924 536705 563611 592841 622371 650377 675100 695012 708287 712734 
3709.264 706793 688341 656915 613479 561520 507545 459281 423858 406678 
3713.603 409099 428700 460409 498224 535610 567326 590485 603624 608037 
3717.943 605980 599775 591812 583285 574791 566597 559264 553757 551269 
3722.282 552430 557108 563710 569417 571109 566563 555482 540520 526122 
3726.622 518824 523700 543771 577844 621143 666604 706495 733577 744696 
3730.962 740049 724416 705565 690598 683496 682799 681604 671350 646163 
3735.301 605084 554553 505555 470692 457457 467375 496333 538330 588129 
3739.641 642812 702247 766204 832959 896604 946244 967929 948735 883555 
3743.980 782701 672578 588461 556212 582057 654592 752296 853277 937445 
3748.320 991208 1008046 988983 941230 875554 803414 733212 671881 625523 
3752.660 598647 594533 612948 649913 698032 748413 793721 827548 847865 
3756.999 854804 850754 838370 819979 796808 770751 744596 723454 712369 
3761.339 714758 730689 756147 783564 804742 813307 806601 787746 763714 
3765.678 743600 735004 740414 757375 779415 799199 809821 807597 792792 
3770.018 769092 742107 717148 698297 686980 683065 685023 691029 699592 
3774.358 709581 720500 732282 744131 755217 763316 765706 760096 745293 
3778.697 722757 696472 672412 656649 652833 661063 677987 698695 717314 
3783.037 729860 734871 733378 727569 720434 713829 708386 703773 700056 
3787.376 697368 697368 701450 710344 723421 738389 752628 763416 769955 
3791.716 772776 773739 774469 775797 776494 774270 766735 753193 735535 
3796.056 718575 708851 711738 729395 759499 795481 828079 846703 843317 
3800.395 814236 763847 703674 651638 624063 629605 667401 728067 797638 
3804.735 859883 900854 911014 888403 840230 781307 729262 697302 690034 
3809.074 705134 735303 772710 811813 850554 889299 929774 971880 1013260 
3813.414 1047901 1068527 1068129 1044214 1001337 951690 911147 893217 903742 
3817.754 939238 988883 1037206 1069391 1072978 1041723 978422 895541 812244 
3822.093 745857 707490 698430 712800 741111 773606 803381 826187 841358 
3826.433 851185 858854 867254 877148 887905 897500 904307 907461 908059 
3830.772 908690 912873 923598 942691 969954 1003396 1039597 1074672 1104003 
3835.112 1123802 1130014 1120579 1094370 1052983 1000706 943986 889665 
3838.969 843948 810319 789838 780576 779879 783796 789041 792526 792427 
3843.309 788311 781539 774668 771249 774801 787979 811713 845740 888768 
3847.649 939636 997850 1063678 1137090 1217425 1300734 1378972 1440137 
3851.506 1468994 1449844 1374053 1245204 1084737 924760 795647 714792 682500 
3855.846 688673 719173 762121 808825 853808 894545 929874 959029 981710 
3860.185 997983 1008843 1015751 1020467 1023788 1025548 1024319 1018673 
3864.043 1008942 998415 992603 997684 1017677 1052019 1094636 1135196 
3867.900 1162571 1166624 1143302 1095931 1036276 980481 940998 923299 924063 
3872.240 934489 944617 947373 940367 926952 914334 910217 919780 944152 
3876.579 979950 1020467 1058430 1087029 1101080 1098522 1081349 1055607 
3880.437 1029368 1011931 1008976 1022925 1049794 1082046 1110281 1124765 
3884.294 1118752 1091413 1049163 1004359 971017 960590 976729 1015419 
3888.152 1066136 1116593 1155129 1172704 1165362 1135429 1091314 1044048 
3892.009 1005389 983371 980780 996256 1025183 1062715 1103671 1144465 
3895.866 1182771 1216960 1245802 1268532 1284649 1293854 1296646 1294120 
3899.724 1288404 1280628 1272154 1262583 1250554 1233873 1211013 1181841 
3903.581 1148153 1113437 1082146 1057932 1043517 1038900 1043317 1054942 
3907.439 1071849 1092476 1115563 1139880 1163667 1185263 1202773 1215399 
3911.296 1223739 1229653 1236199 1246135 1261154 1280827 1302628 1322336 
3915.154 1335796 1339918 1333636 1318414 1297443 1274613 1253378 1235601 
3919.011 1222177 1213106 1208620 1208521 1212574 1219585 1227560 1233707 
3922.868 1235269 1230384 1219419 1204733 1190446 1180944 1179349 1186691 
3926.726 1201776 1221413 1242645 1262583 1279265 1292093 1300933 1305054 
3930.583 1304423 1298308 1287208 1272220 1256369 1243210 1235900 1236199 
3934.441 1244373 1258297 1275078 1291594 1305586 1315922 1323034 1327720 
3938.298 1331110 1333669 1335032 1334334 1330445 1323001 1312000 1298640 
3942.156 1284915 1273217 1265508 1263414 1267734 1277737 1292093 1308444 
3946.013 1324363 1337358 1346100 1349722 1349224 1345834 1342011 1339552 
3949.870 1339718 1342743 1348227 1355107 1362386 1369366 1375748 1381532 
3953.728 1386717 1391537 1396290 1401310 1407193 1414241 1422684 1432358 
3957.585 1442231 1451473 1458521 1462677 1463342 1461414 1457823 1454199 
3961.443 1451606 1450509 1450642 1451041 1450576 1448980 1445689 1441500 
3965.300 1437477 1434851 1434286 1436713 1441999 1449578 1459120 1469858 
3969.157 1481495 1493763 1506830 1520529 1534594 1548526 1561096 1570939 
3973.015 1576758 1577922 1574065 1566583 1557105 1548327 1542574 1541876 
3976.872 1546531 1556241 1569343 1583975 1597909 1610047 1619858 1627475 
3980.730 1633661 1639381 1645335 1651721 1658040 1663728 1667719 1669515 
3984.587 1668251 1664559 1659071 1652685 1646732 1642109 1638783 1636621 
3988.445 1634858 1632596 1629470 1625546 1621322 1618063 1616632 1617198 
3992.302 1619559 1622818 1625612 1626909 1626510 1624548 1622386 1621355 
3996.159 1622685 1626843 1633594 1641643 1649426 1655546 1658639 1658173 
4000.017 1654548 1648295 
##END=
