##TITLE=1541_2_a
##JCAMP-DX=5.01  $$ Nicolet v. 1
##DATATYPE=INFRARED SPECTRUM
##ORIGIN=UniL
##OWNER=Nicolet
##LONGDATE=2011/09/29
##TIME=14:14:31
##SPECTROMETER/DATA SYSTEM=Nicolet iS5
##DATA PROCESSING=
Ratio against background
%Transmittance->Absorbance
Truncated
ElementMultiply or ElementDivide
##COMMENTS=
Number of sample scans: 32
Collection length: 51.22 sec
Sample gain: 2.0
Background collected on: Jeu Sep 29 14:10:12 2011 (GMT+02:00);
Number of background scans: 32
Background gain: 2.0
Sample spacing:  1.000
Number of scan points: 12415
Resolution points: 8192
Number of FFT points: 65536
Apodization: N-B fort;
Phase correction: Mertz;
Laser frequency: 15798.0 cm-1
Number of rejected sample scans: 0
Number of rejected background scans: 0
Bench serial number: ASB1000141;
##RESOLUTION=4.000
##XUNITS=1/CM
##YUNITS=ABSORBANCE
##FIRSTX=649.893372
##LASTX=4000.122314
##FIRSTY=0.096553
##MAXX=4000.122314
##MINX=649.893372
##MAXY=0.256281
##MINY=-0.000307
##XFACTOR=1.000000
##YFACTOR=1.000000E-009
##NPOINTS=6950
##DELTAX=0.482117
##ZPD=6100
##XYDATA=(X++(Y..Y))
649.893 96553304 95789744 95144088 94629432 94224160 93889568 93585472 
653.268 93288736 92999384 92737504 92528632 92394824 92348712 92392080 
656.643 92522528 92739888 93045200 93436416 93901528 94413720 94932856 
660.018 95417120 95836720 96180976 96462112 96704376 96938504 97187392 
663.393 97462088 97762016 98079312 98399952 98703984 98964536 99144888 
666.767 99204592 99121448 98918016 98673544 98482624 98408928 98456104 
670.142 98580360 98715920 98799024 98788752 98669712 98457936 98188760 
673.517 97900896 97617544 97337656 97040336 96700080 96302264 95849320 
676.892 95360576 94858648 94358704 93861640 93356432 92829360 92275608 
680.267 91701512 91122944 90555232 90006040 89471176 88940912 88406704 
683.642 87868856 87338360 86832096 86362120 85929392 85520864 85115144 
687.016 84694488 84250952 83791472 83334768 82902768 82510408 82162648 
690.391 81855536 81582136 81340000 81132896 80969576 80859392 80806152 
693.766 80806232 80851696 80934408 81051992 81210304 81420920 81695024 
697.141 82040360 82456720 82938016 83477056 84068392 84711320 85407024 
700.516 86153496 86941328 87752088 88562936 89351688 90104336 90818096 
703.890 91499280 92157032 92794568 93406096 93976808 94489664 94932072 
707.265 95302304 95608552 95867712 96097128 96311240 96521936 96740112 
710.640 96978688 97256024 97591160 97998464 98481128 99026416 99605368 
714.015 100174816 100689776 101107520 101394584 101533376 101520608 
716.908 101370944 101114176 100799720 100492456 100262832 100184200 
719.800 100316552 100693288 101315336 102144264 103107888 104098712 
722.693 104995592 105680000 106046184 106031552 105626240 104881720 
725.586 103899416 102814280 101767608 100866376 100174648 99703896 99425984 
728.961 99290160 99245192 99257176 99308192 99393784 99513232 99660592 
732.335 99824048 99991160 100153992 100314712 100483688 100673448 100889696 
735.710 101127560 101371904 101605760 101818664 102012072 102198168 
738.603 102394344 102612712 102854368 103108608 103358184 103589080 
741.496 103795928 103983392 104161672 104340024 104521312 104701208 
744.388 104872816 105032128 105182984 105335104 105499112 105679536 
747.281 105872168 106064632 106243552 106400880 106538816 106667864 
750.174 106801648 106947520 107103320 107258112 107399416 107519560 
753.066 107621512 107716232 107817944 107935048 108065400 108197544 
755.959 108317008 108413664 108487032 108546120 108602840 108667208 
758.852 108741520 108821496 108901192 108978776 109059016 109150856 
761.744 109261848 109392600 109534480 109674960 109804216 109924248 
764.637 110050848 110211392 110436936 110750288 111162936 111672160 
767.530 112264184 112915512 113597152 114275944 114914752 115485496 
770.423 115981032 116433736 116918816 117547272 118438096 119662536 
773.315 121202664 122912976 124545944 125773416 126271576 125827728 
776.208 124378960 122042952 119061176 115746928 112388040 109178632 
779.101 106216048 103496720 100957832 98513800 96095224 93666240 91222520 
782.475 88784864 86386096 84063816 81851736 79780920 77878832 76165336 
785.850 74653920 73348536 72244584 71332496 70601536 70044752 69660840 
789.225 69453176 69428136 69593048 69955136 70521904 71305912 72323832 
792.600 73594696 75137280 76958968 79049048 81368408 83849624 86393896 
795.975 88869552 91132432 93023728 94386624 95097976 95077928 94317328 
799.350 92880896 90910072 88600072 86154472 83776240 81620560 79771648 
802.724 78243376 76976728 75864432 74769312 73568792 72181704 70585128 
806.099 68821408 66982076 65185464 63532888 62087400 60856848 59796136 
809.474 58822720 57842320 56781800 55599004 54292460 52891016 51441636 
812.849 49992464 48579648 47228108 45950852 44754544 43644600 42626628 
816.224 41705676 40884592 40163136 39536900 38999568 38545156 38168708 
819.598 37866656 37636204 37474140 37376304 37339292 37361932 37446656 
822.973 37599712 37830792 38149352 38562320 39071668 39673020 40355256 
826.348 41097464 41869656 42632552 43334396 43919720 44336088 44541740 
829.723 44520520 44285780 43883904 43383200 42867604 42424292 42123392 
833.098 42015888 42121712 42426412 42879380 43396568 43876868 44204664 
836.473 44275508 44019080 43407076 42464592 41260672 39899428 38490700 
839.847 37130848 35895788 34826356 33935612 33215798 32648108 32210212 
843.222 31879968 31638526 31468030 31352766 31279870 31240202 31229842 
846.597 31248962 31299952 31384036 31499096 31638880 31795144 31960134 
849.972 32129430 32303110 32484610 32679542 32893044 33128820 33389914 
853.347 33679164 34000568 34359472 34761276 35209692 35706668 36252224 
856.721 36846324 37491152 38192408 38959952 39807360 40748384 41798692 
860.096 42974552 44292016 45768132 47416176 49240368 51226240 53334544 
863.471 55497936 57616504 59576860 61262080 62565112 63414732 63781032 
866.846 63684256 63189716 62406136 61472396 60529764 59720436 59166820 
870.221 58955452 59143280 59750544 60764348 62139584 63801640 65652564 
873.596 67561280 69378648 70949296 72113632 72744496 72760872 72140000 
876.970 70922488 69202976 67117568 64810520 62426296 60092604 57900736 
880.345 55914328 54165116 52658592 51383824 50319516 49443308 48733972 
883.720 48174704 47753760 47460936 47286000 47217248 47240928 47344712 
887.095 47520740 47768960 48097600 48522180 49061564 49730448 50537068 
890.470 51480576 52552296 53739568 55030004 56415396 57892556 59462896 
893.844 61129476 62894612 64755828 66701888 68705456 70717528 72664896 
897.219 74440080 75915536 76958536 77441408 77278480 76437200 74948944 
900.594 72901424 70428056 67692680 64853572 62060340 59439380 57077464 
903.969 55032824 53333196 51981224 50962660 50252180 49821004 49639728 
907.344 49683676 49935700 50384108 51023584 51852508 52870956 54079732 
910.719 55478132 57060684 58815016 60715492 62717408 64761944 66773908 
914.093 68671264 70384576 71863224 73088240 74075848 74875552 75561104 
917.468 76213544 76916056 77734760 78706664 79834272 81079304 82367432 
920.843 83589872 84627288 85372664 85748112 85735312 85382544 84811688 
924.218 84191624 83726056 83626064 84061280 85150888 86936072 89373184 
927.593 92329368 95589272 98893008 101927632 104373688 105952416 106424200 
930.967 105637528 103543824 100201560 95774416 90508096 84722392 78746824 
934.342 72891552 67431144 62556156 58384472 54968668 52304956 50358544 
937.717 49079296 48417376 48321928 48735940 49590400 50783888 52179620 
941.092 53620452 54924820 55923372 56488788 56544492 56085760 55171628 
944.467 53917308 52462784 50947496 49498228 48202324 47109732 46237612 
947.841 45577388 45106156 44794796 44616676 44546804 44562408 44643924 
951.216 44771180 44925704 45092812 45262272 45429880 45597372 45770484 
954.591 45956340 46161068 46388820 46641560 46920172 47224416 47554788 
957.966 47910860 48290932 48692420 49111052 49542528 49984248 50435796 
961.341 50899660 51379232 51877748 52396500 52934208 53487988 54054328 
964.716 54631372 55219072 55819100 56433468 57063636 57709660 58371128 
968.090 59047988 59741876 60456220 61195888 61965096 62766836 63602656 
971.465 64473144 65379664 66325792 67316880 68359848 69461104 70624816 
974.840 71852360 73143408 74496832 75913048 77393528 78940752 80556992 
978.215 82243528 84001368 85833088 87744904 89748080 91858728 94094768 
981.590 96472080 99001952 101687576 104523672 107494472 110573984 113718848 
984.964 116862008 119915272 122758920 125251768 127254736 128635168 
987.857 129295424 129190208 128329616 126781808 124660272 122123968 
990.750 119350408 116517352 113801472 111345856 109256224 107601184 
993.643 106407016 105669048 105360944 105447784 105892544 106661256 
996.535 107727192 109065280 110651912 112464224 114477176 116665008 
999.428 119001904 121454816 123981032 126524912 129009424 131344168 
1002.321 133435368 135190256 136538816 137441888 137895904 137934832 
1005.213 137626480 137071424 136384208 135691952 135123248 134785552 
1008.106 134767104 135127008 135893024 137069344 138642944 140594032 
1010.999 142900112 145540224 148496304 151747584 155271600 159045232 
1013.891 163043280 167241728 171614848 176123632 180708000 185274384 
1016.784 189682768 193766192 197339200 200222912 202290144 203481328 
1019.677 203827312 203444368 202535808 201368816 200223920 199394576 
1022.570 199136544 199632304 200995856 203252816 206355280 210189424 
1025.462 214603968 219434480 224500544 229632304 234666608 239436608 
1028.355 243791984 247598832 250751264 253189952 254901056 255913472 
1031.249 256281440 256075584 255370912 254235152 252734624 250927568 
1034.142 248855680 246539936 243971216 241112912 237905408 234286496 
1037.035 230212384 225666256 220668896 215271776 209551264 203593632 
1039.928 197490512 191340512 185237168 179271680 173526384 168058448 
1042.821 162900448 158057280 153511664 149236096 145206496 141413712 
1045.714 137868336 134600736 131651624 129068392 126894328 125161456 
1048.607 123891592 123092104 122756544 122864600 123383920 124272456 
1051.500 125477704 126947672 128631072 130478456 132446856 134490080 
1054.393 136552704 138569584 140456800 142116768 143453904 144374640 
1057.286 144803904 144696272 144036064 142844400 141177376 139131760 
1060.179 136835616 134434816 132094456 129967544 128185440 126855808 
1063.072 126046296 125791520 126094176 126929792 128248064 129971728 
1065.965 132006392 134233696 136518544 138731072 140743552 142449472 
1068.858 143774896 144671120 145115680 145105632 144651872 143775680 
1071.751 142506512 140884000 138953376 136763520 134370208 131830496 
1074.645 129208240 126580640 124030616 121650184 119535896 117770928 
1077.538 116425240 115546200 115152344 115234936 115755584 116651088 
1080.431 117826856 119161120 120519304 121748808 122707408 123288008 
1083.324 123429264 123137776 122485328 121607224 120672480 119861952 
1086.217 119358432 119309680 119826192 120972776 122758832 125137808 
1089.110 128002632 131203536 134542704 137794688 140748080 143204512 
1092.003 145013056 146086928 146396176 145969536 144877872 143229488 
1094.896 141148560 138758496 136180320 133512048 130825904 128172520 
1097.789 125579088 123057176 120606864 118220280 115881768 113567328 
1100.682 111249184 108896944 106486056 104006928 101470672 98912520 96385408 
1104.057 93958880 91707032 89696176 87986792 86625152 85641152 85053880 
1107.433 84868368 85078616 85666776 86605376 87857416 89374856 91105168 
1110.808 92987688 94951416 96921488 98812168 100528496 101981176 103085240 
1114.183 103774392 104011560 103788320 103125704 102065504 100667592 
1117.076 98999992 97129504 95124488 93044576 90936344 88836536 86766744 
1120.451 84737624 82754168 80819088 78938080 77121584 75382800 73736616 
1123.827 72196888 70773720 69475184 68309120 67284928 66417052 65724760 
1127.202 65228856 64950832 64907200 65105736 65543704 66205912 67065820 
1130.577 68082248 69203640 70369928 71510128 72556136 73447648 74140376 
1133.952 74617728 74892600 75008600 75027584 75024352 75073896 75234464 
1137.328 75544664 76015200 76627920 77336440 78071568 78754808 79299096 
1140.703 79625832 79675112 79404432 78795448 77849176 76582304 75022464 
1144.078 73204896 71174224 68979256 66673644 64315044 61956040 59645092 
1147.453 57423472 55320712 53359008 51552320 49908120 48430076 47118228 
1150.829 45970080 44981080 44144872 43454500 42902348 42481692 42187396 
1154.204 42014976 41960960 42022092 42194516 42474860 42860180 43349112 
1157.579 43942304 44641720 45450044 46368912 47397772 48533440 49770316 
1160.954 51099276 52507204 53977260 55484460 56995512 58471652 59865312 
1164.330 61127304 62211696 63075184 63683144 64010612 64041636 63771592 
1167.705 63208000 62370600 61288176 59997604 58540992 56958072 55287372 
1171.080 53564672 51820028 50081732 48375592 46723536 45145860 43659548 
1174.455 42276900 41007368 39856788 38828192 37923024 37141424 36482660 
1177.831 35945312 35526984 35224860 35036140 34958744 34992392 35138804 
1181.206 35401256 35783408 36288352 36917420 37670428 38545700 39541112 
1184.581 40653048 41875604 43199504 44607976 46076540 47574712 49063824 
1187.956 50502156 51848924 53062124 54105368 54949076 55571740 55964904 
1191.332 56134136 56101068 55898912 55571436 55168732 54737756 54321856 
1194.707 53956324 53664312 53457856 53337916 53295960 53314764 53370588 
1198.082 53437392 53484728 53481276 53396964 53199772 52860180 52353924 
1201.457 51662548 50779868 49714176 48490240 47145188 45725904 44284164 
1204.833 42866324 41511896 40250884 39100128 38067460 37153048 36351680 
1208.208 35655732 35056288 34545060 34113996 33756728 33469216 33249744 
1211.583 33098924 33019230 33014010 33085696 33235508 33462736 33765252 
1214.958 34139732 34581764 35085708 35644224 36247292 36883548 37540680 
1218.333 38206624 38871452 39528152 40171424 40798208 41406148 41994024 
1221.709 42562668 43116656 43664968 44220988 44802476 45428116 46115300 
1225.084 46878792 47727760 48665032 49686460 50780464 51926852 53096304 
1228.459 54253712 55357976 56365180 57236804 57938748 58446520 58747948 
1231.834 58843892 58750832 58500048 58141208 57738612 57362932 57093488 
1235.210 57005296 57162116 57619076 58415360 59576180 61116092 63038668 
1238.585 65337488 67993160 70973872 74230472 77694064 81285136 84908328 
1241.960 88457472 91828760 94912608 97604232 99816464 101478832 102550656 
1245.335 103025008 102927360 102310752 101245472 99818752 98122048 96245144 
1248.711 94276736 92288344 90328928 88419016 86546408 84670288 82729712 
1252.086 80664336 78425912 75993640 73380864 70635304 67832104 65054820 
1255.461 62392516 59922396 57696908 55746504 54073168 52655076 51449020 
1258.836 50398548 49442268 48515248 47562108 46541192 45425356 44206240 
1262.212 42891340 41501216 40063312 38609940 37174088 35783948 34464096 
1265.587 33233040 32102138 31077162 30158438 29341824 28620132 27985006 
1268.962 27428732 26944344 26526562 26170834 25872440 25626122 25425858 
1272.337 25265828 25141562 25050146 24990724 24963244 24967632 25002692 
1275.713 25065802 25152550 25256942 25372182 25489276 25597758 25686440 
1279.088 25743566 25759248 25727958 25648652 25525434 25364840 25174142 
1282.463 24958578 24720494 24460282 24178506 23878360 23567924 23259354 
1285.838 22968156 22711750 22504976 22360564 22288498 22295752 22388610 
1289.214 22572260 22850830 23226566 23698846 24263184 24910360 25625664 
1292.589 26389646 27174548 27946488 28668408 29299642 29805936 30164192 
1295.964 30366190 30421378 30354570 30202552 30004964 29800542 29623672 
1299.339 29498968 29443756 29467088 29570288 29746782 29981814 30255162 
1302.715 30540946 30811620 31043456 31216242 31316868 31339840 31285744 
1306.090 31160704 30975666 30745822 30488550 30222622 29966868 29736208 
1309.465 29541312 29388232 29278658 29212240 29188672 29208412 29273376 
1312.840 29384970 29543228 29745966 29989056 30268236 30580084 30923326 
1316.216 31298458 31707134 32150660 32629464 33143662 33693700 34280692 
1319.591 34906676 35572296 36274844 37006100 37750980 38487768 39188348 
1322.966 39824176 40366712 40793188 41092364 41267192 41339488 41346304 
1326.341 41340476 41380964 41519044 41794824 42224496 42798672 43483940 
1329.717 44232544 44993500 45719792 46379972 46960372 47463708 47906464 
1333.092 48313852 48716628 49143776 49621528 50169832 50798268 51506280 
1336.467 52281784 53105252 53949908 54786808 55588912 56330136 56988408 
1339.842 57546740 57993084 58321936 58533904 58634464 58631468 58532236 
1343.218 58341792 58061780 57690628 57225356 56663320 56003916 55249852 
1346.593 54406384 53482100 52488096 51436600 50342804 49224744 48102372 
1349.968 47001172 45950520 44981448 44128772 43425236 42899204 42574768 
1353.343 42467844 42585436 42924108 43467716 44185772 45030180 45942640 
1356.719 46855652 47698504 48410520 48941312 49256512 49341996 49202628 
1360.094 48863880 48367072 47772956 47156304 46594340 46165820 45932508 
1363.469 45927576 46153548 46582244 47164136 47833836 48523588 49166300 
1366.844 49697272 50065148 50233696 50186680 49929304 49484300 48886424 
1370.219 48171632 47375824 46531640 45667448 44814452 44008412 43287976 
1373.595 42695240 42266240 42021504 41962452 42071368 42320072 42677108 
1376.970 43118592 43631596 44214128 44873748 45624532 46486240 47480044 
1380.345 48627116 49941424 51420336 53032244 54705512 56336400 57786640 
1383.720 58905212 59558620 59632924 59061316 57837856 56036448 53812992 
1387.096 51379308 48978288 46811292 45002472 43595696 42564824 41845500 
1390.471 41357492 41026920 40788892 40587632 40379148 40125852 39799260 
1393.846 39385592 38888160 38326328 37727852 37119044 36515096 35918424 
1397.221 35324044 34727752 34134356 33562168 33038930 32593638 32246970 
1400.597 32004430 31858180 31792152 31789836 31839286 31934920 32077842 
1403.972 32273628 32528676 32846336 33226028 33662876 34149440 34677972 
1407.347 35241816 35836696 36459596 37108112 37779572 38470428 39176672 
1410.722 39894380 40620408 41351480 42083340 42809096 43519576 44204004 
1414.098 44852880 45461740 46032256 46572580 47094848 47612464 48138572 
1417.473 48684488 49261300 49880432 50548868 51267700 52026788 52804200 
1420.848 53570856 54296812 54958776 55542292 56048212 56492748 56906056 
1424.223 57323156 57773884 58275932 58830916 59429768 60059044 60708404 
1427.599 61370452 62039280 62708260 63367152 64002744 64604388 65167876 
1430.974 65699704 66214940 66734804 67278504 67859496 68483576 69152032 
1434.349 69867488 70638536 71485568 72439264 73535424 74796624 76223064 
1437.724 77790712 79455312 81160776 82837720 84411168 85789288 86870584 
1441.100 87565664 87797712 87519816 86718800 85409968 83632928 81443704 
1444.475 78917304 76136472 73182664 70141400 67093276 64120324 61315116 
1447.850 58768736 56557476 54726744 53279252 52183876 51393184 50867620 
1451.225 50584752 50540416 50737336 51168644 51805580 52600768 53485100 
1454.601 54380812 55214784 55919904 56456224 56825644 57082112 57306332 
1457.976 57568340 57909292 58334972 58833532 59390296 59994596 60638488 
1461.351 61310728 61994144 62657728 63256828 63743772 64075700 64234212 
1464.726 64234904 64126664 63972220 63821284 63701444 63613400 63540556 
1468.102 63456296 63331424 63134684 62825300 62352508 61656004 60677160 
1471.477 59386572 57811056 56048364 54237568 52513780 50963256 49610272 
1474.852 48439856 47427820 46564096 45859556 45338584 45020480 44909424 
1478.227 44988652 45229360 45600388 46080816 46665392 47362632 48188588 
1481.603 49157952 50279040 51552656 52976800 54552692 56288380 58196668 
1484.978 60286596 62553896 64966188 67449536 69895000 72150256 74032976 
1488.353 75361080 75960848 75709984 74574208 72626120 70038248 67032688 
1491.728 63835756 60616848 57469540 54433128 51503856 48666516 45924260 
1495.104 43306796 40875560 38710596 36881780 35426348 34339820 33589768 
1498.479 33130466 32919388 32925464 33125352 33499170 34026800 34684252 
1501.854 35443064 36273940 37138500 37990136 38770476 39392920 39746212 
1505.229 39701120 39138020 38008540 36383100 34442176 32388960 30368996 
1508.604 28440840 26602646 24831870 23115566 21457188 19881074 18421232 
1511.980 17104468 15946263 14944992 14085986 13348522 12711341 12156218 
1515.355 11666671 11230615 10840888 10496384 10202421 9966051 9790401 
1518.730 9670347 9590398 9527295 9458818 9372812 9276601 9195607 9160751 
1522.588 9190362 9281307 9412934 9557710 9694572 9813582 9920387 10031523 
1526.445 10167076 10339486 10549442 10788133 11044527 11311785 11589893 
1529.820 11884354 12200756 12540749 12899748 13268405 13636553 13999744 
1533.196 14362760 14738042 15136669 15562690 16008243 16457696 16890904 
1536.571 17288412 17635830 17921090 18136956 18280212 18352308 18357664 
1539.946 18305268 18209856 18089076 17959800 17832426 17706886 17572340 
1543.321 17411382 17209012 16958910 16669942 16362999 16063595 15789961 
1546.697 15544591 15316007 15084317 14832041 14552159 14253316 13956390 
1550.072 13686474 13459719 13276842 13125152 12986796 12847630 12704005 
1553.447 12563908 12442607 12354203 12303684 12283232 12273859 12251501 
1556.822 12187704 12053938 11829395 11511630 11133107 10755696 10445572 
1560.198 10239703 10137364 10114064 10138144 10180915 10218263 10235428 
1563.573 10227557 10200216 10167551 10145979 10147776 10174843 10219653 
1566.948 10268132 10307150 10328288 10331851 10326355 10325812 10343965 
1570.323 10388657 10461388 10558812 10675343 10804846 10940096 11072466 
1573.698 11189270 11277336 11326137 11334027 11313962 11291313 11296107 
1577.074 11346543 11444541 11577676 11729541 11885750 12038847 12188761 
1580.449 12340328 12500235 12673165 12860395 13059246 13265261 13471989 
1583.824 13672523 13858406 14018292 14139313 14209184 14219387 14169232 
1587.199 14067333 13932987 13791602 13671292 13599799 13598569 13682987 
1590.575 13862032 14136951 14500287 14932131 15401205 15861955 16259827 
1593.950 16544048 16670011 16612377 16369157 15962316 15431383 14823676 
1597.325 14188575 13567185 12989664 12478001 12045455 11698973 11439947 
1600.700 11265298 11168566 11142354 11180567 11279648 11437532 11652037 
1604.076 11917965 12225020 12559166 12901933 13233390 13534607 13785719 
1607.451 13968674 14067846 14069968 13967032 13757913 13450116 13060545 
1610.826 12614286 12143338 11677938 11242855 10852609 10509385 10206254 
1614.201 9930421 9668653 9410768 9153745 8904858 8679536 8496802 8370992 
1618.059 8307627 8301514 8340996 8409062 8488355 8563405 8622177 8660269 
1621.916 8681700 8699277 8729095 8784777 8872256 8987726 9121599 9262656 
1625.774 9402946 9538811 9669500 9796264 9920285 10042510 10163447 10285231 
1629.631 10410885 10543467 10684817 10833381 10984170 11128179 11254587 
1633.006 11352870 11413754 11431851 11407870 11351032 11278492 11211268 
1636.382 11168259 11158639 11181349 11227724 11285327 11340999 11383208 
1639.757 11405013 11405420 11389909 11367562 11348822 11339877 11340694 
1643.132 11344400 11339265 11312329 11252343 11153777 11019921 10864091 
1646.507 10707401 10573478 10483010 10446963 10466649 10534268 10636801 
1649.883 10755356 10864804 10935951 10933029 10824548 10602372 10304741 
1653.258 10013654 9807955 9722322 9738587 9814734 9909200 9993921 10055328 
1657.115 10090053 10102059 10098022 10083542 10060651 10027217 9978460 
1660.490 9909539 9816666 9699485 9561402 9410632 9258052 9115441 8992935 
1664.348 8896166 8824913 8773823 8732407 8688156 8627314 8538635 8416021 
1668.205 8261494 8084709 7901921 7730712 7584622 7470098 7386676 7328038 
1672.063 7285008 7245284 7195895 7123574 7018263 6878606 6715641 6551828 
1675.920 6411346 6310679 6251076 6221161 6202809 6179383 6142011 6091269 
1679.778 6036468 5989736 5959435 5943513 5928330 5890510 5806317 5661174 
1683.635 5463365 5246798 5059133 4935889 4883277 4884048 4911626 4943765 
1687.492 4965549 4970476 4958745 4933811 4900468 4864044 4830136 4804773 
1691.350 4793014 4797470 4815964 4840087 4855097 4843571 4790334 4691516 
1695.207 4560441 4427898 4329196 4284421 4290076 4322068 4348004 4333714 
1699.065 4255610 4110818 3926352 3751389 3630453 3582877 3597744 3648362 
1702.922 3705871 3748013 3761549 3741362 3691835 3624405 3553946 3493251 
1706.780 3449731 3424415 3413896 3412259 3414163 3415666 3415265 3413629 
1710.637 3412694 3414430 3419807 3428256 3438142 3447126 3453705 3456544 
1714.494 3454740 3446625 3428724 3396564 3347043 3281336 3208362 3143209 
1718.352 3102527 3096821 3126823 3184296 3256231 3328746 3390920 3437273 
1722.209 3467299 3485034 3496257 3506845 3520107 3536341 3554380 3572654 
1726.067 3589792 3604994 3617456 3625241 3626744 3621031 3609103 3595271 
1729.924 3584280 3579770 3580204 3577732 3557721 3502737 3399302 3247418 
1733.781 3067789 2896673 2771874 2713122 2715589 2758269 2815593 2866154 
1737.639 2894272 2894005 2867588 2825231 2780111 2744064 2723558 2718990 
1741.496 2726326 2740163 2756402 2772508 2787847 2802921 2818761 2836337 
1745.354 2856415 2879229 2904479 2930831 2956418 2978470 2994317 3001223 
1749.211 2997453 2982707 2958453 2928930 2899809 2878495 2870557 2878795 
1753.069 2901477 2933333 2965725 2988512 2993616 2976434 2938604 2887834 
1756.926 2836237 2794884 2769273 2757869 2753001 2744998 2724792 2688150 
1760.783 2636310 2576643 2519350 2473928 2446437 2437574 2444205 2460566 
1764.641 2480859 2499221 2510352 2510785 2499088 2477727 2452102 2430010 
1768.498 2418182 2419181 2429510 2440473 2441639 2424113 2385430 2331661 
1772.356 2277864 2239861 2228105 2244025 2280296 2326531 2372870 2413784 
1776.213 2448303 2478193 2506086 2532581 2555778 2572410 2579843 2577676 
1780.071 2569143 2559677 2554345 2555444 2561211 2567243 2568910 2563077 
1783.928 2550512 2534747 2521283 2514751 2517117 2527848 2544612 2565044 
1787.785 2587242 2609975 2631376 2647977 2655045 2646777 2619375 2572576 
1791.643 2512052 2448103 2392260 2353414 2334626 2333360 2343254 2358078 
1795.500 2372803 2384031 2390061 2389695 2381699 2364808 2338623 2304479 
1799.358 2265774 2227172 2194002 2169859 2155940 2150879 2152244 2157006 
1803.215 2163532 2171258 2180349 2190972 2202828 2215016 2226806 2237996 
1807.073 2248621 2258813 2268438 2276166 2280263 2279164 2272602 2262043 
1810.930 2250986 2243592 2243159 2250353 2263642 2279730 2295285 2308043 
1814.787 2318303 2327963 2340255 2357679 2381466 2410618 2442938 2475661 
1818.645 2506586 2534547 2559144 2580643 2599509 2615642 2628442 2636776 
1822.502 2639277 2634476 2622009 2602975 2580342 2559177 2544846 2541046 
1826.360 2548545 2563910 2580909 2591342 2588509 2569610 2537480 2500954 
1830.217 2471029 2457966 2466764 2495822 2538880 2588142 2636876 2681249 
1834.074 2720357 2755235 2787747 2818961 2848977 2877661 2905479 2934367 
1837.932 2967961 3009798 3062951 3128124 3203121 3283673 3364239 3439945 
1841.789 3506044 3560293 3602555 3636501 3668979 3708544 3763888 3840165 
1845.647 3936817 4048139 4165076 4276791 4373607 4449623 4503187 4536467 
1849.504 4554279 4561445 4560842 4552873 4535830 4507673 4467600 4416818 
1853.362 4357375 4291716 4221047 4145239 4063591 3975939 3883992 3791764 
1857.219 3703598 3623336 3552142 3488474 3429024 3370551 3311484 3252492 
1861.076 3196278 3145445 3101793 3064986 3033654 3006695 2983807 2966126 
1864.934 2954950 2950113 2949045 2947311 2939338 2921524 2894672 2864520 
1868.791 2839472 2827766 2833969 2856548 2889635 2925027 2956351 2979304 
1872.649 2993016 2998621 2997887 2992549 2983741 2972031 2959187 2946777 
1876.506 2937069 2930764 2926761 2922091 2912818 2895606 2869823 2837471 
1880.364 2802720 2770440 2743898 2723658 2708321 2695451 2682849 2670347 
1884.221 2659179 2651211 2648077 2649177 2652511 2654778 2653545 2646610 
1888.078 2634310 2617775 2599375 2581942 2568110 2560277 2560077 2568077 
1891.936 2583109 2602908 2623176 2639877 2650211 2653311 2651511 2648644 
1895.793 2648811 2654111 2664379 2677081 2689017 2698919 2707254 2716790 
1899.651 2730994 2752067 2779444 2810891 2842540 2871357 2896707 2919589 
1903.508 2942006 2965225 2988678 3010031 3026247 3035189 3036857 3033387 
1907.365 3028382 3024745 3024411 3026714 3030884 3035422 3039894 3044832 
1911.223 3050438 3055810 3059080 3057311 3047668 3029817 3005060 2976334 
1915.080 2946210 2916387 2886433 2855381 2822897 2791349 2765338 2750466 
1918.938 2750000 2762571 2782011 2799419 2805955 2796684 2771607 2736362 
1922.795 2699119 2666913 2643577 2627976 2616175 2604209 2590475 2576243 
1926.653 2564744 2559244 2560411 2567010 2575543 2583209 2588842 2592809 
1930.510 2596808 2601408 2605442 2605908 2600075 2587042 2568543 2549512 
1934.367 2534014 2525116 2522216 2521616 2518784 2511752 2501187 2490957 
1938.225 2485791 2487491 2493956 2500221 2499155 2486924 2464064 2436941 
1942.082 2414650 2405021 2412517 2435608 2469963 2509952 2551778 2595808 
1945.940 2642377 2691484 2740530 2783746 2814960 2830167 2829500 2817994 
1949.797 2803254 2792483 2790015 2795717 2805622 2815727 2823097 2827899 
1953.655 2831468 2835603 2839672 2840006 2831668 2810157 2773742 2724958 
1957.512 2669847 2615842 2570410 2538080 2520717 2518350 2529582 2552945 
1961.369 2584909 2621542 2657912 2688917 2711655 2725659 2734161 2740697 
1965.227 2748332 2757269 2764671 2765205 2755902 2736729 2713522 2693451 
1969.084 2683916 2688217 2704520 2726492 2746999 2760270 2764171 2760303 
1972.942 2751533 2740463 2729460 2720391 2717290 2727559 2760036 2822163 
1976.799 2915920 3034321 3161499 3277630 3368080 3424282 3449797 3453839 
1980.656 3449296 3446057 3448161 3453972 3460151 3463524 3462289 3459015 
1984.514 3455008 3451534 3447092 3438509 3423480 3402608 3380168 3362169 
1988.371 3354890 3360333 3376494 3397566 3417636 3431796 3440914 3447426 
1992.229 3456377 3470071 3487673 3505576 3519739 3527489 3528758 3526654 
1996.086 3524215 3523246 3524048 3524148 3521610 3516633 3511622 3510687 
1999.944 3516866 3529760 3544793 3554748 3551841 3531798 3495455 3448495 
2003.801 3399002 3356159 3325206 3309180 3307477 3317827 3338228 3365775 
2007.658 3396297 3425117 3445990 3453538 3446491 3427922 3405247 3387581 
2011.516 3383674 3396731 3424382 3460218 3495689 3524349 3542655 3551607 
2015.373 3553979 3552977 3550338 3547432 3545160 3544859 3549703 3561997 
2019.231 3583110 3611575 3643818 3674459 3699789 3718436 3731503 3741663 
2023.088 3750687 3758675 3764189 3765326 3761716 3756569 3753527 3757070 
2026.946 3769136 3787585 3806170 3818437 3820242 3811418 3797212 3785012 
2030.803 3782405 3793970 3820142 3858083 3904218 3955274 4007907 4061116 
2034.660 4111588 4155040 4187792 4206661 4211177 4205657 4195185 4185717 
2038.518 4181636 4183744 4190635 4201007 4213955 4231118 4255677 4288972 
2042.375 4330601 4375950 4416953 4445707 4457155 4450192 4428601 4399648 
2046.233 4372034 4352656 4346966 4357174 4381874 4416953 4454377 4484506 
2050.090 4496759 4481861 4437807 4369491 4289139 4213218 4159289 4138381 
2053.948 4153568 4196791 4253469 4307611 4347034 4367014 4370227 4364705 
2057.805 4358045 4355501 4358614 4365374 4374143 4383849 4395932 4412869 
2061.662 4435698 4463382 4492641 4519123 4539748 4554079 4564291 4573098 
2065.520 4582942 4593323 4601627 4604575 4599518 4587228 4570888 4554212 
2069.377 4540552 4530306 4521735 4511289 4496960 4478413 4458294 4440786 
2073.235 4429404 4425355 4427597 4433220 4439078 4444100 4448418 4453908 
2077.092 4462277 4473291 4485242 4495386 4501145 4501245 4496759 4489762 
2080.949 4482866 4477543 4474630 4473191 4473592 4475434 4479886 4488088 
2084.807 4500408 4515842 4532482 4547248 4557393 4561378 4558231 4547884 
2088.664 4530808 4507138 4477174 4442192 4404668 4367583 4334684 4309251 
2092.522 4292653 4284756 4284287 4289607 4299345 4312965 4330233 4350380 
2096.379 4370796 4388502 4400484 4404903 4402894 4398041 4394861 4397472 
2100.237 4407380 4423045 4441221 4458260 4472085 4483267 4495018 4510954 
2104.094 4533721 4564224 4600489 4639570 4678085 4713556 4744841 4771440 
2107.951 4792579 4808057 4817639 4821860 4823134 4824909 4830437 4842365 
2111.809 4860392 4881703 4901875 4916486 4923121 4922250 4916586 4909917 
2115.666 4905829 4905964 4910018 4916854 4925299 4934482 4945038 4957807 
2119.524 4972855 4989714 5007076 5023132 5037378 5049445 5060239 5069961 
2123.381 5078643 5084309 5084812 5078476 5064195 5042908 5016528 4987401 
2127.239 4957405 4927243 4896480 4865552 4833788 4802160 4772043 4744171 
2131.096 4718680 4695200 4672793 4652196 4635183 4624265 4622189 4629556 
2134.953 4643689 4659564 4671286 4673697 4665525 4648813 4627815 4607488 
2138.811 4591180 4580531 4575006 4574136 4577853 4587262 4603001 4623462 
2142.668 4645129 4662344 4668071 4659396 4636790 4604474 4570017 4539413 
2146.526 4515340 4496357 4477911 4454678 4423480 4384285 4339035 4289641 
2150.383 4236237 4176383 4107574 4028006 3939826 3848388 3760780 3681176 
2154.240 3609872 3541719 3470004 3391755 3312619 3246817 3218175 3249921 
2158.098 3355524 3533569 3765025 4020849 4268292 4483401 4651827 4769999 
2161.955 4842767 4877246 4883244 4869204 4843102 4813082 4785075 4762261 
2165.813 4744640 4728964 4708632 4678654 4636120 4582674 4523442 4464553 
2169.670 4412567 4371265 4341244 4320729 4307477 4298676 4292653 4287499 
2173.528 4282179 4274717 4264779 4251830 4236472 4220010 4202378 4182439 
2177.385 4157248 4123797 4080515 4030146 3978346 3935078 3909267 3907160 
2181.242 3928893 3969452 4018809 4066400 4104162 4127042 4134267 4127710 
2185.100 4110818 4087672 4063356 4043758 4034761 4042287 4068373 4112256 
2188.957 4167719 4225363 4276992 4316345 4341746 4356639 4366746 4377055 
2192.815 4390309 4406208 4422576 4437070 4449590 4461206 4474764 4491837 
2196.672 4511423 4530708 4546009 4554581 4555920 4552840 4548085 4544435 
2200.530 4542192 4539145 4531880 4518521 4499136 4477040 4457390 4444100 
2204.387 4439581 4442861 4451263 4462210 4474529 4489092 4508175 4533286 
2208.244 4563487 4595968 4625973 4649047 4663549 4670080 4672056 4673597 
2212.102 4677281 4683142 4689741 4694262 4694731 4691382 4685688 4680530 
2215.959 4678085 4679827 4685085 4692521 4700559 4707962 4714259 4719685 
2219.817 4724710 4730739 4738678 4749732 4765677 4786180 4809631 4832917 
2223.674 4850775 4857845 4850742 4828260 4792847 4748794 4700928 4653033 
2227.531 4607321 4564157 4524246 4489293 4462980 4450192 4454845 4478681 
2231.389 4518822 4569280 4621385 4667568 4703005 4726049 4739247 4746181 
2235.246 4750871 4755795 4762261 4769731 4778307 4787386 4797135 4807688 
2239.104 4818878 4830303 4841695 4853556 4866791 4882875 4902847 4925869 
2242.961 4950601 4973559 4991993 5004260 5010328 5011869 5012003 5013277 
2246.819 5016931 5022897 5029735 5035501 5039154 5039992 5038350 5034864 
2250.676 5030405 5025612 5021757 5020350 5023031 5031612 5046697 5066843 
2254.533 5089271 5110157 5125210 5131715 5129267 5118740 5102781 5084074 
2258.391 5064530 5045557 5027657 5011232 4996987 4985525 4977581 4973325 
2262.248 4972487 4974297 4978587 4985659 4996954 5013545 5036439 5064229 
2266.106 5094601 5122964 5145126 5158203 5160751 5154112 5141304 5125747 
2269.963 5111230 5100032 5093293 5091349 5093729 5099797 5108481 5118941 
2273.821 5129904 5140868 5151229 5160986 5170643 5180299 5189923 5199245 
2277.678 5208266 5216515 5225134 5235798 5249917 5269268 5293953 5322397 
2281.535 5352586 5381402 5406596 5428035 5445918 5461754 5477022 5492021 
2285.393 5506181 5518228 5526819 5531619 5533061 5532927 5532894 5534370 
2289.250 5538230 5544103 5551620 5559842 5568233 5576455 5584410 5591659 
2293.108 5598305 5604245 5609885 5616463 5624855 5635797 5649258 5664263 
2296.965 5678698 5690951 5699814 5705723 5710154 5715492 5723617 5735603 
2300.823 5751047 5768138 5784994 5799365 5810111 5816659 5819312 5818305 
2304.680 5814544 5808399 5801045 5794027 5788990 5787479 5790198 5796713 
2308.537 5805309 5813704 5819715 5822335 5821596 5818976 5816290 5815854 
2312.395 5818540 5824417 5832779 5842517 5852626 5862533 5872206 5881710 
2316.252 5891417 5901258 5911099 5920638 5929338 5936996 5943613 5949693 
2320.110 5956076 5964238 5975055 5988997 6004618 6018359 6025112 6019165 
2323.967 5995312 5951137 5888125 5810951 5727041 5644827 5571757 5512356 
2327.824 5468365 5437899 5418137 5405590 5397773 5393546 5393244 5397303 
2331.682 5405992 5419211 5436423 5456822 5479974 5505141 5531719 5558466 
2335.539 5583872 5606427 5625224 5640195 5652917 5665404 5679537 5696658 
2339.397 5716869 5739027 5761725 5783751 5804772 5824618 5843659 5861257 
2343.254 5876538 5888427 5896186 5901493 5908042 5920907 5946469 5988930 
2347.112 6050209 6128771 6220724 6319992 6419618 6513718 6596904 6665572 
2350.969 6718299 6755417 6779143 6792134 6797486 6797520 6793582 6786480 
2354.826 6777427 6767600 6759657 6755956 6759186 6770292 6789341 6814954 
2358.684 6844709 6876755 6909409 6941527 6972974 7003245 7032406 7059886 
2362.541 7085447 7109697 7133914 7159615 7187641 7218466 7250506 7281605 
2366.399 7309505 7332048 7348999 7361400 7371376 7380509 7390013 7400056 
2370.256 7409628 7417751 7423750 7427660 7430492 7433559 7438480 7446806 
2374.114 7459648 7478424 7504887 7540420 7586409 7643666 7712026 7790653 
2377.971 7878201 7973056 8074176 8180352 8290707 8403759 8517887 8630998 
2381.828 8740826 8845844 8945174 9038672 9126912 9210330 9288821 9361911 
2385.686 9428239 9486857 9537050 9578542 9611806 9637687 9656592 9668924 
2389.543 9674819 9674277 9667704 9655507 9638467 9617193 9592091 9562825 
2393.401 9529294 9491801 9451029 9408939 9367971 9330628 9299213 9274976 
2397.258 9258120 9248304 9244920 9247391 9255886 9270881 9292748 9322301 
2401.115 9359608 9404469 9456108 9513781 9575933 9642058 9711039 9782504 
2404.973 9856625 9934286 10016197 10103754 10197401 10297446 10403351 
2408.348 10514171 10629535 10749209 10873910 11004526 11142015 11285939 
2411.723 11434913 11586149 11735668 11879280 12013196 12134377 12240731 
2415.099 12331704 12407147 12467805 12515274 12551049 12577175 12595184 
2418.474 12606235 12610841 12608964 12600198 12584815 12563157 12536384 
2421.849 12505895 12473057 12438686 12403397 12367839 12332930 12300820 
2425.224 12273859 12255352 12247922 12253273 12271746 12302593 12344180 
2428.600 12395214 12454712 12522572 12599038 12684593 12779071 12882000 
2431.975 12992770 13110707 13235849 13368476 13508868 13657307 13813561 
2435.350 13976783 14146468 14321869 14503269 14690775 14885187 15087198 
2438.725 15296923 15514510 15740348 15974794 16219204 16474489 16741667 
2442.101 17021102 17312444 17614676 17926650 18247488 18576340 18912712 
2445.476 19256098 19605476 19959506 20316776 20676042 21036650 21398220 
2448.851 21760334 22122506 22483304 22840564 23192244 23536548 23872128 
2452.226 24198124 24513812 24817802 25107682 25379910 25630550 25856298 
2455.602 26054188 26222712 26360914 26468310 26543926 26586160 26592924 
2458.977 26561854 26491202 26379610 26226548 26032306 25797818 25524802 
2462.352 25216280 24875938 24508800 24119940 23715014 23298438 22874266 
2465.727 22445900 22016632 21590574 21172968 20769496 20386918 20030770 
2469.103 19705146 19412302 19152584 18925172 18728528 18561472 18422790 
2472.478 18310796 18223368 18157306 18108110 18071356 18042998 18020064 
2475.853 18000724 17984250 17970540 17959076 17949580 17941084 17932796 
2479.228 17924302 17915152 17904932 17893224 17878724 17859944 17835638 
2482.604 17804946 17767702 17725420 17679794 17632342 17584932 17538392 
2485.979 17492648 17447702 17403588 17359858 17316892 17274378 17231868 
2489.354 17188950 17144758 17099056 17051806 17003564 16955258 16907406 
2492.729 16860420 16814196 16767977 16721006 16672112 16620502 16565079 
2496.104 16504776 16439319 16367987 16291302 16210295 16126383 16041556 
2499.480 15957298 15873948 15791440 15708879 15625026 15539440 15452429 
2502.855 15365058 15279179 15196715 15118898 15046377 14979012 14916322 
2506.230 14857859 14803243 14751753 14703115 14656709 14611541 14566789 
2509.605 14521735 14475656 14428521 14380227 14330739 14280367 14229418 
2512.981 14178338 14127984 14079243 14032665 13988486 13945954 13903974 
2516.356 13861724 13818487 13774808 13732401 13693552 13660795 13635322 
2519.731 13617577 13606500 13600585 13598090 13598158 13600791 13606705 
2523.106 13616517 13630672 13648793 13669925 13692322 13714618 13735581 
2526.482 13754528 13771389 13786130 13799230 13811064 13822112 13832819 
2529.857 13843389 13853685 13863127 13871405 13877768 13882182 13885226 
2533.232 13887655 13890940 13895866 13902708 13911329 13920669 13929942 
2536.607 13938975 13947734 13957177 13968571 13982669 14000155 14021098 
2539.983 14045258 14072261 14102004 14134111 14167897 14202782 14237463 
2543.358 14270642 14301083 14328410 14352794 14374849 14395228 14414477 
2546.733 14432700 14449622 14464729 14478431 14490969 14503405 14516766 
2550.108 14531430 14547602 14564357 14580633 14595367 14608251 14619389 
2553.484 14629464 14639435 14650025 14661472 14673262 14684332 14693586 
2556.859 14699584 14701057 14697424 14688650 14675044 14657770 14637962 
2560.234 14616716 14594682 14571895 14547568 14521015 14490935 14457158 
2563.609 14419718 14379987 14339026 14298344 14259205 14221783 14186451 
2566.985 14153246 14122439 14094576 14070174 14050187 14035299 14025888 
2570.360 14022090 14024041 14031261 14043513 14059871 14079277 14100053 
2573.735 14120727 14140238 14157970 14174676 14191553 14210108 14231369 
2577.110 14255987 14283414 14312794 14343170 14373857 14404749 14436228 
2580.486 14468736 14502754 14538523 14576247 14616098 14658730 14704485 
2583.861 14754015 14807185 14863448 14921432 14979664 15036601 15091795 
2587.236 15145212 15197332 15249252 15301522 15354519 15408414 15463038 
2590.611 15518630 15575466 15633510 15692731 15752271 15810717 15866490 
2593.987 15917975 15964894 16007589 16047917 16087871 16129924 16175456 
2597.362 16225567 16279882 16338054 16398782 16461240 16524738 16588693 
2600.737 16653141 16718252 16784508 16852910 16924080 16998534 17076894 
2604.112 17158788 17243762 17331064 17420110 17510346 17601668 17694254 
2607.488 17788170 17883558 17980142 18077298 18174786 18271952 18368240 
2610.863 18463204 18556248 18646236 18732300 18813120 18887518 18954936 
2614.238 19014958 19067648 19113350 19152826 19186416 19214848 19238540 
2617.613 19257658 19272586 19283322 19290216 19293576 19294060 19292572 
2620.989 19290668 19290010 19292086 19298254 19309096 19324544 19343842 
2624.364 19365770 19389398 19413930 19439050 19465178 19493144 19523814 
2627.739 19558162 19597018 19640488 19688782 19741172 19797072 19855128 
2631.114 19914512 19974354 20033892 20093266 20152784 20212834 20273934 
2634.490 20336532 20400704 20466692 20534462 20604360 20676252 20750344 
2637.865 20826500 20904514 20983582 21063258 21142878 21221886 21300074 
2641.240 21377232 21453186 21528140 21601822 21674400 21746050 21817226 
2644.615 21888550 21960828 22034200 22108734 22184572 22261154 22338586 
2647.990 22416906 22496426 22577916 22661862 22748830 22838504 22930954 
2651.366 23025660 23122276 23220590 23320708 23422634 23526648 23632996 
2654.741 23741400 23852104 23965114 24080046 24197002 24315920 24436446 
2658.116 24558514 24682018 24806718 24932678 25059590 25187274 25315560 
2661.491 25443778 25571436 25697864 25822820 25945806 26067032 26186954 
2664.867 26305784 26424364 26543080 26662078 26781566 26901332 27020886 
2668.242 27140158 27258754 27377098 27495690 27615584 27737702 27862856 
2671.617 27991438 28122888 28256144 28389690 28521898 28651702 28778466 
2674.992 28902148 29023176 29142038 29259058 29374298 29487868 29599660 
2678.368 29709988 29819456 29929060 30040148 30153822 30271682 30394974 
2681.743 30524984 30662926 30809948 30966450 31132794 31308894 31494178 
2685.118 31688276 31890844 32101672 32320778 32547850 32782440 33023446 
2688.493 33270062 33521182 33776424 34035904 34300020 34569528 34845240 
2691.869 35127128 35415024 35708540 36006968 36310720 36620092 36935492 
2695.244 37257836 37586996 37922440 38263252 38608348 38956584 39307560 
2698.619 39661000 40016984 40375588 40736556 41099504 41463848 41829044 
2701.994 42194372 42559344 42923160 43284608 43642220 43994148 44338288 
2705.370 44672456 44994496 45302136 45593032 45864856 46115632 46343108 
2708.745 46546280 46724236 46877204 47005600 47110324 47192504 47253228 
2712.120 47293168 47313120 47313748 47295128 47257220 47198928 47119448 
2715.495 47017788 46892968 46744828 46573688 46380708 46167588 45936600 
2718.871 45690344 45431172 45162148 44885688 44604596 44321700 44039360 
2722.246 43760352 43487420 43223772 42972136 42735672 42516584 42316676 
2725.621 42136608 41976432 41834956 41711476 41605640 41517440 41447484 
2728.996 41396816 41365872 41354724 41362192 41386504 41425756 41477992 
2732.372 41541976 41616944 41703124 41800264 41908044 42025632 42151284 
2735.747 42283256 42419580 42558320 42698456 42838640 42978428 43116908 
2739.122 43253604 43387852 43519028 43646248 43769256 43887720 44001704 
2742.497 44112008 44219632 44326140 44433120 44541884 44653104 44766736 
2745.873 44882016 44997948 45113512 45228332 45342332 45456076 45570140 
2749.248 45684528 45798800 45911736 46021724 46127500 46228324 46324600 
2752.623 46417580 46509252 46601756 46696896 46795900 46899612 47008036 
2755.998 47120996 47238048 47358752 47482704 47609244 47737376 47865356 
2759.374 47991156 48111516 48223204 48323040 48407852 48475532 48524548 
2762.749 48554188 48564380 48555004 48526104 48478128 48410780 48325184 
2766.124 48222168 48103928 47972728 47831472 47683236 47531016 47377856 
2769.499 47226228 47079044 46938520 46806492 46684096 46572320 46470456 
2772.875 46378164 46294668 46219220 46151228 46090100 46035352 45986252 
2776.250 45941312 45898848 45856316 45811244 45760732 45701720 45631340 
2779.625 45546624 45444892 45324460 45184760 45026544 44852144 44665040 
2783.000 44469496 44269492 44068956 43870416 43675484 43485476 43300568 
2786.375 43121300 42947920 42780500 42618988 42462580 42310396 42160780 
2789.751 42012308 41863380 41713556 41563088 41413108 41265260 41121832 
2793.126 40984604 40854812 40733280 40619608 40513056 40412316 40316576 
2796.501 40224236 40135044 40047796 39961724 39876072 39789604 39701772 
2799.876 39611596 39518756 39422960 39324536 39223412 39120108 39014792 
2803.252 38907836 38799528 38690636 38581660 38473360 38365596 38258728 
2806.627 38152284 38045940 37939400 37832964 37727780 37625008 37526592 
2810.002 37433940 37348212 37269640 37197912 37132148 37070832 37012884 
2813.377 36956744 36901836 36847620 36794316 36742428 36693316 36648320 
2816.753 36609208 36578024 36556148 36545300 36546992 36562492 36593488 
2820.128 36641976 36709180 36796588 36905224 37034964 37185168 37354312 
2823.503 37539852 37739020 37948480 38164908 38384708 38604256 38820288 
2826.878 39029256 39228456 39415160 39587316 39742872 39880324 39998308 
2830.254 40096232 40173640 40230816 40269020 40289452 40294360 40285416 
2833.629 40265024 40235832 40200900 40163428 40127120 40094488 40067816 
2837.004 40047976 40034640 40026828 40023884 40026392 40036060 40056152 
2840.379 40091072 40145584 40223908 40329920 40466972 40638308 40848220 
2843.755 41102088 41405964 41766920 42190208 42678788 43230616 43837208 
2847.130 44483516 45145532 45793388 46393284 46907916 47303880 47554232 
2850.505 47641116 47559112 47314892 46926560 46418836 45821924 45168212 
2853.880 44486784 43805356 43147428 42530512 41968440 41469208 41035880 
2857.256 40667308 40358388 40101720 39888424 39709576 39557152 39424268 
2860.631 39305456 39196216 39093204 38993660 38895768 38798368 38701684 
2864.006 38606644 38515536 38431332 38357672 38298608 38257536 38238136 
2867.381 38243132 38274288 38332628 38417464 38527380 38659340 38809132 
2870.757 38971152 39139284 39306764 39467296 39615376 39747776 39863256 
2874.132 39962924 40050084 40129120 40205592 40283816 40367548 40459700 
2877.507 40561508 40673456 40795700 40927912 41069932 41221756 41383548 
2880.882 41555868 41739012 41933552 42139052 42354372 42576736 42802584 
2884.258 43026644 43243720 43448380 43636392 43804880 43952752 44080948 
2887.633 44191972 44290148 44380636 44469640 44563584 44668820 44791864 
2891.008 44938896 45116380 45331560 45593544 45913064 46303296 46778888 
2894.383 47354648 48044040 48855652 49790308 50837336 51972932 53157904 
2897.759 54336688 55445720 56415096 57176556 57677988 57885288 57790460 
2901.134 57410692 56786744 55975384 55036396 54032528 53018132 52035120 
2904.509 51116832 50285328 49553932 48930112 48416708 48012772 47715408 
2907.884 47520924 47425528 47426452 47522036 47711524 47994044 48367480 
2911.260 48827136 49365084 49969788 50625556 51312856 52010020 52691808 
2914.635 53331960 53906504 54392904 54775348 55045124 55201692 55251812 
2918.010 55207144 55082960 54893764 54652264 54368084 54047160 53692656 
2921.385 53306000 52887796 52439340 51963672 51465880 50953608 50437132 
2924.760 49927372 49436068 48974244 48549928 48169336 47834836 47546212 
2928.136 47300556 47093300 46918844 46770952 46643624 46531160 46428312 
2931.511 46330424 46233704 46134204 46028540 45913136 45784476 45639956 
2934.886 45477488 45296472 45098036 44884516 44659416 44426660 44190648 
2938.261 43955540 43725796 43506248 43301704 43116984 42956408 42823024 
2941.637 42717980 42640080 42586204 42550572 42525796 42502664 42471020 
2945.012 42419472 42337276 42214892 42045416 41826456 41561044 41257684 
2948.387 40928172 40587884 40251716 39931976 39637988 39374344 39141500 
2951.762 38936864 38756092 38593972 38445592 38307004 38174824 38046552 
2955.138 37920596 37795512 37670428 37544512 37416892 37287408 37155536 
2958.513 37021616 36886468 36751044 36616776 36485472 36358384 36237060 
2961.888 36122828 36016508 35919288 35831948 35755164 35689404 35635304 
2965.263 35592792 35562404 35544280 35538992 35547048 35568804 35604048 
2968.639 35652140 35712100 35782436 35862172 35950672 36047832 36154048 
2972.014 36269656 36394520 36527852 36667644 36810688 36952700 37088480 
2975.389 37211088 37313148 37386272 37421700 37411804 37350376 37233976 
2978.764 37062856 36840948 36575968 36277760 35958340 35630520 35305824 
2982.140 34994692 34705140 34442176 34207516 33999960 33816252 33651312 
2985.515 33499922 33358000 33222846 33094064 32972862 32861594 32761682 
2988.890 32672684 32590852 32508854 32416486 32301326 32151870 31959672 
2992.265 31721000 31438250 31120444 30781492 30436446 30100834 29786596 
2995.641 29500636 29245022 29017118 28811994 28623706 28446996 28278246 
2999.016 28115464 27957726 27804812 27656580 27513376 27374736 27241148 
3002.391 27112822 26990316 26873908 26763276 26658062 26557416 26460668 
3005.766 26367570 26278396 26194204 26116150 26045500 25982740 25927902 
3009.142 25879718 25836920 25797326 25759388 25721560 25682996 25643872 
3012.517 25604506 25566198 25530142 25497464 25469320 25446096 25428178 
3015.892 25415812 25408822 25407170 25410614 25418658 25430286 25444198 
3019.267 25458568 25472060 25483444 25492122 25498202 25501928 25503824 
3022.643 25503578 25501294 25496480 25488996 25479860 25470796 25464366 
3026.018 25463592 25471182 25488750 25516930 25554742 25599692 25648794 
3029.393 25698288 25744342 25783894 25814238 25833826 25842370 25840438 
3032.768 25829816 25812480 25790926 25767370 25743812 25721806 25702716 
3036.144 25687600 25677230 25671886 25671394 25675016 25681834 25690974 
3039.519 25701696 25714036 25728344 25745500 25766174 25790962 25819902 
3042.894 25852814 25889354 25929378 25972608 26019008 26067982 26118402 
3046.269 26168828 26217960 26264422 26307930 26348910 26388306 26427674 
3049.645 26467572 26508812 26551182 26593910 26636536 26678532 26719686 
3053.020 26759928 26799080 26836724 26872464 26906022 26937432 26967294 
3056.395 26996876 27027340 27059818 27095012 27132540 27172078 27212960 
3059.770 27254624 27297104 27340612 27385394 27431696 27479734 27529472 
3063.146 27580982 27634652 27690622 27749604 27811878 27877410 27945994 
3066.521 28016884 28089518 28163048 28236768 28310108 28382298 28452622 
3069.896 28520588 28585908 28648870 28709856 28769720 28829308 28889152 
3073.271 28949784 29011202 29073658 29137504 29203238 29271216 29341896 
3076.646 29414752 29488756 29562486 29634422 29703708 29770024 29834292 
3080.022 29897860 29962182 30028574 30097284 30168276 30240598 30313000 
3083.397 30384596 30454536 30522460 30588582 30653470 30717370 30781316 
3086.772 30846018 30912154 30980362 31051216 31125142 31202428 31283502 
3090.147 31368400 31457022 31549082 31643406 31738680 31833258 31925398 
3093.523 32014276 32099534 32181914 32262922 32344516 32428480 32516676 
3096.898 32609854 32708232 32811314 32917992 33026416 33135116 33242196 
3100.273 33346516 33447600 33545594 33641356 33736352 33831296 33926872 
3103.648 34023000 34119012 34214364 34308732 34402152 34495516 34589840 
3107.024 34686012 34784212 34884232 34985388 35086536 35187168 35287064 
3110.399 35386516 35486100 35586536 35688288 35791500 35896220 36002220 
3113.774 36109432 36217504 36326176 36434768 36542596 36649080 36753928 
3117.149 36857396 36960240 37063652 37168568 37275816 37385404 37496720 
3120.525 37608708 37720080 37829708 37936800 38041236 38142880 38242264 
3123.900 38340008 38436760 38533388 38630836 38729936 38831412 38935708 
3127.275 39043032 39153392 39266644 39382072 39498908 39616352 39732996 
3130.650 39848360 39961580 40072320 40181308 40289672 40398456 40509236 
3134.026 40622592 40738632 40856672 40975504 41093604 41210064 41323928 
3137.401 41435088 41543800 41650712 41756452 41862212 41968620 42076296 
3140.776 42185792 42296952 42409568 42523056 42636716 42749972 42862268 
3144.151 42973600 43084124 43194272 43304740 43416228 43529540 43645332 
3147.527 43763836 43885776 44010684 44138236 44267360 44397224 44526872 
3150.902 44655856 44783928 44911300 45038192 45164760 45291028 45416932 
3154.277 45542212 45666712 45790700 45913912 46036312 46157492 46276976 
3157.652 46394132 46508920 46622044 46734752 46848896 46965580 47085984 
3161.028 47209752 47336064 47463560 47591052 47717848 47843864 47969288 
3164.403 48094044 48217876 48339852 48458676 48573532 48684712 48792844 
3167.778 48899852 49007628 49117660 49230496 49345556 49461092 49575656 
3171.153 49687388 49795140 49898232 49996848 50091328 50182440 50271004 
3174.529 50357428 50442196 50525416 50606640 50685764 50762064 50835512 
3177.904 50906288 50975108 51042964 51111128 51180536 51252004 51325756 
3181.279 51402060 51480576 51561012 51642656 51724240 51804276 51881184 
3184.654 51953476 52021148 52084764 52146032 52207644 52271432 52338560 
3188.030 52408760 52480764 52552712 52622868 52690688 52756492 52821896 
3191.405 52888324 52957224 53028948 53103080 53178464 53253892 53327988 
3194.780 53400000 53469620 53536372 53600616 53662812 53723440 53783512 
3198.155 53844048 53905716 53968628 54032528 54096324 54158776 54219212 
3201.531 54277136 54332972 54387272 54441052 54494580 54548260 54602136 
3204.906 54656172 54710660 54765496 54820680 54875868 54930088 54982280 
3208.281 55031620 55077920 55121896 55164704 55208236 55253728 55301632 
3211.656 55351500 55402428 55453552 55504076 55554268 55604652 55655796 
3215.031 55707780 55760180 55811720 55861268 55908108 55952356 55995172 
3218.407 56038184 56083312 56131832 56184924 56242404 56304256 56369556 
3221.782 56437396 56507056 56577028 56646216 56713720 56778628 56840900 
3225.157 56900920 56959732 57018252 57077652 57138496 57201048 57264932 
3228.532 57329280 57393712 57457056 57518936 57579276 57638596 57697816 
3231.908 57758216 57821388 57888092 57958056 58030424 58103176 58174316 
3235.283 58242360 58306700 58368436 58429308 58491364 58556084 58623964 
3238.658 58694464 58766460 58838960 58911508 58984640 59059040 59135192 
3242.033 59213220 59292024 59370236 59446520 59520580 59592560 59664244 
3245.409 59737580 59813932 59893796 59977020 60062392 60148656 60235208 
3248.784 60321464 60407668 60493732 60579284 60663212 60744072 60820752 
3252.159 60892640 60960544 61025896 61091032 61158088 61228432 61302180 
3255.534 61378848 61456516 61533436 61608080 61679604 61747476 61812032 
3258.910 61873388 61931888 61987644 62040388 62089888 62136260 62179460 
3262.285 62219916 62258232 62294716 62329824 62363220 62394848 62424232 
3265.660 62451164 62475728 62498492 62519728 62540240 62560020 62579384 
3269.035 62597640 62614440 62629020 62640696 62648892 62653176 62653676 
3272.411 62650652 62644908 62637560 62630096 62623628 62618920 62615820 
3275.786 62613636 62611148 62607364 62601468 62593624 62584972 62576324 
3279.161 62568784 62563160 62559104 62556312 62553860 62551604 62549384 
3282.536 62547816 62547432 62548696 62551832 62556616 62563008 62571080 
3285.912 62580608 62592172 62605412 62620068 62635376 62650532 62665120 
3289.287 62679516 62695012 62713312 62736204 62764840 62799416 62839352 
3292.662 62883736 62931532 62982440 63036756 63095032 63158064 63225896 
3296.037 63298032 63373744 63452348 63533464 63617192 63703864 63793772 
3299.413 63886844 63982316 64079040 64176360 64273856 64372412 64473800 
3302.788 64580052 64693176 64814368 64943632 65079792 65221540 65366760 
3306.163 65513684 65661236 65808960 65957224 66107132 66260368 66418596 
3309.538 66583180 66754744 66933140 67117248 67305624 67496512 67689000 
3312.914 67882344 68076752 68272672 68470192 68668976 68868464 69067656 
3316.289 69265736 69462504 69657928 69852848 70048104 70244600 70442360 
3319.664 70642048 70843384 71046056 71249264 71452360 71653832 71852552 
3323.039 72047096 72237112 72422824 72604776 72784376 72962248 73138664 
3326.415 73312760 73482688 73646672 73802984 73951176 74090656 74222136 
3329.790 74346248 74463480 74574056 74678288 74775880 74866336 74948672 
3333.165 75021320 75081816 75127936 75157560 75169696 75165440 75146256 
3336.540 75115296 75075280 75027624 74972608 74909096 74835088 74748880 
3339.916 74649320 74536008 74408848 74267616 74112200 73942104 73757192 
3343.291 73557560 73344416 73118864 72882184 72634976 72377104 72107568 
3346.666 71825384 71530480 71223608 70906656 70582288 70253096 69921192 
3350.041 69587720 69253224 68917816 68581384 68243632 67904312 67563096 
3353.417 67219552 66873500 66525632 66177048 65830128 65487528 65151820 
3356.792 64825140 64507784 64199792 63900240 63608176 63322872 63044532 
3360.167 62773192 62508748 62250776 61998272 61750112 61505456 61264256 
3363.542 61027000 60794836 60569344 60351392 60141692 59940012 59746212 
3366.917 59559420 59379808 59206880 59040552 58880092 58724848 58573336 
3370.293 58423968 58274872 58124580 57971348 57814160 57651992 57484252 
3373.668 57310412 57130636 56944472 56751744 56551964 56344392 56128480 
3377.043 55903660 55669656 55426556 55174188 54912452 54640200 54356256 
3380.418 54058868 53746800 53419636 53077848 52723120 52357920 51984436 
3383.794 51604448 51219344 50829588 50435236 50036892 49634936 49230384 
3387.169 48824540 48418852 48014360 47612720 47214404 46819888 46429564 
3390.544 46042760 45658948 45277128 44896968 44518904 44143736 43773180 
3393.919 43408760 43051632 42701384 42356856 42015448 41674604 41332780 
3397.295 40989448 40645584 40303016 39964160 39630548 39302844 38980540 
3400.670 38662348 38346740 38032084 37717120 37401260 37084004 36765108 
3404.045 36444316 36121928 35798660 35475528 35154508 34837128 34525220 
3407.420 34219596 33920492 33627000 33337784 33050728 32764502 32478110 
3410.796 32191514 31905714 31622346 31343330 31070362 30804470 30545850 
3414.171 30294490 30049416 29810158 29576212 29347212 29122942 28902892 
3417.546 28685894 28470560 28255120 28038512 27820640 27602590 27386592 
3420.921 27175322 26971418 26776138 26589366 26409292 26232954 26057568 
3424.297 25880598 25700642 25518232 25334808 25152690 24974474 24802508 
3427.672 24637270 24478442 24324400 24172552 24019984 23864742 23706020 
3431.047 23544278 23381722 23220694 23063570 22912058 22766114 22624650 
3434.422 22486168 22348458 22210166 22071012 21931066 21791374 21653260 
3437.798 21517244 21383776 21252262 21121868 20991476 20859872 20726328 
3441.173 20590880 20454326 20318166 20184268 20054296 19929186 19808310 
3444.548 19689682 19570812 19448962 19322848 19192788 19061002 18930708 
3447.923 18805196 18686360 18574196 18466868 18361846 18256368 18149048 
3451.299 18039682 17929378 17819550 17711510 17605498 17501374 17398002 
3454.674 17294928 17191810 17088924 16986474 16884568 16782682 16679823 
3458.049 16575405 16468879 16360728 16251709 16143268 16036605 15932102 
3461.424 15829789 15729664 15631622 15535697 15442197 15351224 15262294 
3464.800 15174480 15086341 14996813 14905486 14812191 14718230 14625043 
3468.175 14533315 14444073 14357178 14272662 14190697 14111520 14035505 
3471.550 13962891 13892753 13823584 13753639 13680935 13604928 13526233 
3474.925 13446800 13369433 13296350 13228812 13166647 13108590 13052998 
3478.301 12997892 12942689 12886607 12829610 12771632 12712603 12652764 
3481.676 12592864 12534099 12478751 12428422 12383896 12344657 12308830 
3485.051 12273212 12235381 12193770 12148653 12102145 12057276 12017045 
3488.426 11983188 11956076 11934619 11916944 11901313 11886057 11870699 
3491.802 11855069 11839270 11823948 11809341 11796437 11786394 11780776 
3495.177 11781048 11788266 11802701 11824084 11851528 11883877 11920350 
3498.552 11960368 12003727 12049986 12098976 12149709 12201369 12253376 
3501.927 12305865 12359691 12416967 12479911 12550640 12630625 12720246 
3505.302 12818861 12925110 13036677 13151825 13268643 13386040 13503912 
3508.678 13622911 13744370 13870174 14001695 14139382 14283243 14431707 
3512.053 14583031 14735437 14887759 15039173 15189097 15337287 15482438 
3515.428 15623344 15758077 15885014 16003190 16112799 16214354 16308744 
3518.803 16396133 16475832 16546044 16604425 16648872 16677827 16690979 
3522.179 16688775 16671905 16641434 16597643 16540296 16468260 16380237 
3525.554 16274240 16149011 16003601 15838208 15654396 15454661 15242698 
3528.929 15022228 14796181 14566893 14335328 14102038 13866856 13630399 
3532.304 13392874 13154796 12916508 12677224 12436368 12193429 11949060 
3535.680 11704794 11463727 11228982 11003269 10787624 10581152 10381632 
3539.055 10186851 9994599 9804465 9616752 9432913 9254092 9080624 8911858 
3542.912 8746911 8584256 8422608 8261528 8100540 7939984 7780060 7621915 
3546.770 7466996 7317558 7176222 7044529 6923381 6811454 6706252 6603969 
3550.627 6501273 6396113 6288558 6180357 6074200 5972570 5876572 5786035 
3554.485 5699344 5614584 5530578 5446790 5363723 5282013 5202129 5123769 
3558.342 5046127 4968163 4889142 4809363 4729633 4651392 4576546 4506535 
3562.199 4442192 4383481 4329597 4278130 4225966 4168890 4102556 4023826 
3566.057 3932403 3830772 3725989 3626844 3540817 3473210 3424215 3390419 
3569.914 3365608 3343571 3319363 3290050 3255196 3215505 3172513 3127423 
3573.772 3080369 3031252 2980104 2927128 2873625 2821296 2771674 2726192 
3577.629 2685016 2647477 2612209 2578076 2544013 2509919 2476294 2444071 
3581.487 2414650 2389295 2368906 2353148 2340988 2329229 2314006 2290455 
3585.344 2254050 2202028 2134862 2056621 1974732 1898449 1835955 1792335 
3589.201 1768014 1759298 1760429 1764621 1766051 1760629 1746423 1723136 
3593.059 1692300 1656244 1617663 1579452 1543439 1511551 1484154 1461480 
3596.916 1443295 1428535 1416235 1404767 1393465 1381465 1368635 1355905 
3600.774 1343972 1334434 1328418 1326291 1328119 1333370 1340748 1349091 
3604.631 1356337 1360259 1358032 1346931 1324596 1290066 1245171 1193336 
3608.489 1140478 1093074 1054643 1026312 1005156 985961 963479 934025 897633 
3612.828 857659 820377 791597 774934 770320 773208 776792 773838 758536 
3617.168 727603 681936 624793 563013 504327 455666 422299 406944 408768 
3621.507 425284 452581 486348 522772 559464 595462 630036 662855 691527 
3625.847 711141 714593 692888 638365 549477 434306 311671 206010 137892 
3630.187 115653 133915 177568 229977 276823 308488 322182 320192 309084 
3634.526 295490 284615 278249 275431 273508 269861 263628 255173 246089 
3638.866 237669 230143 223115 215358 206208 196197 187081 181910 183236 
3643.205 192418 209092 230276 252223 269728 278846 276326 260577 231834 
3647.545 191324 141240 83837 22730 -37207 -89518 -126421 -141094 -129965 
3651.885 -94057 -39096 25911 89272 139881 169281 172629 151250 112504 69288 
3656.706 33566 14877 15805 33069 59976 88675 113034 128943 135473 133318 
3661.528 124966 113532 102097 93613 90399 94044 105213 123044 145350 168452 
3666.350 187844 197954 193347 169248 122977 55900 -25413 -107738 -174084 
3670.689 -209157 -204753 -162624 -93295 -13916 56000 99711 103456 63655 
3675.029 -11431 -100947 -179615 -229193 -243930 -229690 -198692 -163088 
3678.886 -130329 -103233 -81104 -61127 -41150 -21139 -1855 14943 28761 41419 
3683.708 55834 75253 100374 128711 153901 168254 163414 134412 81484 11464 
3688.530 -64341 -133807 -187564 -221842 -237572 -238300 -226842 -205779 
3692.387 -176866 -141359 -102305 -63413 -28925 -2783 13353 19582 18986 15937 
3697.209 14115 15672 20145 24354 23890 14148 -7256 -39493 -78851 -118438 
3702.031 -150534 -168950 -170606 -155768 -127249 -89850 -48439 -6891 31677 
3706.371 65875 94839 118503 136235 147007 149195 140908 120127 86190 40392 
3711.192 -13651 -69310 -118371 -153284 -168321 -161862 -136358 -97171 -51288 
3715.532 -6229 31511 58120 72072 74624 69089 59347 48709 39099 30517 22299 
3720.836 13684 4473 -4141 -10569 -12888 -10669 -4605 2982 9012 11431 10039 
3726.140 7157 7157 15540 36614 71608 118039 170541 221391 261970 286405 
3730.962 291611 278614 252786 221126 189302 159205 128811 94044 51957 3777 
3735.783 -44430 -83390 -104889 -105187 -86404 -54005 -14280 28595 73563 
3740.123 120856 171071 220795 262235 282029 264622 198750 84500 -58875 
3744.463 -196009 -286614 -307474 -260554 -167659 -57914 42413 113333 145151 
3748.802 137992 101435 49405 -4075 -49963 -85113 -109792 -124301 -126984 
3753.142 -115324 -88094 -47213 2253 53448 99744 135937 159437 170010 169182 
3757.964 158939 140975 117210 90730 66206 50300 48709 64185 94541 133285 
3762.785 170508 196463 204717 194341 170474 142035 119298 108925 111543 
3767.125 122116 132954 136732 129208 111178 87814 66935 55933 58651 74922 
3771.947 101501 133086 164409 191921 213866 230740 243901 255638 267208 
3776.286 278481 287334 290384 284747 268700 243669 214529 188374 172165 
3780.626 170209 182374 204584 230508 253251 267772 272646 269330 261638 
3784.966 253947 249571 249703 253847 260478 267573 273939 278647 281034 
3789.305 280570 276989 270656 263197 257196 255638 260677 271916 286770 
3793.645 299999 305470 299104 279807 251294 221657 200805 195965 209358 
3797.984 236906 269198 293733 298242 274337 220994 146941 69355 10271 -13054 
3802.806 5500 60109 136467 216684 282824 321220 325232 296949 247946 195700 
3807.628 158310 146112 160332 194242 238232 283322 324171 359255 390361 
3811.968 419447 447374 470692 483495 478288 449364 396397 326791 256500 
3816.307 203755 181877 194639 235348 289522 338861 367280 362505 320557 
3820.647 248178 162917 87880 41353 32406 57557 105511 161724 212938 250631 
3825.469 271850 279210 279608 281167 289920 308090 332959 359288 381440 
3829.808 394706 397326 390859 378787 366053 356867 354513 359951 372221 
3834.148 388902 406313 419812 424588 416495 393645 357232 312069 266247 
3838.487 228022 203656 195601 201899 218209 238730 258124 272778 281233 
3842.827 283388 280669 275994 272182 272182 278481 292141 313096 340353 
3847.167 372188 407342 445019 485220 528079 572436 614375 646130 656649 
3851.506 632525 562781 444322 288925 124701 -14611 -102637 -130296 -105916 
3855.846 -46749 29125 108394 181977 245957 299038 341481 373846 396663 
3860.185 410658 416827 416926 411852 402499 387940 366915 339358 307858 
3864.525 279310 263064 267772 297347 348444 410459 467540 503995 507910 
3868.865 475800 415500 345261 286737 254875 253449 274237 303945 327918 
3873.204 337269 330770 314456 298739 293932 306100 335147 375703 419115 
3877.544 456727 481903 490528 482633 461968 436097 413676 402831 408701 
3881.883 431088 464887 500446 527018 534316 515838 472483 413975 356204 
3886.223 316611 307294 330704 379650 440375 498190 539790 556909 548051 
3890.563 518227 478453 440972 415965 409099 419779 444090 476032 510597 
3894.902 543572 572569 596457 614375 625656 629704 626021 614739 597121 
3899.242 575521 552596 530733 511128 493148 474738 453875 428899 400742 
3903.581 372652 349837 337667 340154 358160 388869 427573 468403 506019 
3907.921 537037 559895 574924 583882 588726 591547 593936 597054 601899 
3912.260 609099 618655 629970 641285 649846 653132 649216 637900 620812 
3916.600 601202 583020 568952 560625 557473 558037 561355 566862 575322 
3920.940 587499 603591 622404 640953 655454 662191 659437 648021 631496 
3925.279 615005 603292 599477 604321 616067 631695 647955 661793 671549 
3929.619 676228 675465 669226 658308 644006 628244 614010 604221 601036 
3933.958 605250 616100 631032 646926 661394 672478 680177 685587 690365 
3938.298 696339 704337 714061 724118 732415 736796 735435 727968 715024 
3942.638 699094 682998 669691 661660 659802 663585 671250 679879 686815 
3946.977 689835 687677 681040 670885 659403 648785 640887 637303 638929 
3951.317 646329 659403 677755 699857 723952 747749 768959 786319 799232 
3955.656 808560 815830 823000 831399 841425 852247 862573 870175 873462 
3959.996 871636 864531 853243 839632 825988 814469 806634 803647 805506 
3964.336 811448 819946 829473 838503 846172 852314 857194 861577 866025 
3968.675 870806 876284 882360 889200 896903 905901 916127 926886 937279 
3973.015 945746 950760 951790 948934 943588 938042 934224 934124 938474 
3977.354 946543 957867 970652 983470 995392 1005588 1013692 1019437 1023223 
3981.694 1025249 1026644 1028205 1030431 1033187 1035977 1037272 1035811 
3985.552 1030563 1021496 1009640 996887 985031 975766 969855 966932 965969 
3989.891 966003 966268 966733 967630 969589 972843 977360 982607 987821 
3994.231 992503 996289 999145 1001404 1003562 1005655 1008012 1010271 
3998.088 1012396 1013592 1013592 1012131 1008345 1002533 
##END=
