##TITLE=1541_1_a
##JCAMP-DX=5.01  $$ Nicolet v. 1
##DATATYPE=INFRARED SPECTRUM
##ORIGIN=UniL
##OWNER=Nicolet
##LONGDATE=2011/09/29
##TIME=14:06:42
##SPECTROMETER/DATA SYSTEM=Nicolet iS5
##DATA PROCESSING=
Ratio against background
%Transmittance->Absorbance
Truncated
ElementMultiply or ElementDivide
##COMMENTS=
Number of sample scans: 32
Collection length: 51.20 sec
Sample gain: 2.0
Background collected on: Jeu Sep 29 14:04:42 2011 (GMT+02:00);
Number of background scans: 32
Background gain: 2.0
Sample spacing:  1.000
Number of scan points: 12415
Resolution points: 8192
Number of FFT points: 65536
Apodization: N-B fort;
Phase correction: Mertz;
Laser frequency: 15798.0 cm-1
Number of rejected sample scans: 0
Number of rejected background scans: 0
Bench serial number: ASB1000141;
##RESOLUTION=4.000
##XUNITS=1/CM
##YUNITS=ABSORBANCE
##FIRSTX=649.893372
##LASTX=4000.122314
##FIRSTY=0.092637
##MAXX=4000.122314
##MINX=649.893372
##MAXY=0.257444
##MINY=-0.003094
##XFACTOR=1.000000
##YFACTOR=1.000000E-009
##NPOINTS=6950
##DELTAX=0.482117
##ZPD=6100
##XYDATA=(X++(Y..Y))
649.893 92636888 91938736 91341776 90863504 90487768 90180304 89907280 
653.268 89654464 89429000 89254096 89153960 89140784 89209992 89347584 
656.643 89534608 89760544 90024016 90326728 90664888 91024336 91379072 
660.018 91702256 91979112 92211888 92420856 92634352 92879096 93168360 
663.393 93500600 93862872 94238032 94611224 94965880 95281552 95528328 
666.767 95666160 95663104 95524528 95309856 95105888 94985592 94970912 
670.142 95035368 95124816 95179768 95157368 95038624 94836592 94584936 
673.517 94326336 94088968 93876032 93667680 93433624 93148984 92805072 
676.892 92409912 91981312 91535520 91079712 90611440 90125496 89621152 
680.267 89105424 88591088 88088728 87600808 87119672 86633408 86131688 
683.642 85614680 85093088 84583152 84097112 83636424 83189792 82740096 
687.016 82274768 81793368 81309904 80848064 80430928 80069920 79762728 
690.391 79495976 79255512 79034616 78840016 78687120 78594200 78572480 
693.766 78619456 78721800 78860800 79022296 79202264 79409088 79656320 
697.141 79958264 80322320 80746816 81224208 81746728 82309888 82914672 
700.516 83564408 84259920 84995728 85761152 86541112 87321824 88095544 
703.890 88859264 89611704 90349648 91062712 91734336 92347560 92888896 
707.265 93354328 93750400 94090864 94392096 94668288 94932360 95196600 
710.640 95475976 95790248 96160304 96603096 97124944 97716168 98349544 
714.015 98981432 99562144 100041464 100376336 100540064 100523944 100341720 
717.390 100028280 99643416 99266088 98979064 98866544 98993712 99392704 
720.765 100058152 100942160 101962408 103003416 103939912 104653608 
723.657 105042856 105051216 104674224 103967528 103032944 102002344 
726.550 101012560 100166176 99524272 99098432 98862264 98768328 98768496 
729.925 98829688 98933160 99071960 99241528 99432448 99630000 99819840 
733.300 99993456 100153280 100310880 100481216 100673816 100888144 101114672 
736.674 101340896 101558448 101768488 101979384 102202488 102444136 
739.567 102700808 102961288 103211336 103442736 103656544 103862888 
742.460 104073448 104295280 104525912 104754384 104967360 105156768 
745.352 105323952 105479464 105635376 105799488 105970856 106141536 
748.245 106302208 106449480 106588792 106732168 106891872 107071816 
751.138 107264680 107454288 107624864 107768128 107887936 107998688 
754.031 108117424 108254464 108408096 108566584 108714832 108843592 
756.923 108953736 109055392 109160952 109278592 109405600 109532432 
759.816 109647144 109744104 109828104 109912128 110009528 110128504 
762.709 110266576 110414848 110564032 110713688 110874688 111068960 
765.601 111321536 111651248 112068400 112571824 113152864 113796992 
768.494 114485112 115194328 115897176 116573512 117222864 117883792 
771.387 118636728 119595280 120875424 122536640 124535656 126686512 
774.279 128692344 130170496 130751224 130199640 128459392 125686256 
777.172 122177920 118314336 114441816 110793736 107488616 104523848 
780.065 101824032 99282712 96809504 94350592 91888536 89436568 87023952 
783.440 84687480 82460968 80376576 78462752 76739912 75221304 73911264 
786.815 72805736 71897048 71178952 70650856 70319160 70196032 70293520 
790.189 70622592 71190696 72003328 73069424 74402792 76020992 77941040 
793.564 80168664 82687384 85446880 88363576 91316832 94148024 96687080 
796.939 98749408 100155576 100767120 100496424 99335688 97361784 94737104 
800.314 91685720 88443832 85250792 82297952 79702448 77507232 75674560 
803.689 74109680 72679032 71254720 69744216 68107944 66370448 64606660 
807.063 62920736 61403576 60113192 59053648 58178296 57402184 56626020 
810.438 55769296 54779556 53643616 52379824 51027384 49630740 48227356 
813.813 46848452 45516712 44248944 43061112 41966064 40973064 40086424 
817.188 39304152 38619792 38024564 37511420 37076100 36717220 36435524 
820.563 36231260 36103924 36052256 36075588 36175404 36356508 36626548 
823.938 36994552 37468652 38053644 38748124 39542672 40414928 41327972 
827.312 42231324 43057196 43733380 44193000 44384308 44288384 43923020 
830.687 43344648 42633392 41885164 41197164 40647260 40292144 40158124 
834.062 40237104 40487012 40833260 41183612 41429220 41469028 41230864 
837.437 40679608 39830168 38739788 37499936 36211092 34962696 33826676 
840.812 32843296 32026332 31369470 30855800 30463778 30171652 29961222 
844.186 29815766 29720454 29664540 29640274 29644462 29676850 29738798 
847.561 29830068 29948870 30090644 30250364 30425322 30615104 30822114 
850.936 31049400 31299062 31570532 31861820 32170604 32497178 32845334 
854.311 33222024 33634732 34090552 34593964 35147428 35754012 36419416 
857.686 37152940 37967932 38880004 39904076 41054852 42346192 43791504 
861.060 45405160 47198412 49173164 51313416 53576928 55892508 58155148 
864.435 60245024 62038364 63421020 64316004 64687908 64554296 63980780 
867.810 63079708 61997580 60885364 59897028 59166556 58789184 58828788 
871.185 59309156 60218536 61511408 63112004 64921476 66807180 68618520 
874.560 70196888 71378504 72030936 72067512 71459936 70244168 68511856 
877.935 66397472 64044900 61599488 59191804 56916896 54844212 53013564 
881.309 51438576 50116352 49032332 48166824 47497084 47001096 46658272 
884.684 46447520 46348452 46341924 46410056 46541044 46731436 46988396 
888.059 47328712 47775028 48351108 49073840 49950236 50975180 52135568 
891.434 53412812 54789404 56253300 57797844 59421712 61126580 62913188 
894.809 64778292 66711084 68684920 70652224 72541648 74247056 75642664 
898.183 76597048 76984720 76721368 75776648 74183144 72028832 69446880 
901.558 66599824 63644856 60732068 57988956 55505352 53343272 51534744 
904.933 50085080 48982072 48200952 47712448 47486696 47499044 47732604 
908.308 48176780 48826620 49679664 50734356 51988620 53439080 55078148 
911.683 56892460 58856376 60926344 63043728 65132724 67109360 68901232 
915.058 70454056 71746344 72792952 73644120 74377120 75077600 75835832 
918.432 76726232 77793496 79048288 80457440 81948760 83410120 84714424 
921.807 85741856 86398824 86651040 86533664 86159800 85696120 85350888 
925.182 85347128 85870800 87062376 88986736 91621720 94852016 98470072 
928.557 102210376 105735960 108685768 110726944 111556440 110964520 
931.450 108861808 105288576 100419464 94536160 88014056 81244184 74594440 
934.824 68388896 62850000 58114504 54241100 51224376 49022612 47576784 
938.199 46828928 46718780 47179276 48129692 49453220 50994184 52575672 
941.574 53995228 55065812 55648792 55662540 55105416 54045960 52613524 
944.949 50963740 49250684 47614016 46149088 44911412 43919940 43165396 
948.324 42622424 42258164 42041512 41942784 41934976 41994900 42100208 
951.698 42231144 42372888 42515452 42655176 42794176 42937828 43093164 
955.073 43265680 43459696 43677760 43921264 44191420 44489680 44816032 
958.448 45169872 45548616 45948276 46364968 46796008 47240744 47700612 
961.823 48177816 48673816 49188156 49718672 50261888 50815176 51377596 
965.198 51950452 52536256 53137720 53756288 54392304 55045424 55716140 
968.573 56406268 57119220 57859088 58628964 59430108 60262576 61126272 
971.947 62022464 62955588 63931868 64958528 66041700 67183856 68384816 
975.322 69642952 70957216 72329160 73763440 75265440 76840392 78491176 
978.697 80218872 82024952 83913688 85894832 87984232 90200448 92561312 
982.072 95080976 97765504 100612120 103606576 106723568 109919600 113125992 
985.447 116253160 119178336 121756920 123846464 125309912 126045808 
988.339 126005320 125195224 123681072 121574560 119033016 116233720 
991.232 113355376 110576592 108043480 105866456 104119640 102835104 
994.125 102014288 101636488 101671032 102083312 102839600 103911160 
997.017 105269824 106886952 108736072 110789328 113020328 115404280 
999.910 117911272 120501328 123121544 125695736 128131896 130333632 
1002.803 132203344 133666008 134677632 135230560 135355600 135118736 
1005.695 134619904 133974168 133310600 132760656 132435336 132426440 
1008.588 132796824 133576720 134772896 136374320 138362832 140717488 
1011.481 143418688 146449328 149788976 153414672 157302464 161425776 
1014.374 165759728 170278144 174941824 179690800 184431008 189020656 
1017.266 193290160 197049760 200115888 202356656 203707856 204196576 
1020.159 203935808 203126432 202035360 200943536 200147040 199907440 
1023.052 200412704 201783984 204053472 207177424 211044736 215504320 
1025.945 220389408 225515888 230709104 235800752 240618704 245008656 
1028.838 248834288 251989184 254416496 256106880 257095696 257443808 
1031.731 257228320 256529184 255417968 253964096 252227520 250250928 
1034.624 248054576 245625280 242919248 239864752 236384384 232417888 
1037.517 227931680 222933200 217464752 211598240 205419584 199024816 
1040.410 192520112 186008832 179594576 173373744 167417232 161772512 
1043.303 156457936 151467648 146784016 142389776 138279424 134464672 
1046.196 130973976 127843720 125115704 122826312 121000920 119654896 
1049.089 118790248 118396704 118451584 118921640 119764416 120928344 
1051.982 122362112 124015416 125840128 127794352 129833656 131903616 
1054.875 133940232 135859952 137564720 138958064 139945072 140449200 
1057.768 140423552 139850560 138749408 137173296 135216080 133002328 
1060.661 130675688 128400344 126330432 124599712 123319784 122562816 
1063.554 122366864 122737904 123653056 125062632 126888784 129036504 
1066.448 131385816 133800360 136148720 138301744 140152288 141625632 
1069.341 142672432 143269296 143411264 143105920 142370272 141229200 
1072.234 139718032 137879200 135760800 133419472 130915928 128317864 
1075.127 125707728 123173368 120811440 118721992 116990776 115687672 
1078.020 114858848 114519704 114657528 115229280 116169424 117381608 
1080.913 118744816 120126560 121377032 122356544 122959448 123124352 
1083.806 122857216 122229200 121375624 120466920 119687240 119223376 
1086.699 119227872 119815624 121054864 122956240 125471816 128489536 
1089.592 131851408 135347552 138737824 141796080 144310416 146119584 
1092.485 147132256 147320064 146719120 145412208 143523440 141194016 
1095.378 138562736 135764784 132907512 130067440 127294544 124610216 
1098.271 122016456 119501472 117046000 114624568 112207088 109763552 
1101.164 107265360 104693104 102043872 99336312 96612816 93931552 91366024 
1104.540 88991904 86875560 85076688 83639200 82591640 81950920 81721608 
1107.915 81897264 82460696 83384992 84633968 86160248 87911488 89827288 
1111.290 91837320 93867192 95831928 97636960 99192600 100412112 101225680 
1114.665 101591776 101496032 100953736 100001880 98696584 97103896 95290632 
1118.041 93326560 91273952 89183096 87094040 85031864 83009736 81034016 
1121.416 79108680 77239288 75435736 73710424 72076936 70547432 69130632 
1124.791 67832760 66661248 65625972 64743168 64035304 63526788 63243108 
1128.166 63203976 63419028 63886344 64590088 65502664 66581832 67774976 
1131.542 69020856 70247440 71384240 72368528 73152232 73714904 74066376 
1134.917 74247208 74318336 74354904 74433584 74615368 74942488 75429072 
1138.292 76060080 76790992 77553256 78267416 78844392 79201952 79276752 
1141.667 79022816 78419368 77465648 76177376 74581848 72714328 70619784 
1145.042 68347200 65951020 63490012 61018156 58585736 56236216 54001384 
1148.418 51905492 49965140 48189996 46585488 45153180 43891532 42796076 
1151.793 41859952 41075432 40434204 39929252 39555556 39309812 39189688 
1155.168 39193280 39318008 39560784 39918572 40389440 40973248 41671356 
1158.543 42486000 43418608 44468684 45633364 46906992 48281008 49743084 
1161.919 51276980 52858456 54455212 56028420 57530020 58909120 60118024 
1165.294 61110484 61848744 62304812 62459464 62305652 61848476 61105984 
1168.669 60106492 58886200 57487280 55949716 54312584 52612136 50879540 
1172.044 49144336 47434252 45772956 44182324 42680360 41279944 39990608 
1175.420 38818408 37766452 36837196 36032100 35351828 34796168 34363416 
1178.795 34050736 33854616 33772488 33803932 33950908 34217124 34607132 
1182.170 35124544 35770708 36545224 37446332 38472200 39620600 40888156 
1185.545 42268468 43748660 45307616 46917552 48541260 50137104 51662024 
1188.921 53069720 54316716 55364900 56182436 56751100 57068624 57151232 
1192.296 57031104 56753744 56374160 55944668 55514200 55122760 54795904 
1195.671 54547396 54378448 54280256 54235356 54220036 54208552 54171084 
1199.046 54077484 53898776 53604592 53167192 52563480 51776832 50802436 
1202.422 49649648 48344444 46924712 45437792 43935744 42464592 41063300 
1205.797 39760808 38573184 37507444 36563140 35735124 35015920 34396736 
1209.172 33869408 33425306 33057700 32761786 32535460 32379284 32295902 
1212.547 32288834 32360900 32513320 32745424 33055268 33440154 33896596 
1215.923 34420440 35005968 35644692 36326176 37038320 37768552 38506668 
1219.298 39244520 39976256 40698344 41408008 42103748 42786020 43459184 
1222.673 44131816 44817208 45533084 46298204 47130376 48044744 49051140 
1226.048 50153244 51347200 52621000 53953060 55309916 56650520 57926100 
1229.424 59083220 60074188 60856812 61400296 61689384 61724712 61526416 
1232.799 61131536 60599552 60005668 59432616 58972532 58712216 58725872 
1236.174 59077752 59814200 60965992 62551716 64577668 67038836 69915472 
1239.549 73173448 76758616 80593448 84586984 88628720 92593952 96359920 
1242.925 99795944 102777248 105200456 106982536 108077552 108479840 
1245.818 108223808 107376552 106025848 104279776 102250288 100046264 
1248.711 97774352 95518792 93336384 91249296 89240472 87257944 85225192 
1252.086 83064856 80712896 78136424 75343584 72383320 69338144 66302748 
1255.461 63379116 60656432 58196592 56035620 54177916 52600952 51258936 
1258.836 50091700 49034184 48017804 46984260 45889052 44702716 43415060 
1262.212 42031472 40571004 39060212 37530240 36014168 34540684 33135652 
1265.587 31819460 30605718 29501912 28509724 27625472 26841938 26149932 
1268.962 25540966 25007290 24543228 24144212 23805412 23521612 23286902 
1272.337 23094948 22940838 22821496 22735492 22682528 22662386 22673416 
1275.713 22712588 22775052 22854846 22945416 23039076 23127098 23200036 
1279.088 23248554 23264354 23243030 23183750 23089532 22965082 22814546 
1282.463 22639730 22439620 22211388 21953370 21667538 21361568 21048442 
1285.838 20744922 20469574 20239042 20067656 19967312 19947572 20016994 
1289.214 20183572 20453250 20829456 21311384 21893500 22564548 23307600 
1292.589 24101200 24916256 25717938 26468452 27126824 27658028 28038232 
1295.964 28257982 28325848 28265304 28112602 27906666 27686492 27486936 
1299.339 27333518 27245204 27233246 27300668 27442850 27646764 27893098 
1302.715 28156366 28409536 28628412 28792450 28887772 28907568 28850802 
1306.090 28721646 28528868 28286344 28011122 27722338 27440590 27183154 
1309.465 26962922 26788014 26661232 26582638 26551604 26568124 26632978 
1312.840 26746784 26909124 27117302 27367500 27655838 27979812 28339146 
1316.216 28735628 29171414 29648258 30166502 30725692 31325486 31966768 
1319.591 32651216 33379254 34148368 34949368 35766388 36575828 37347632 
1322.966 38051180 38656116 39138380 39485840 39702060 39809976 39848580 
1326.341 39873712 39946868 40122068 40440352 40917500 41542196 42277524 
1329.717 43071760 43870416 44623876 45300152 45886068 46386612 46820920 
1333.092 47217468 47610096 48030680 48508320 49065716 49714992 50457528 
1336.467 51282204 52169568 53091436 54016580 54915120 55758028 56520188 
1339.842 57182300 57730472 58158292 58465548 58656992 58739032 58716840 
1343.218 58591844 58361200 58018680 57556764 56969820 56255864 55418240 
1346.593 54464376 53406220 52258876 51039232 49767940 48468828 47167976 
1349.968 45897300 44692064 43588036 42623084 41831564 41240956 40873448 
1353.343 40742272 40851972 41196908 41760024 42509532 43395868 44358948 
1356.719 45327880 46227844 46994488 47573308 47926996 48039676 47915708 
1360.094 47580924 47077896 46469792 45833520 45249660 44800124 44549780 
1363.469 44535092 44761444 45203216 45813640 46529648 47284964 48013216 
1366.844 48647388 49131568 49421848 49491576 49335792 48968348 48418040 
1370.219 47718440 46906884 46020472 45092744 44162260 43271576 42465284 
1373.595 41791360 41290184 40985116 40879384 40956168 41187220 41541176 
1376.970 41994168 42533652 43158332 43876244 44702532 45657952 46765236 
1380.345 48046448 49515864 51168308 52965724 54825340 56629604 58223604 
1383.720 59441316 60138536 60195548 59546384 58192008 56220036 53804516 
1387.096 51176656 48597320 46279740 44352380 42857584 41763676 40999828 
1390.471 40479668 40125048 39868700 39653596 39435008 39174460 38842028 
1393.846 38422244 37915824 37341060 36725152 36095392 35468736 34849012 
1397.221 34232072 33613464 32996028 32395602 31838142 31351306 30956450 
1400.597 30661610 30461928 30345154 30298042 30310762 30379338 30505292 
1403.972 30692832 30946310 31266730 31651034 32092254 32582636 33114232 
1407.347 33681600 34281732 34912600 35572112 36257444 36963704 37685316 
1410.722 38417428 39155716 39897468 40639544 41376844 42101996 42805804 
1414.098 43479436 44117988 44722696 45300184 45860884 46416660 46978392 
1417.473 47555192 48156640 48792956 49471824 50197320 50963256 51751452 
1420.848 52535696 53287268 53983296 54608864 55164144 55664800 56140356 
1424.223 56624928 57147868 57726196 58361804 59046132 59767240 60515940 
1427.599 61285696 62070240 62860796 63642248 64395168 65101808 65751664 
1430.974 66346556 66899972 67434704 67975056 68541152 69147680 69804912 
1434.349 70523464 71320160 72221304 73260744 74473552 75877184 77464336 
1437.724 79203976 81046880 82933288 84790544 86538360 88076144 89290928 
1441.100 90081096 90359368 90072160 89204984 87776048 85831632 83434696 
1444.475 80668168 77621912 74382904 71041960 67685056 64400696 61291536 
1447.850 58460092 55995552 53953660 52343604 51135316 50279376 49731564 
1451.225 49463916 49465996 49734276 50255940 50997464 51909228 52922868 
1454.601 53963752 54964156 55860100 56610280 57207288 57687296 58112532 
1457.976 58539856 59005404 59516364 60064904 60640660 61237396 61852260 
1461.351 62480124 63109896 63716912 64262256 64702100 64996512 65128760 
1464.726 65114976 65003820 64856796 64721324 64621880 64554908 64498900 
1468.102 64422644 64292804 64074396 63723588 63186304 62399328 61302028 
1471.477 59866260 58124960 56188244 54209076 52334408 50656232 49197916 
1474.852 47938984 46848824 45912436 45139284 44556056 44186508 44041044 
1478.227 44108780 44365700 44784736 45348036 46052556 46907844 47928880 
1481.603 49127488 50507588 52065004 53793564 55691840 57766504 60030472 
1484.978 62492024 65145044 67951112 70825904 73646632 76243088 78413016 
1488.353 79955464 80680256 80454256 79240600 77119760 74282240 70972464 
1491.728 67441176 63877284 60387448 57019048 53771552 50630992 47600888 
1495.104 44712524 42029500 39634940 37601448 35967696 34728720 33850604 
1498.479 33285052 32987088 32923926 33070464 33405554 33908420 34553924 
1501.854 35313120 36156424 37045464 37934304 38765436 39452384 39881924 
1505.229 39918864 39429924 38347572 36723280 34726568 32563530 30391776 
1508.604 28285850 26256044 24289358 22378878 20531370 18774056 17142724 
1511.980 15665490 14359301 13224099 12246593 11407734 10687602 10067739 
1515.355 9530275 9058801 8641138 8270410 7948556 7681673 7475154 7326522 
1519.212 7223014 7142200 7060054 6960415 6845584 6737648 6667321 6655881 
1523.070 6703897 6794120 6900757 7003009 7089860 7166083 7246834 7351593 
1526.927 7492043 7668453 7871385 8089232 8314922 8549111 8797863 9068646 
1530.785 9363942 9680240 10007720 10335176 10655749 10971936 11294612 
1534.160 11635291 11999946 12383828 12774771 13156231 13512902 13834016 
1537.535 14111416 14340533 14517178 14636831 14694031 14686011 14619046 
1540.910 14509469 14377761 14241914 14108405 13971206 13815477 13626638 
1544.286 13397316 13134544 12856879 12587919 12344930 12130936 11935232 
1547.661 11739549 11527452 11291449 11038206 10785858 10556368 10364020 
1551.036 10209884 10083169 9968662 9854287 9736689 9622003 9522757 9450588 
1554.894 9409075 9392315 9385136 9368377 9318882 9211785 9025782 8752828 
1558.751 8413420 8057502 7745924 7518979 7383778 7324298 7314458 7327869 
1562.608 7341787 7340877 7319175 7281133 7239489 7209909 7204654 7227091 
1566.466 7271463 7326050 7379498 7423582 7456311 7481559 7506336 7537891 
1570.323 7580542 7636449 7706327 7791091 7890887 8003767 8124645 8242921 
1574.181 8345118 8418994 8458792 8471124 8475685 8498390 8557694 8658545 
1578.038 8794109 8952750 9124543 9304359 9493190 9695283 9915674 10156358 
1581.896 10416689 10692560 10978393 11266998 11549467 11814346 12045864 
1585.271 12226656 12340805 12377759 12337533 12231563 12084360 11927740 
1588.646 11797050 11727192 11745507 11871141 12114240 12474523 12939584 
1592.021 13481764 14060590 14619422 15093442 15423246 15557676 15468601 
1595.396 15155197 14644370 13984825 13234072 12453552 11693697 10991850 
1598.772 10374302 9854965 9439143 9124915 8904993 8769597 8708169 8713172 
1602.629 8780957 8910540 9101534 9351517 9652933 9994294 10358726 10726623 
1606.487 11077123 11386542 11630629 11787347 11836546 11765184 11569169 
1609.862 11255437 10842281 10357369 9836832 9315834 8823764 8380484 7992698 
1613.719 7657189 7363726 7100300 6855009 6620488 6396550 6190642 6015100 
1617.577 5882281 5799903 5768171 5780662 5825558 5888495 5955639 6014764 
1621.434 6059416 6089959 6114052 6143389 6188525 6255849 6344467 6449581 
1625.292 6565317 6687644 6814483 6944894 7077533 7209673 7338147 7460761 
1629.149 7578485 7695635 7817776 7949804 8093215 8245217 8398320 8542893 
1633.006 8668348 8764762 8824609 8844830 8829140 8788429 8739405 8700596 
1636.864 8683998 8693903 8726052 8772268 8820653 8860487 8885073 8892682 
1640.721 8888252 8881048 8880677 8893392 8918826 8949908 8974601 8980250 
1644.579 8955320 8893968 8798708 8680246 8555734 8445143 8366094 8329547 
1648.436 8339409 8393320 8483456 8597301 8715640 8813755 8859304 8818759 
1652.293 8674026 8445278 8194363 7991314 7876480 7845271 7868551 7913360 
1656.151 7955676 7982910 7991078 7982674 7962256 7933809 7898276 7853199 
1660.008 7794060 7716748 7618038 7497706 7358704 7207113 7052544 6905235 
1663.866 6775239 6669172 6588696 6530300 6485129 6441544 6385588 6304493 
1667.723 6190440 6042179 5867470 5680578 5499067 5337289 5204141 5101541 
1671.581 5025880 4969906 4923188 4873258 4806516 4710909 4581268 4423580 
1675.438 4256414 4101653 3977778 3890244 3832477 3790661 3751054 3705336 
1679.295 3653274 3602555 3563534 3543857 3542554 3547899 3538947 3492483 
1683.153 3390653 3233297 3043864 2861485 2720591 2633776 2593375 2581209 
1687.010 2580576 2578776 2569577 2551178 2524516 2491656 2455767 2421647 
1690.868 2394659 2381199 2384797 2404788 2434242 2459033 2462265 2427711 
1694.725 2348151 2232235 2106128 2002925 1944077 1931463 1946940 1962783 
1698.583 1948071 1878316 1745824 1568511 1387315 1243111 1159149 1131442 
1702.440 1141076 1164730 1183435 1184332 1160943 1114699 1052385 985263 
1706.297 923897 875355 842487 824129 816859 816493 820444 826785 835383 
1710.637 847234 862805 881796 902912 923831 942359 957800 970054 980050 
1714.977 987455 989813 981511 956837 912209 850886 783697 725844 689403 
1719.316 679845 694282 724649 760860 794219 820112 837507 848994 857891 
1723.656 867486 879239 892420 905701 918518 930771 942957 955011 965637 
1727.995 972578 974471 971249 966036 963446 967298 977393 988252 987389 
1732.335 958464 887274 768328 613910 451453 313959 223049 181247 176540 
1736.675 191358 210021 220330 216850 199844 174419 147703 126093 112968 
1741.014 108229 109853 115321 122314 130335 139417 150255 164077 181612 
1745.354 203291 228983 257560 286836 314489 338330 356668 368507 373780 
1749.693 371923 362604 345924 323475 298607 276425 261274 256102 260014 
1754.033 269098 275994 273773 256698 223646 178894 131131 89404 59181 40657 
1758.855 28562 15341 -6527 -41680 -89750 -146328 -203726 -254428 -292872 
1763.194 -316977 -327538 -327241 -319824 -309295 -300488 -297110 -301779 
1767.052 -313732 -329359 -341974 -345020 -335816 -316679 -295355 -282011 
1770.909 -286415 -312805 -357634 -409409 -453302 -478887 -482660 -467865 
1774.767 -442048 -411561 -379483 -345914 -308964 -267408 -223034 -180741 
1778.624 -146063 -124499 -117874 -123671 -136093 -148448 -156364 -159544 
1782.481 -160504 -163055 -169944 -181801 -195744 -208230 -215516 -215615 
1786.339 -208760 -195844 -178257 -156430 -131058 -103432 -76764 -56026 
1790.196 -47213 -55595 -83025 -126454 -178058 -228630 -270024 -298368 
1794.054 -315222 -324857 -331677 -339292 -349787 -363030 -379119 -397625 
1797.911 -418579 -442478 -469057 -497818 -527240 -555203 -580484 -602091 
1801.769 -619528 -632498 -640604 -643615 -640737 -632201 -619264 -603713 
1805.626 -587532 -572377 -558975 -547393 -537432 -529192 -523467 -521349 
1809.483 -523401 -528927 -536373 -542760 -545705 -544051 -538822 -531740 
1813.341 -525486 -520786 -517047 -511884 -502154 -484877 -459955 -428112 
1817.198 -392163 -355151 -319460 -285786 -254759 -225551 -198228 -173090 
1821.056 -151197 -132979 -119829 -112707 -112243 -119266 -133410 -152290 
1824.913 -172097 -187001 -192068 -184484 -165539 -139770 -114661 -98297 
1828.771 -95514 -106744 -127249 -148415 -161796 -162160 -149011 -125692 
1832.628 -97436 -67621 -38168 -8449 23492 59048 97756 138489 178894 217712 
1837.450 255737 295788 341348 395966 461006 535975 618323 704702 791199 
1841.789 874757 952354 1022626 1085966 1145395 1205597 1272918 1351916 
1845.647 1443461 1544469 1648993 1748785 1836787 1908599 1963482 2003691 
1849.504 2032718 2053425 2065842 2067840 2055622 2026260 1979824 1919083 
1853.362 1848666 1773637 1696857 1618561 1537287 1451274 1359860 1265242 
1857.219 1171010 1080452 995525 915994 839566 764080 688972 615669 547255 
1861.559 487376 437523 397392 364826 337667 314489 295755 282261 274933 
1865.898 273044 273740 273309 269131 260312 249338 240686 238000 242608 
1870.238 252985 264987 274005 278083 277088 273077 269065 266810 266280 
1874.577 266379 264755 259782 251228 239724 226165 210684 192385 169182 
1878.917 140643 106737 69620 32571 -1457 -30714 -55197 -76267 -96144 -115224 
1883.739 -133145 -148547 -159941 -166731 -170076 -171633 -173190 -175972 
1887.596 -179549 -182762 -184881 -185146 -183656 -180907 -176568 -169580 
1891.454 -158848 -144274 -126785 -109626 -96906 -91639 -94885 -103597 
1895.311 -113104 -117444 -112276 -96707 -72789 -45192 -17858 6693 27535 
1899.651 46191 64019 81683 99512 117343 134975 153802 175447 200639 229182 
1904.472 258621 285311 306067 319463 326161 329046 331831 335744 340552 
1908.812 344034 343371 337104 326128 312732 300298 291113 284880 279907 
1913.152 275165 268800 262136 256997 254676 254610 254378 248874 233889 
1917.491 208396 174154 136533 101899 73563 51791 33831 15308 -6991 -33033 
1922.313 -60730 -86769 -107970 -123572 -135894 -146427 -156530 -165075 
1926.170 -168685 -163684 -148547 -124168 -94819 -66163 -42343 -25578 -15738 
1930.510 -10503 -8482 -9376 -14015 -23093 -36512 -51553 -64341 -72159 -73518 
1935.332 -69874 -65236 -62850 -64076 -67555 -69178 -64606 -52381 -33696 
1939.671 -12491 6792 21305 31445 39928 49770 62892 77341 89073 95138 93912 
1944.975 88244 83936 86720 101170 127651 163315 202794 242343 279310 312699 
1949.797 342409 367612 385254 392981 389997 377958 362471 351528 349605 
1954.137 359089 376167 393147 401903 397293 377162 344863 306299 265982 
1958.476 227823 194474 166596 146908 140146 148996 174916 215590 263031 
1962.816 307625 342310 363632 373415 377826 381706 387144 392650 393213 
1967.156 384591 367711 347881 334484 336109 357829 397293 448667 503631 
1971.495 554587 598382 634383 662589 684691 700886 713232 727769 755582 
1975.835 808161 896637 1022327 1175196 1335032 1477638 1582545 1640446 
1979.692 1652885 1630102 1586037 1532964 1476674 1419559 1361522 1303060 
1983.550 1247796 1201178 1166624 1146093 1136990 1134000 1132007 1129748 
1987.407 1128419 1131974 1143502 1162505 1184432 1203304 1213704 1214136 
1991.264 1208521 1203636 1206494 1220515 1244473 1272453 1299404 1321405 
1995.122 1338056 1351916 1366275 1381332 1395393 1404235 1404368 1395027 
1998.979 1379570 1361621 1345668 1332406 1318780 1299903 1272486 1235335 
2002.837 1194732 1160378 1141608 1145727 1174531 1222310 1280595 1340383 
2006.694 1393764 1436081 1466168 1482957 1487512 1481894 1469925 1457092 
2010.552 1450576 1454997 1471753 1498418 1527046 1548626 1557837 1551851 
2014.409 1533563 1509423 1485351 1465170 1451972 1446054 1449445 1466234 
2018.266 1502175 1559832 1640645 1737374 1838318 1931164 2005821 2057120 
2022.124 2088249 2105528 2115817 2124041 2131499 2136061 2135928 2131599 
2025.981 2124274 2118880 2118714 2123808 2131866 2139191 2141455 2137659 
2029.839 2129901 2120412 2112587 2108458 2108025 2112154 2122942 2143786 
2033.696 2178417 2229071 2292520 2361476 2427511 2481892 2520583 2545912 
2037.553 2563410 2579542 2598775 2620375 2639343 2650744 2650111 2637110 
2041.411 2615842 2592275 2571510 2556778 2548212 2543479 2541180 2541280 
2045.268 2544046 2551045 2563044 2578509 2596142 2614142 2630476 2644377 
2049.126 2654145 2655678 2643677 2613009 2560811 2489557 2408386 2328962 
2052.983 2265108 2226107 2213351 2219812 2234166 2244125 2241194 2225773 
2056.841 2202761 2181048 2166995 2162900 2165364 2169659 2170725 2167528 
2060.698 2163632 2164298 2173822 2194169 2222610 2254083 2284493 2310908 
2064.555 2333360 2354081 2374803 2394359 2410785 2420781 2421914 2415649 
2068.413 2405121 2393760 2384564 2377168 2367673 2351948 2326264 2290455 
2072.270 2248688 2207024 2171125 2144852 2128403 2118714 2112054 2106061 
2076.128 2099602 2094141 2091711 2093276 2098703 2106594 2114618 2121077 
2079.985 2125006 2125506 2121877 2113486 2099236 2078627 2053658 2026726 
2083.843 2002193 1983352 1971670 1965578 1961751 1955327 1942480 1921812 
2087.700 1894322 1862642 1829467 1797126 1765818 1735811 1707535 1681490 
2091.557 1659869 1645069 1638616 1640911 1651155 1667187 1687677 1711826 
2095.415 1738938 1768480 1799787 1829766 1855954 1876119 1889264 1896353 
2099.272 1899947 1901977 1903574 1904905 1905072 1903308 1900779 1899581 
2103.130 1902908 1913791 1932761 1958356 1988046 2018271 2047632 2076363 
2106.987 2105761 2136827 2170059 2202727 2231602 2254183 2269904 2280662 
2110.844 2291021 2305311 2325764 2351615 2378934 2401656 2415916 2419548 
2114.702 2413984 2403722 2394259 2389861 2392927 2403388 2418415 2435241 
2118.559 2450836 2462265 2468463 2468663 2462965 2452602 2439806 2426078 
2122.417 2413617 2403322 2394826 2386930 2378501 2369072 2359311 2351482 
2126.274 2347218 2347551 2351582 2355913 2355980 2347784 2328130 2296551 
2130.132 2254616 2204926 2150179 2093742 2038577 1988578 1948437 1923376 
2133.989 1917685 1932928 1966876 2013377 2064577 2113186 2152643 2181481 
2137.846 2199930 2208989 2209188 2201329 2183879 2157971 2126771 2094241 
2141.704 2066741 2049596 2044369 2050462 2065776 2086218 2109790 2136794 
2145.561 2166596 2198964 2231402 2258913 2274800 2275566 2258080 2224075 
2149.419 2177318 2121544 2059584 1993372 1923243 1850496 1778561 1711460 
2153.276 1652087 1602066 1558436 1516273 1473848 1434519 1410285 1421620 
2157.134 1491303 1635357 1855621 2134563 2439540 2734528 2986076 3174182 
2160.991 3294723 3355124 3367211 3346075 3303504 3247484 3185764 3124720 
2164.848 3068456 3021108 2983507 2953048 2925294 2896006 2860551 2817994 
2168.706 2768940 2713556 2652645 2585842 2512551 2433709 2352615 2274867 
2172.563 2208356 2159670 2132598 2126438 2136860 2156606 2177785 2195534 
2176.421 2205858 2206990 2199597 2185011 2164431 2141256 2118680 2100867 
2180.278 2091678 2092810 2103597 2121244 2141822 2160569 2174721 2182780 
2184.135 2183646 2177318 2164298 2144552 2120611 2096006 2075930 2065709 
2187.993 2069771 2087849 2117348 2152877 2188441 2219346 2244724 2264875 
2191.850 2281295 2295618 2306444 2311574 2310308 2302147 2290855 2282694 
2195.708 2283161 2296518 2323266 2358978 2396558 2429977 2453401 2464531 
2199.565 2464731 2456134 2441272 2422446 2401423 2378767 2357712 2340322 
2203.423 2328929 2325431 2329695 2339789 2353814 2368839 2383431 2397325 
2207.280 2410885 2424379 2438740 2454068 2470163 2488291 2509252 2533081 
2211.137 2559211 2585109 2606175 2618442 2619575 2609009 2590109 2567543 
2214.995 2545246 2525982 2509252 2492023 2470596 2442872 2408819 2371771 
2218.852 2337091 2309575 2293286 2290189 2298949 2316970 2340988 2366507 
2222.710 2388962 2404454 2409386 2401556 2381566 2351449 2315438 2277798 
2226.567 2241826 2209155 2179749 2153309 2129768 2111022 2100135 2099768 
2230.425 2111388 2133098 2159403 2184112 2201096 2207290 2203027 2192570 
2234.282 2180416 2171025 2166862 2167662 2171957 2178451 2185910 2194835 
2238.139 2206058 2219679 2234666 2250486 2265341 2279230 2293286 2308909 
2241.997 2327263 2348584 2370838 2391694 2409286 2423013 2434375 2446504 
2245.854 2462232 2482326 2506553 2531148 2551645 2565143 2569743 2565810 
2249.712 2555311 2541046 2525216 2510185 2497522 2488524 2485491 2490157 
2253.569 2502920 2523816 2550045 2577476 2602608 2622009 2633743 2638176 
2257.427 2636176 2628676 2616575 2600708 2581442 2559677 2537247 2515284 
2261.284 2495755 2479693 2466797 2457100 2450469 2446804 2447204 2452602 
2265.141 2463198 2478160 2495955 2514185 2530348 2543679 2553645 2560477 
2268.999 2564877 2566477 2564444 2558777 2549312 2537713 2526482 2518317 
2272.856 2514918 2516884 2522849 2530548 2538180 2544946 2551945 2560644 
2276.714 2573076 2589409 2609042 2629409 2647777 2662179 2672380 2679015 
2280.571 2684249 2690217 2698785 2710722 2726759 2746699 2770540 2798185 
2284.428 2828566 2859984 2890436 2916988 2937336 2950179 2955284 2953382 
2288.286 2946677 2936902 2926294 2916854 2910516 2908815 2913485 2925260 
2292.143 2944108 2968995 2997920 3027948 3057078 3083272 3105664 3124019 
2296.001 3138503 3149183 3156726 3161299 3163468 3164603 3166305 3169643 
2299.858 3175951 3185364 3196912 3209797 3222815 3235133 3246817 3258200 
2303.716 3269751 3282070 3295825 3310683 3327009 3344505 3363104 3382105 
2307.573 3400605 3417302 3431262 3441982 3449597 3455509 3461521 3469369 
2311.430 3480191 3494053 3510119 3526787 3542922 3557687 3571117 3584113 
2315.288 3597978 3614015 3633560 3656983 3684751 3716531 3751322 3788020 
2319.145 3825791 3864000 3902681 3942568 3984599 4028575 4072053 4110484 
2323.003 4137077 4144938 4129149 4088107 4025230 3948286 3866574 3789725 
2326.860 3725421 3677132 3644787 3625809 3616387 3613046 3613814 3617757 
2330.718 3624405 3633460 3643450 3653608 3663165 3672788 3684050 3699421 
2334.575 3720074 3746509 3777725 3811485 3845480 3878375 3909534 3938990 
2338.432 3967378 3994330 4018609 4039243 4055263 4067002 4075731 4083224 
2342.290 4090615 4097840 4102389 4100683 4089813 4068507 4038607 4005366 
2346.147 3976674 3960290 3963199 3989549 4040447 4114498 4207464 4314371 
2350.005 4429003 4544971 4656483 4759983 4853992 4939408 5019143 5096847 
2353.862 5174633 5252902 5329843 5402537 5467660 5523766 5570078 5608307 
2357.719 5640396 5668929 5695853 5723281 5752424 5784423 5819715 5857832 
2361.577 5896623 5933167 5964474 5987921 6003039 6010699 6013689 6014697 
2365.434 6015638 6016343 6015604 6010968 6000150 5982547 5958864 5930480 
2369.292 5900217 5870291 5841879 5816357 5794060 5774887 5759273 5747086 
2373.149 5737651 5730734 5726303 5724054 5725128 5730970 5743224 5763336 
2377.007 5792549 5830663 5877344 5932125 5994573 6064489 6142650 6228824 
2380.864 6322446 6422376 6526062 6630715 6733947 6833197 6927151 7014727 
2384.721 7095248 7167935 7232448 7288108 7334340 7371409 7399382 7418695 
2388.579 7430256 7434368 7431705 7422537 7407505 7387148 7362040 7332621 
2392.436 7298823 7260883 7218668 7172483 7123136 7071942 7020351 6970381 
2396.294 6923784 6882175 6847368 6820945 6804352 6799102 6805934 6824816 
2400.151 6854504 6893519 6939507 6991055 7047257 7108013 7174066 7246429 
2404.009 7325679 7411954 7505190 7604718 7710138 7821318 7938094 8060405 
2407.866 8188354 8321677 8460312 8604568 8754619 8910979 9073350 9240824 
2411.723 9410903 9580811 9746719 9904929 10052649 10187801 10308439 10413872 
2415.581 10503206 10575618 10631334 10670962 10696058 10708895 10711986 
2418.956 10707401 10696432 10679485 10656326 10626615 10590319 10548525 
2422.331 10502629 10454973 10407560 10362594 10321842 10286792 10258701 
2425.707 10239092 10228304 10227625 10237124 10257038 10287302 10328288 
2429.082 10380003 10442924 10517667 10604443 10703224 10813983 10935951 
2432.457 11068829 11211982 11364774 11526704 11697169 11875432 12061024 
2435.832 12254296 12455734 12665967 12886197 13116580 13357097 13607218 
2439.208 13866719 14135172 14413826 14703766 15006314 15322322 15651682 
2442.583 15992807 16343731 16702583 17067900 17439698 17818652 18205676 
2445.958 18602072 19008244 19423700 19847604 20278134 20713018 21149278 
2449.333 21583538 22012240 22432012 22840738 23237158 23621276 23993616 
2452.708 24354502 24702888 25036844 25352440 25645770 25912744 26149474 
2456.084 26352712 26518990 26644674 26725078 26756404 26735014 26659366 
2459.459 26530084 26349966 26122908 25853096 25544200 25198512 24818048 
2462.834 24404446 23959794 23487336 22991946 22478594 21953650 21423630 
2466.209 20894464 20372056 19862552 19371036 18902608 18461786 18051736 
2469.585 17675274 17333892 17028408 16758507 16523877 16322400 16151693 
2472.960 16008656 15889140 15789103 15705237 15634336 15573852 15522407 
2476.335 15478112 15438867 15403265 15369417 15336155 15303238 15270702 
2479.710 15238477 15206357 15173073 15136464 15095054 15047508 14993898 
2483.086 14936178 14876992 14819184 14765191 14716207 14671822 14631245 
2486.461 14592694 14554900 14517109 14478842 14440064 14401154 14362417 
2489.836 14324232 14287215 14251638 14217538 14184226 14150541 14114737 
2493.211 14075444 14032254 13985303 13936271 13886766 13837847 13789960 
2496.587 13742455 13693587 13641750 13585714 13525208 13460574 13392635 
2499.962 13321768 13248488 13172762 13094725 13015304 12935931 12858483 
2503.337 12784770 12715435 12650615 12589249 12530279 12472784 12416762 
2506.712 12363066 12313194 12267997 12227712 12191555 12157887 12124734 
2510.088 12090425 12053972 12015035 11974127 11931588 11888168 11844139 
2513.463 11799263 11753269 11706224 11657108 11605956 11553210 11499382 
2516.838 11445527 11393243 11343856 11298250 11257205 11220346 11187706 
2520.213 11159284 11135488 11117402 11106593 11103432 11107748 11117845 
2523.589 11130932 11144190 11155646 11164757 11172305 11180499 11191242 
2526.964 11205794 11224018 11244725 11265809 11285735 11303181 11317635 
2530.339 11329538 11339333 11347529 11354604 11361032 11367222 11373957 
2533.714 11382121 11391916 11403856 11417666 11432906 11449575 11468286 
2537.090 11489243 11513638 11541368 11571892 11604084 11636279 11667591 
2540.465 11697680 11727260 11757524 11789594 11823913 11860177 11897055 
2543.840 11933427 11968474 12002057 12034724 12067020 12099147 12130901 
2547.215 12161261 12189272 12214728 12237732 12259237 12280437 12301980 
2550.591 12324170 12346464 12368145 12388567 12407523 12425593 12443460 
2553.966 12461941 12481650 12502213 12523527 12544603 12564624 12582734 
2557.341 12597878 12608487 12613126 12610568 12599482 12579869 12552720 
2560.716 12519128 12480832 12439607 12396817 12353452 12310467 12268337 
2564.092 12227542 12188522 12150596 12113320 12075707 12036803 11996642 
2567.467 11956348 11917694 11883230 11855274 11834878 11822109 11815947 
2570.842 11814312 11815878 11819657 11825582 11834298 11846999 11864127 
2574.217 11886057 11912516 11942623 11975150 12009211 12043616 12077104 
2577.593 12109334 12139828 12168826 12197314 12226792 12258761 12294685 
2580.968 12335215 12380316 12429548 12481684 12535873 12591569 12648568 
2584.343 12706803 12766343 12827461 12889986 12953989 13019810 13087179 
2587.718 13155923 13225670 13295017 13362701 13427150 13487472 13543495 
2591.094 13596141 13646776 13697212 13748884 13802274 13857414 13913827 
2594.469 13970761 14027634 14084069 14140169 14195900 14251638 14307589 
2597.844 14363959 14421328 14480589 14542599 14608594 14679602 14756038 
2601.219 14837767 14924381 15014752 15107645 15201656 15296100 15389808 
2604.594 15482403 15573886 15664769 15755981 15848689 15944270 16043963 
2607.970 16148632 16258348 16372461 16489459 16607145 16722934 16834276 
2611.345 16939066 17035922 17124422 17204908 17278206 17345134 17406174 
2614.720 17461464 17510448 17552364 17586762 17613538 17633138 17646526 
2618.095 17654912 17659364 17660882 17660158 17657742 17654428 17650736 
2621.471 17647286 17644766 17643628 17644248 17647390 17653602 17663918 
2624.846 17679310 17700708 17728248 17761730 17799872 17841678 17885838 
2628.221 17931830 17979864 18030598 18084758 18142726 18204190 18268636 
2631.596 18334852 18402152 18470082 18538924 18609402 18682416 18758142 
2634.972 18837202 18919426 19004470 19092162 19182434 19274698 19368578 
2638.347 19462996 19556914 19649188 19739264 19826862 19912604 19997218 
2641.722 20081606 20166322 20251644 20336914 20421820 20505874 20589074 
2645.097 20671282 20752880 20834426 20916264 20998778 21082666 21168654 
2648.473 21257480 21349632 21445734 21545794 21649358 21756258 21865692 
2651.848 21977558 22091580 22207794 22326098 22446352 22568246 22691466 
2655.223 22815804 22941504 23068812 23198534 23331336 23467608 23607350 
2658.598 23750148 23895548 24042398 24189542 24336034 24481036 24623804 
2661.974 24764200 24902676 25039722 25176284 25312960 25450030 25587636 
2665.349 25725006 25861782 25997654 26133004 26268540 26405102 26543750 
2668.724 26685050 26829144 26975438 27123508 27272866 27423438 27574980 
2672.099 27728200 27882570 28037878 28193348 28347776 28499782 28648516 
2675.475 28792946 28932678 29067670 29198206 29324810 29448720 29571460 
2678.850 29694482 29819672 29948266 30081622 30220420 30365480 30517484 
2682.225 30677506 30846836 31026482 31217310 31419658 31633214 31857290 
2685.600 32091328 32334912 32588032 32850586 33122632 33403870 33693240 
2688.976 33989604 34291592 34598128 34909152 35224784 35545824 35873040 
2692.351 36207096 36548108 36896136 37250692 37611528 37978488 38351408 
2695.726 38730156 39114816 39505184 39900992 40302284 40708464 41119320 
2699.101 41534176 41952200 42372344 42793152 43213488 43632292 44048564 
2702.477 44461528 44870664 45275176 45674444 46067404 46452684 46828448 
2705.852 47191872 47540036 47869132 48175484 48455676 48707584 48929776 
2709.227 49122328 49285428 49419992 49526600 49605668 49657448 49682488 
2712.602 49681412 49655404 49605408 49532280 49435808 49315564 49170420 
2715.978 48999284 48801520 48577500 48328152 48055552 47762044 47450476 
2719.353 47123580 46784644 46436752 46083244 45727744 45373304 45023344 
2722.728 44681012 44349148 44030888 43729056 43446144 43184280 42944884 
2726.103 42728508 42534820 42363248 42213248 42084404 41976868 41891076 
2729.479 41827408 41786292 41766992 41768928 41790632 41830688 41887828 
2732.854 41960556 42047752 42148072 42260104 42382428 42513736 42652908 
2736.229 42799076 42951544 43109408 43271468 43435932 43600968 43764236 
2739.604 43923716 44077972 44225648 44365844 44498384 44623212 44741096 
2742.979 44853324 44962044 45069400 45177740 45289044 45403840 45522192 
2746.355 45642716 45764340 45885776 46006324 46125656 46243988 46361504 
2749.730 46478056 46592904 46705608 46816160 46924420 47031740 47139312 
2753.105 47249056 47362596 47481372 47606472 47738524 47878232 48025724 
2756.480 48181260 48344332 48513952 48688676 48865960 49043016 49216764 
2759.856 49384388 49542528 49688688 49820260 49934844 50030460 50105532 
2763.231 50158712 50188800 50195312 50178012 50136884 50072844 49987148 
2766.606 49881468 49758240 49619336 49467476 49305692 49136804 48964600 
2769.981 48792880 48625672 48466348 48318040 48181812 48058328 47946420 
2773.357 47844716 47751912 47666816 47588836 47517708 47453136 47394300 
2776.732 47339572 47286368 47231732 47171520 47101792 47018524 46918068 
2780.107 46797452 46654656 46489008 46301300 46093928 45870420 45634948 
2783.482 45392468 45147372 44903328 44663460 44429672 44203232 43984688 
2786.858 43773656 43569608 43371376 43177952 42988196 42801596 42617564 
2790.233 42437004 42260432 42089076 41923736 41765168 41613628 41469248 
2793.608 41331796 41200808 41076048 40956932 40842472 40731572 40622700 
2796.983 40514512 40405220 40293704 40179016 40060804 39939204 39814624 
2800.359 39687792 39559224 39429272 39297660 39163760 39026464 38884352 
2803.734 38736568 38582240 38421412 38255112 38085180 37913512 37742956 
2807.109 37575580 37413284 37257296 37108436 36967240 36833844 36708640 
2810.484 36591400 36482408 36381368 36288028 36201764 36121748 36047252 
2813.860 35977600 35912628 35852420 35797224 35747824 35704976 35669616 
2817.235 35643252 35627176 35623364 35633756 35660660 35706020 35771496 
2820.610 35858104 35966220 36095424 36244840 36413112 36598788 36800412 
2823.985 37016056 37243504 37479848 37721272 37963808 38203044 38434480 
2827.361 38654380 38859640 39047816 39217468 39366980 39495496 39602052 
2830.736 39686380 39748608 39789096 39809356 39810884 39795596 39765712 
2834.111 39723700 39672184 39614212 39552796 39490996 39431416 39375760 
2837.486 39324644 39278324 39236800 39200352 39170580 39149588 39140808 
2840.862 39147988 39174712 39224540 39300596 39406124 39544812 39721484 
2844.237 39941564 40211260 40535972 40919324 41360332 41853128 42385568 
2847.612 42937348 43482732 43992240 44433008 44775440 44995268 45075172 
2850.987 45009600 44802660 44468868 44029128 43509612 42939180 42344072 
2854.363 41749556 41176616 40640784 40152996 39719672 39342420 39019760 
2857.738 38747216 38519196 38328608 38168164 38031252 37911200 37802272 
2861.113 37700168 37601412 37503760 37406712 37310476 37216140 37125256 
2864.488 37040232 36963344 36897616 36846360 36812960 36800664 36812136 
2867.864 36848884 36911540 36999168 37110024 37241304 37389160 37549352 
2871.239 37716648 37885708 38051108 38207564 38352024 38482952 38601432 
2874.614 38710196 38813768 38916568 39021900 39132360 39248908 39371912 
2877.989 39501592 39638752 39784560 39941204 40110620 40294360 40493268 
2881.365 40706716 40933632 41171628 41417772 41668256 41918700 42164320 
2884.740 42400032 42621036 42823540 43005172 43165652 43306060 43429668 
2888.115 43540820 43644416 43745948 43851244 43965404 44094368 44244356 
2891.490 44422328 44636728 44898000 45217852 45610436 46091168 46674760 
2894.865 47375308 48202032 49156132 50227520 51392588 52611800 53828036 
2898.241 54976412 55984504 56781384 57312832 57542352 57460388 57082792 
2901.616 56449544 55616932 54645652 53599344 52534236 51494792 50516668 
2904.991 49623980 48831848 48148532 47576712 47115088 46759588 46505492 
2908.366 46347936 46283204 46309116 46424732 46629240 46920948 47296344 
2911.742 47748432 48267380 48839228 49446276 50069088 50684572 51269156 
2915.117 51800652 52258616 52627808 52899176 53070804 53146968 53136896 
2918.492 53053284 52909244 52716540 52484992 52220948 51928008 51607764 
2921.867 51260804 50887924 50491768 50076640 49649572 49219436 48795512 
2925.243 48386816 48001224 47644000 47318808 47027276 46769772 46545912 
2928.618 46354792 46194272 46061696 45952988 45863236 45786536 45716700 
2931.993 45648348 45575956 45495036 45401848 45293128 45166708 45021140 
2935.368 44856812 44674844 44477936 44269780 44054428 43836216 43619984 
2938.744 43410040 43211548 43029572 42868736 42733480 42626884 42549880 
2942.119 42501276 42477672 42472556 42476940 42480268 42469816 42432112 
2945.494 42355028 42228368 42046036 41807268 41517184 41186380 40828312 
2948.869 40458900 40093180 39743380 39418316 39122716 38857792 38621636 
2952.245 38410696 38220372 38045324 37881116 37723660 37569836 37417544 
2955.620 37265668 37113488 36960708 36807372 36653620 36499636 36346204 
2958.995 36194024 36044196 35897836 35755808 35618436 35486316 35359844 
2962.370 35239732 35127200 35023928 34931308 34850628 34782672 34727608 
2965.746 34685508 34656224 34640360 34638672 34651772 34679944 34722940 
2969.121 34779760 34848832 34928864 35018936 35119044 35229600 35350784 
2972.496 35482360 35622608 35768692 35916444 36061080 36196972 36317600 
2975.871 36415600 36483128 36511168 36491236 36416464 36282444 36088656 
2979.247 35839036 35542156 35208540 34851632 34484972 34120624 33769260 
2982.622 33439048 33135220 32860234 32614138 32394458 32197222 32017842 
2985.997 31852406 31698078 31554318 31422182 31303480 31199722 31109730 
2989.372 31028902 30948942 30857686 30740878 30585914 30383070 30128500 
2992.748 29824886 29481980 29114402 28738494 28370590 28023598 27705210 
2996.123 27418214 27160720 26928866 26717114 26520926 26337150 26163902 
2999.498 26000048 25845078 25698006 25557272 25421504 25289148 25159606 
3002.873 25032736 24909518 24790790 24677880 24571698 24472340 24379878 
3006.249 24293600 24213014 24138012 24068138 24003772 23945122 23892398 
3009.624 23845454 23803976 23766806 23732652 23700106 23668090 23636110 
3012.999 23604238 23573206 23544032 23518114 23496322 23479326 23467608 
3016.374 23461208 23460160 23464530 23474114 23488698 23507166 23528536 
3019.750 23550960 23572788 23592448 23608996 23621240 23629112 23632366 
3023.125 23631000 23625578 23617006 23606652 23596682 23589754 23588460 
3026.500 23594862 23610604 23635724 23668824 23707700 23749062 23789416 
3029.875 23825748 23855466 23876960 23889702 23894218 23891696 23883750 
3033.250 23871812 23857322 23841464 23825082 23809190 23794806 23782732 
3036.626 23773912 23768696 23767472 23770026 23776432 23786582 23800826 
3040.001 23819692 23843494 23872268 23905736 23942462 23981502 24021876 
3043.376 24063340 24106454 24152094 24201032 24253164 24307650 24362600 
3046.751 24416046 24466312 24512796 24556130 24597820 24639726 24683000 
3050.127 24728036 24774092 24820152 24864922 24907800 24948646 24987952 
3053.502 25026138 25063556 25100520 25136610 25171966 25206832 25241528 
3056.877 25276892 25313382 25351176 25390028 25429724 25469672 25510042 
3060.252 25551544 25594664 25640358 25688830 25739770 25792684 25846556 
3063.628 25900892 25955478 26010986 26068262 26128326 26192056 26259354 
3067.003 26329826 26402286 26475424 26548082 26619450 26689102 26757108 
3070.378 26823752 26889348 26954142 27018278 27081504 27144038 27205978 
3073.753 27268138 27331684 27397744 27467520 27541370 27619010 27699310 
3077.129 27780440 27860840 27939280 28014868 28087786 28158910 28228916 
3080.504 28299004 28369846 28442044 28515774 28591040 28667770 28745114 
3083.879 28822156 28897616 28970254 29039364 29105120 29168508 29231730 
3087.254 29296948 29366216 29440990 29521524 29607462 29697818 29791352 
3090.630 29886678 29983162 30079882 30176446 30272072 30366546 30459262 
3094.005 30550720 30641238 30731738 30823286 30916958 31013278 31112364 
3097.380 31213892 31317368 31421970 31527064 31631894 31736114 31839356 
3100.755 31941588 32043166 32144238 32245256 32346442 32447760 32549140 
3104.131 32650358 32751318 32852196 32953452 33055556 33159360 33265270 
3107.506 33373312 33482958 33593848 33705052 33815748 33925148 34032604 
3110.881 34137544 34239996 34340252 34439128 34538208 34638856 34742144 
3114.256 34848652 34957916 35068792 35179368 35288248 35394820 35499296 
3117.632 35603220 35708284 35816400 35928212 36043724 36161716 36280464 
3121.007 36397980 36512896 36624708 36733552 36840480 36946856 37053836 
3124.382 37162432 37272856 37385004 37498236 37611600 37724600 37836832 
3127.757 37948548 38060152 38172112 38284744 38397376 38509492 38619536 
3131.133 38726712 38830544 38931576 39031284 39131744 39234732 39341728 
3134.508 39453584 39570076 39690120 39812772 39936624 40060696 40184144 
3137.883 40306684 40428132 40548776 40668908 40789144 40909856 41031364 
3141.258 41153232 41274916 41395252 41513464 41628980 41741752 41852472 
3144.634 41962088 42071696 42181920 42293556 42406680 42521776 42639240 
3148.009 42759148 42882196 43008720 43138464 43271284 43406052 43541844 
3151.384 43677392 43811696 43943808 44073244 44199600 44322988 44443984 
3154.759 44563660 44683144 44803432 44925224 45048560 45172924 45297648 
3158.135 45421972 45545704 45668848 45792280 45916340 46041580 46167808 
3161.510 46294852 46421892 46548644 46674980 46801068 46927188 47053564 
3164.885 47179904 47305948 47431332 47556004 47679612 47802472 47924332 
3168.260 48044672 48162820 48277820 48388892 48495724 48598660 48698536 
3171.635 48796364 48893252 48989640 49085824 49181252 49275220 49366940 
3175.011 49455412 49539672 49618780 49692520 49760772 49824756 49886076 
3178.386 49947000 50009532 50074852 50143352 50214168 50286144 50357948 
3181.761 50429060 50499360 50569528 50639740 50710452 50781208 50851604 
3185.136 50920672 50988852 51056564 51124808 51194292 51265092 51336684 
3188.512 51407876 51477592 51545228 51610864 51675536 51740256 51805804 
3191.887 51872448 51939772 52007296 52074264 52140688 52206708 52272780 
3195.262 52338968 52405172 52471008 52536292 52601104 52665960 52731352 
3198.637 52797952 52865228 52932412 52997804 53060024 53118100 53172096 
3202.013 53222508 53270564 53316972 53362720 53407756 53452796 53498180 
3205.388 53544992 53594320 53646764 53701808 53758392 53813932 53866556 
3208.763 53915056 53959548 54001384 54042884 54086004 54131452 54179380 
3212.138 54228708 54277816 54326252 54373604 54420432 54468060 54517040 
3215.514 54567456 54618704 54669584 54718856 54765460 54809440 54851056 
3218.889 54891620 54932452 54975620 55022592 55074800 55132504 55195144 
3222.264 55260988 55327712 55392980 55455284 55514052 55570080 55624728 
3225.639 55679716 55736372 55794764 55854296 55913836 55972104 56028344 
3229.015 56082332 56134284 56184588 56234028 56283096 56332776 56384196 
3232.390 56438448 56496412 56558456 56623832 56691144 56758876 56825868 
3235.765 56891664 56957204 57023660 57092240 57163628 57237376 57312756 
3239.140 57388532 57464320 57540044 57616884 57695244 57775096 57855456 
3242.516 57934012 58009060 58079772 58146624 58211936 58278964 58350132 
3245.891 58426920 58508728 58593472 58678572 58761680 58841764 58918988 
3249.266 58994928 59070428 59146432 59222756 59298408 59371980 59442608 
3252.641 59509824 59574048 59636004 59696408 59755908 59815072 59873636 
3256.017 59931604 59988816 60045196 60100940 60156228 60211152 60265924 
3259.392 60320552 60374844 60428612 60481280 60532244 60580692 60625836 
3262.767 60667140 60703716 60735612 60762440 60784392 60801508 60814652 
3266.142 60824756 60832796 60839736 60846364 60852692 60858300 60862604 
3269.518 60865120 60865616 60864128 60861232 60857268 60852464 60846708 
3272.893 60839468 60830584 60819912 60808176 60796284 60785040 60774904 
3276.268 60765944 60757140 60747616 60736680 60724216 60710308 60696020 
3279.643 60682000 60668508 60655900 60643972 60632696 60622600 60614180 
3283.019 60608048 60604732 60603740 60604616 60606176 60607400 60608124 
3286.394 60608392 60608888 60610028 60612388 60615780 60620236 60625800 
3289.769 60633152 60643172 60657272 60676168 60700476 60730164 60764916 
3293.144 60804516 60849376 60899656 60956424 61019756 61088936 61162968 
3296.520 61239840 61318056 61396592 61475752 61555924 61638248 61723300 
3299.895 61810656 61899488 61988868 62077808 62166500 62256164 62348300 
3303.270 62445236 62548236 62657812 62773996 62895952 63022464 63152932 
3306.645 63287184 63425660 63569396 63718936 63874676 64035876 64201444 
3310.021 64368880 64536148 64701520 64864300 65025532 65187276 65352240 
3313.396 65523088 65700820 65885260 66074648 66266424 66458136 66648460 
3316.771 66837096 67024300 67211312 67398560 67585976 67772608 67957432 
3320.146 68139384 68318272 68493976 68666680 68836584 69003144 69166336 
3323.521 69326024 69482488 69636960 69790560 69943928 70097000 70248768 
3326.897 70397200 70540848 70678536 70809760 70934888 71054488 71168488 
3330.272 71276192 71376320 71467088 71547512 71616872 71675016 71721640 
3333.647 71756352 71778552 71787616 71783872 71768424 71743328 71711088 
3337.022 71673376 71630312 71580728 71521968 71451536 71367568 71269288 
3340.398 71157560 71033376 70897208 70749072 70587736 70412552 70223064 
3343.773 70020184 69805336 69580296 69346152 69102576 68848664 68582824 
3347.148 68304424 68014120 67713976 67406768 67095832 66783412 66471032 
3350.523 66159256 65848052 65537424 65227048 64916744 64605392 64292028 
3353.899 63975364 63655140 63332072 63008720 62688276 62374692 62070428 
3357.274 61776656 61493164 61218280 60950172 60687636 60430172 60178000 
3360.649 59931184 59690020 59453740 59221652 58992876 58767372 58545808 
3364.024 58329212 58118632 57914668 57717304 57526160 57340924 57161360 
3367.400 56987464 56819828 56658144 56502112 56350844 56203216 56057748 
3370.775 55913496 55769484 55624160 55476252 55323536 55163616 54994952 
3374.150 54816432 54627988 54431100 54227056 54016956 53801140 53578840 
3377.525 53348704 53109300 52859244 52598260 52326000 52042292 51747196 
3380.901 51440292 51121452 50790480 50447628 50093336 49728148 49352756 
3384.276 48967792 48574016 48172852 47766188 47356756 46947712 46541304 
3387.651 46139140 45741364 45347300 44955172 44563400 44170732 43777100 
3391.026 43382508 42988196 42595196 42205216 41819340 41439136 41065304 
3394.402 40698384 40337952 39983344 39632944 39285652 38940704 38598064 
3397.777 38258548 37923056 37592020 37265384 36941340 36618292 36294260 
3401.152 35967880 35639044 35308556 34977308 34646424 34316476 33987524 
3404.527 33659688 33333990 33011328 32693800 32382674 32079090 31781956 
3407.903 31489298 31198084 30905536 30610054 30311614 30012312 29715026 
3411.278 29422694 29138000 28861530 28593058 28331330 28074496 27820886 
3414.653 27569896 27321170 27075052 26832282 26593204 26358204 26127060 
3418.028 25899624 25675262 25453824 25235136 25019504 24807628 24600310 
3421.404 24398452 24202538 24012772 23828444 23648216 23470792 23294348 
3424.779 23117872 22940456 22762098 22583254 22405218 22229276 22057068 
3428.154 21889282 21726578 21568288 21413396 21260298 21107292 20953398 
3431.529 20798204 20642268 20487082 20333756 20183432 20036598 19892936 
3434.905 19751506 19611438 19471900 19332824 19194278 19056952 18921364 
3438.280 18787860 18655922 18525266 18394546 18263174 18130254 17995646 
3441.655 17859354 17722450 17585900 17450634 17317582 17186604 17057424 
3445.030 16929350 16801624 16673902 16546698 16421080 16298629 16180616 
3448.406 16067067 15957229 15849445 15741687 15632309 15521068 15408381 
3451.781 15295344 15183538 15073545 14964780 14856419 14746714 14634741 
3455.156 14520604 14405400 14291050 14179399 14071611 13968160 13868600 
3458.531 13771867 13676524 13581578 13486173 13389457 13291601 13192400 
3461.906 13092881 12994443 12898725 12807087 12720656 12638914 12560463 
3465.282 12483014 12404284 12322875 12238788 12153219 12068008 11984584 
3468.657 11903833 11824867 11746562 11666739 11584210 11498259 11408958 
3472.032 11317533 11225174 11133652 11044051 10958140 10877511 10803386 
3475.407 10736472 10676497 10621997 10570796 10520044 10468482 10414924 
3478.783 10359745 10304367 10249711 10196654 10145199 10094699 10044578 
3482.158 9995108 9946490 9899911 9856185 9815209 9776236 9737638 9697858 
3486.015 9656152 9613161 9570547 9530242 9494274 9463727 9438906 9419402 
3489.873 9404842 9394888 9389707 9388793 9391739 9397089 9402811 9406874 
3493.730 9407653 9404740 9398950 9392518 9387473 9386322 9391299 9403285 
3497.588 9423431 9452045 9489736 9535796 9589246 9648190 9710531 9774473 
3501.445 9839069 9904691 9972832 10045697 10125290 10212903 10308439 
3504.820 10411055 10519093 10630859 10745065 10861374 10979243 11099047 
3508.196 11221876 11348686 11481316 11621882 11771652 11931078 12099011 
3511.571 12272803 12448745 12623530 12794051 12958734 13117195 13269566 
3514.946 13416043 13556792 13691365 13819376 13941199 14057476 14169575 
3518.321 14278209 14383104 14482199 14572169 14648826 14709010 14750382 
3521.697 14772321 14775611 14761351 14730775 14684160 14621376 14541709 
3525.072 14444312 14328342 14193127 14038209 13863742 13669890 13458284 
3528.447 13231921 12994341 12749862 12502281 12253887 12006520 11760349 
3531.822 11514965 11270059 11025087 10779608 10532842 10283738 10031083 
3535.198 9774304 9513849 9251486 8990601 8734807 8487545 8251430 8027393 
3539.055 7814908 7613148 7420481 7235783 7057764 6885204 6715674 6547522 
3542.912 6377889 6205329 6029211 5850309 5670373 5492524 5319042 5152603 
3546.770 4995412 4848698 4713354 4589204 4475032 4368152 4264812 4160828 
3550.627 4051684 3935346 3811117 3681777 3551307 3424983 3306609 3198715 
3554.485 3101259 3012767 2931231 2853980 2779410 2705920 2632776 2558844 
3558.342 2484025 2407986 2330895 2253517 2176919 2102132 2029955 1960220 
3562.199 1892426 1825973 1760030 1693664 1626044 1556108 1482858 1404368 
3566.057 1320441 1231547 1140545 1051820 969755 897998 837673 787580 744563 
3570.396 704902 665576 624694 582323 539193 496963 456528 417855 379484 
3574.736 339723 296650 248742 195800 138356 77838 16335 -44099 -101047 
3579.076 -152687 -197467 -234459 -264097 -287243 -305289 -320254 -333399 
3582.933 -345549 -356971 -368459 -380775 -396069 -417586 -448932 -492854 
3586.791 -550239 -618238 -691321 -761514 -821840 -867245 -896840 -912347 
3590.648 -919059 -922696 -928515 -940914 -961644 -990472 -1025314 -1062930 
3594.505 -1099915 -1133195 -1161846 -1184978 -1203482 -1218384 -1231402 
3597.881 -1243858 -1256875 -1271676 -1289218 -1309403 -1331865 -1355186 
3601.256 -1377217 -1396076 -1410311 -1419063 -1423323 -1424479 -1424710 
3604.631 -1426824 -1433528 -1447299 -1470250 -1503535 -1546359 -1596442 
3608.006 -1649523 -1699594 -1741474 -1771340 -1788862 -1797738 -1803414 
3611.382 -1812356 -1829546 -1856667 -1891341 -1927728 -1959328 -1980207 
3614.757 -1988453 -1985715 -1977107 -1969290 -1968564 -1979811 -2004878 
3618.132 -2043069 -2090292 -2140806 -2188711 -2228863 -2257904 -2275011 
3621.507 -2281076 -2278999 -2271748 -2262024 -2250850 -2238060 -2222039 
3624.883 -2201502 -2176216 -2149049 -2126200 -2116968 -2131541 -2176974 
3628.258 -2252861 -2349101 -2447494 -2528209 -2578640 -2596821 -2588982 
3631.633 -2566090 -2538454 -2514274 -2497638 -2489501 -2487952 -2490786 
3635.008 -2495793 -2502019 -2509366 -2518063 -2527484 -2536444 -2543461 
3638.384 -2547545 -2548731 -2548435 -2548501 -2550642 -2555451 -2562072 
3641.759 -2568725 -2572777 -2572579 -2567375 -2557921 -2546030 -2534270 
3645.134 -2525277 -2521555 -2525178 -2537828 -2560688 -2594186 -2638023 
3648.509 -2690318 -2747940 -2805753 -2857600 -2896933 -2918459 -2919314 
3651.885 -2899929 -2864282 -2818361 -2770823 -2730753 -2705992 -2703193 
3655.260 -2723871 -2764106 -2814345 -2863196 -2899830 -2918097 -2917965 
3658.635 -2903418 -2881200 -2857962 -2838672 -2826163 -2820830 -2820995 
3662.010 -2823925 -2826953 -2827348 -2823464 -2814345 -2799794 -2780238 
3665.385 -2756896 -2731181 -2705333 -2682184 -2665159 -2658605 -2666740 
3668.761 -2692458 -2735429 -2789720 -2844071 -2885776 -2903845 -2893445 
3672.136 -2858390 -2808650 -2759201 -2725748 -2722719 -2757851 -2827710 
3675.511 -2916385 -3001126 -3062886 -3092430 -3093680 -3076540 -3052884 
3678.886 -3031365 -3016295 -3007444 -3002245 -2997276 -2990596 -2981810 
3682.262 -2971806 -2960913 -2948309 -2931557 -2908354 -2877876 -2842787 
3685.637 -2808880 -2783728 -2775563 -2789556 -2826032 -2878370 -2935474 
3689.012 -2986154 -3021757 -3040348 -3045152 -3041993 -3035939 -3030082 
3692.387 -3024785 -3018829 -3010537 -2999645 -2986154 -2971609 -2957589 
3695.763 -2944656 -2933005 -2921519 -2909704 -2897065 -2884196 -2873038 
3699.138 -2865994 -2865895 -2874519 -2892786 -2919281 -2950678 -2982271 
3702.513 -3009352 -3027450 -3033471 -3027088 -3009089 -2982139 -2949856 
3705.888 -2915628 -2882748 -2853683 -2829718 -2811316 -2798510 -2791301 
3709.264 -2790543 -2797490 -2813357 -2838936 -2873070 -2912238 -2950678 
3712.639 -2981942 -3000402 -3003693 -2992439 -2970424 -2943010 -2915760 
3716.014 -2893543 -2878436 -2871030 -2868660 -2868561 -2867738 -2864545 
3719.389 -2860266 -2856876 -2857501 -2863821 -2875769 -2890713 -2904931 
3722.765 -2914542 -2917405 -2914114 -2907334 -2901048 -2898908 -2901937 
3726.140 -2909079 -2916122 -2917833 -2910000 -2891141 -2862866 -2829685 
3729.515 -2797885 -2773127 -2759464 -2757818 -2765621 -2777967 -2789095 
3732.890 -2795877 -2799333 -2804206 -2817077 -2842952 -2882616 -2931294 
3736.266 -2979835 -3018006 -3039065 -3041072 -3026825 -3000402 -2965685 
3739.641 -2924876 -2878436 -2826328 -2770987 -2717286 -2675203 -2657288 
3743.016 -2674840 -2733058 -2823694 -2924679 -3005963 -3045514 -3037321 
3746.391 -2991090 -2924251 -2854473 -2797523 -2762230 -2752155 -2764205 
3749.767 -2791761 -2827118 -2864084 -2899369 -2930175 -2953245 -2964731 
3753.142 -2960189 -2939226 -2903944 -2860859 -2818164 -2782905 -2760814 
3756.517 -2753537 -2759299 -2774115 -2793375 -2813687 -2833175 -2851181 
3759.892 -2866619 -2877053 -2879357 -2871556 -2853452 -2828435 -2802164 
3763.268 -2781424 -2771152 -2773391 -2785276 -2801012 -2812699 -2814806 
3766.643 -2805720 -2788535 -2769341 -2754723 -2750212 -2757653 -2775563 
3770.018 -2799366 -2823003 -2841964 -2852860 -2855131 -2849799 -2838639 
3773.393 -2823859 -2807465 -2791136 -2776123 -2763020 -2752221 -2744088 
3776.769 -2739544 -2739512 -2744483 -2755151 -2770098 -2787021 -2801901 
3780.144 -2810658 -2811152 -2803119 -2788831 -2772469 -2758443 -2749883 
3783.519 -2748204 -2752451 -2760122 -2768156 -2774115 -2777506 -2778955 
3786.894 -2779844 -2781490 -2784354 -2788798 -2793967 -2799893 -2806477 
3790.270 -2813522 -2820567 -2826328 -2828698 -2825867 -2816814 -2802263 
3793.645 -2785012 -2769506 -2759661 -2758312 -2765621 -2777671 -2788305 
3797.020 -2791564 -2783235 -2763514 -2736779 -2710832 -2695751 -2700229 
3800.395 -2729732 -2782082 -2847889 -2910000 -2952061 -2963710 -2943537 
3803.771 -2898941 -2842129 -2788173 -2750443 -2738096 -2753702 -2791301 
3807.146 -2837915 -2877810 -2899468 -2898382 -2877251 -2842590 -2801374 
3810.521 -2759003 -2717582 -2676948 -2636343 -2595833 -2558481 -2530152 
3813.896 -2517799 -2527484 -2560853 -2612301 -2668847 -2714290 -2735429 
3817.271 -2727362 -2695092 -2650373 -2609172 -2586775 -2594087 -2634894 
3820.647 -2703423 -2783860 -2855197 -2900850 -2913193 -2895518 -2857863 
3824.022 -2813621 -2774576 -2748039 -2736351 -2736515 -2741915 -2744746 
3827.397 -2739149 -2723048 -2698714 -2670757 -2644576 -2624487 -2612564 
3830.772 -2608283 -2609567 -2613190 -2616681 -2618361 -2617439 -2614310 
3834.148 -2609930 -2605450 -2602881 -2604331 -2612004 -2627846 -2652282 
3837.523 -2683172 -2716463 -2747051 -2770065 -2782543 -2784519 -2777605 
3840.898 -2765324 -2751134 -2737898 -2727625 -2721040 -2717879 -2716660 
3844.273 -2715673 -2712281 -2704938 -2691964 -2673062 -2648956 -2620600 
3847.649 -2589410 -2556208 -2520995 -2483900 -2444957 -2406406 -2372828 
3851.024 -2352462 -2355527 -2392929 -2470557 -2584140 -2716133 -2840615 
3854.399 -2933927 -2983324 -2990037 -2963447 -2916023 -2858785 -2799630 
3857.774 -2743989 -2694170 -2651986 -2617966 -2592539 -2575774 -2566815 
3861.150 -2564081 -2566090 -2571393 -2579562 -2590629 -2604989 -2621061 
3864.525 -2635520 -2642930 -2638286 -2618855 -2586479 -2547809 -2513121 
3867.900 -2492960 -2496386 -2526101 -2577355 -2637331 -2689758 -2722620 
3871.275 -2731412 -2720579 -2699472 -2678496 -2665060 -2662162 -2667102 
3874.651 -2673886 -2675664 -2667563 -2648265 -2620008 -2587236 -2555023 
3878.026 -2528373 -2511441 -2506071 -2512627 -2528209 -2547908 -2565102 
3881.401 -2573962 -2571196 -2557658 -2538355 -2520039 -2511276 -2518755 
3884.776 -2543790 -2581802 -2622017 -2651789 -2660614 -2645235 -2609172 
3888.152 -2561709 -2513582 -2474972 -2453260 -2451349 -2466801 -2492993 
3891.527 -2521620 -2544613 -2556505 -2555681 -2543032 -2521192 -2493190 
3894.902 -2461958 -2430031 -2399882 -2373454 -2352660 -2338917 -2332887 
3898.277 -2334369 -2342213 -2354571 -2369236 -2384526 -2399552 -2414281 
3901.653 -2429834 -2446934 -2466966 -2488875 -2511178 -2530679 -2543790 
3905.028 -2547512 -2540825 -2524849 -2502151 -2476323 -2451151 -2429307 
3908.403 -2412370 -2400376 -2392929 -2388448 -2385548 -2383043 -2379880 
3911.778 -2374937 -2367588 -2357405 -2344817 -2331403 -2319901 -2313145 
3915.154 -2313969 -2323098 -2339379 -2359646 -2379287 -2394115 -2401529 
3918.529 -2401068 -2394247 -2383604 -2371708 -2360009 -2349299 -2339741 
3921.904 -2331733 -2325933 -2324021 -2326855 -2335029 -2347288 -2361096 
3925.279 -2373256 -2380934 -2382681 -2378595 -2370060 -2358526 -2346102 
3928.655 -2333908 -2322571 -2313145 -2306619 -2304246 -2306784 -2314332 
3932.030 -2325306 -2336841 -2345640 -2348903 -2345509 -2336940 -2325570 
3935.405 -2314958 -2307608 -2304312 -2304081 -2304576 -2303060 -2297819 
3938.780 -2288591 -2276857 -2265320 -2256552 -2252960 -2255531 -2263936 
3942.156 -2276329 -2290535 -2303982 -2314233 -2319539 -2319506 -2314200 
3945.531 -2305169 -2294787 -2285031 -2277714 -2273495 -2271649 -2270759 
3948.906 -2268781 -2264661 -2257541 -2248411 -2238752 -2229984 -2223028 
3952.281 -2218380 -2215710 -2214392 -2213963 -2214589 -2216073 -2218446 
3955.656 -2220919 -2222171 -2220523 -2214227 -2202886 -2187062 -2168435 
3959.032 -2149379 -2132431 -2119474 -2110933 -2107109 -2106284 -2107372 
3962.407 -2108988 -2110010 -2109746 -2108098 -2104998 -2100843 -2095996 
3965.782 -2091083 -2086269 -2081784 -2077563 -2073111 -2067802 -2061306 
3969.157 -2053424 -2044784 -2036011 -2028195 -2021962 -2018202 -2016850 
3972.533 -2017840 -2020511 -2023842 -2026942 -2028690 -2027832 -2023809 
3975.908 -2016224 -2005340 -1991850 -1977470 -1963253 -1950356 -1939735 
3979.283 -1931488 -1925583 -1922186 -1920899 -1921922 -1925418 -1931092 
3982.658 -1938580 -1947223 -1956228 -1964639 -1972060 -1977898 -1981955 
3986.034 -1984330 -1984792 -1983604 -1980966 -1977437 -1974006 -1971302 
3989.409 -1970213 -1970510 -1972126 -1973808 -1974798 -1974336 -1972357 
3992.784 -1969290 -1965892 -1962693 -1960153 -1958405 -1957316 -1956656 
3996.159 -1956854 -1958108 -1960813 -1965266 -1970840 -1976744 -1981559 
3999.535 -1984495 -1984792 -1982978 
##END=
