##TITLE=1541_1_b
##JCAMP-DX=5.01  $$ Nicolet v. 1
##DATATYPE=INFRARED SPECTRUM
##ORIGIN=UniL
##OWNER=Nicolet
##LONGDATE=2011/09/29
##TIME=14:08:32
##SPECTROMETER/DATA SYSTEM=Nicolet iS5
##DATA PROCESSING=
Ratio against background
%Transmittance->Absorbance
Truncated
ElementMultiply or ElementDivide
##COMMENTS=
Number of sample scans: 32
Collection length: 51.21 sec
Sample gain: 2.0
Background collected on: Jeu Sep 29 14:04:42 2011 (GMT+02:00);
Number of background scans: 32
Background gain: 2.0
Sample spacing:  1.000
Number of scan points: 12415
Resolution points: 8192
Number of FFT points: 65536
Apodization: N-B fort;
Phase correction: Mertz;
Laser frequency: 15798.0 cm-1
Number of rejected sample scans: 0
Number of rejected background scans: 0
Bench serial number: ASB1000141;
##RESOLUTION=4.000
##XUNITS=1/CM
##YUNITS=ABSORBANCE
##FIRSTX=649.893372
##LASTX=4000.122314
##FIRSTY=0.087370
##MAXX=4000.122314
##MINX=649.893372
##MAXY=0.261555
##MINY=-0.003419
##XFACTOR=1.000000
##YFACTOR=1.000000E-009
##NPOINTS=6950
##DELTAX=0.482117
##ZPD=6100
##XYDATA=(X++(Y..Y))
649.893 87370200 86580664 85908968 85374560 84963120 84643672 84386176 
653.268 84178792 84028672 83954496 83972384 84083792 84272560 84514568 
656.643 84785912 85074872 85382864 85715176 86069744 86432664 86775448 
660.018 87069344 87299016 87469200 87605552 87742800 87913720 88136056 
663.393 88410808 88725888 89065600 89418048 89771632 90111144 90408776 
666.767 90617768 90687952 90594832 90370464 90094224 89853000 89696456 
670.142 89622736 89596064 89565512 89487744 89337736 89118568 88855320 
673.517 88582928 88327760 88092584 87859000 87596912 87281032 86901912 
676.892 86470064 86008992 85544304 85092448 84657768 84234904 83816704 
680.267 83397800 82977800 82556696 82132584 81699456 81251256 80785600 
683.642 80309440 79838144 79390464 78979696 78606400 78256584 77907536 
687.016 77537848 77135232 76702152 76253392 75808416 75382440 74981864 
690.391 74606240 74252800 73924504 73633280 73395656 73229016 73142976 
693.766 73134464 73190624 73294680 73434304 73607376 73823248 74095264 
697.141 74436464 74850360 75329712 75859704 76424864 77015344 77629832 
700.516 78273968 78954136 79671560 80419760 81183664 81944480 82687104 
703.890 83401168 84082384 84731128 85347128 85928344 86471760 86974440 
707.265 87435920 87859000 88248048 88607184 88939856 89250272 89547392 
710.640 89847984 90178672 90570176 91050368 91635592 92321464 93079600 
714.015 93857776 94593256 95219376 95679008 95937376 95985072 95842304 
717.390 95554416 95192224 94843520 94595320 94532704 94719704 95186776 
720.765 95927624 96893528 98000496 99128440 100144728 100922096 101349520 
724.139 101364408 100961264 100199600 99189392 98072960 96996872 96070464 
727.514 95358592 94873568 94588272 94453336 94418952 94450824 94529448 
730.889 94646984 94798968 94976064 95164056 95349392 95524328 95691768 
734.264 95863248 96053016 96269968 96512832 96771824 97034368 97292256 
737.639 97546232 97803808 98074368 98361632 98659488 98954376 99231448 
741.013 99483024 99712904 99934808 100163712 100409984 100672232 100938896 
744.388 101194768 101429704 101643864 101847448 102054688 102275032 
747.281 102508104 102744840 102971368 103177928 103363736 103536928 
750.174 103709384 103888936 104075224 104259480 104431296 104583616 
753.066 104717944 104843208 104970736 105106872 105249944 105391272 
755.959 105521416 105636848 105743312 105853440 105980040 106130416 
758.852 106301192 106482072 106660712 106830848 106995248 107163992 
761.744 107346216 107546040 107757976 107971928 108179816 108384960 
764.637 108602872 108861512 109191880 109617632 110152208 110795664 
767.530 111537200 112356240 113224808 114108896 114969712 115778552 
770.423 116532384 117274256 118097144 119131216 120510688 122306608 
773.315 124478336 126828568 129038648 130695384 131398560 130893080 
776.208 129117104 126238480 122578728 118547656 114517976 110739264 
779.101 107335784 104299920 101545384 98952096 96418496 93884256 91330288 
782.475 88772064 86243608 83787776 81444264 79250304 77239208 75434552 
785.850 73852080 72496544 71363080 70442128 69725232 69209704 68901352 
789.225 68812280 68955408 69342576 69982152 70880240 72046864 73498144 
792.600 75255624 77341624 79767664 82521752 85554960 88780152 92067648 
795.975 95243264 98117440 100482392 102135080 102918200 102732328 101569296 
799.350 99517400 96762296 93558016 90170392 86864304 83846168 81234200 
802.724 79060104 77264704 75727816 74290928 72808592 71181800 69375776 
806.099 67429600 65438100 63526252 61801104 60329424 59117084 58112456 
809.474 57221800 56336360 55368400 54261144 53001320 51609372 50127844 
812.849 48604512 47078748 45582908 44140068 42767408 41481676 40297196 
816.224 39224468 38268536 37427624 36694324 36058776 35512780 35051872 
819.598 34674848 34383068 34176940 34055436 34016084 34056684 34177724 
822.973 34384324 34685832 35093972 35618976 36266664 37034316 37908956 
826.348 38862648 39852504 40822888 41701952 42415048 42894776 43090492 
829.723 42985564 42602028 42002380 41273568 40519420 39844184 39330232 
833.098 39035636 38983368 39158648 39508596 39945816 40365552 40647440 
836.473 40681936 40393440 39748172 38768044 37520632 36110692 34651484 
839.847 33242948 31964522 30859856 29942622 29204016 28624024 28178002 
843.222 27842118 27596728 27424180 27308466 27237020 27200016 27192184 
846.597 27211868 27259494 27334754 27436074 27559092 27699204 27853564 
849.972 28022114 28207632 28413638 28642606 28894146 29165816 29455068 
853.347 29761792 30090252 30448886 30846942 31293508 31794432 32352618 
856.721 32970466 33652704 34407852 35249364 36194308 37259644 38462716 
860.096 39819928 41346192 43057196 44964140 47068260 49350792 51764556 
863.471 54230436 56631988 58835924 60705168 62113744 62977576 63260084 
866.846 62983660 62223320 61103808 59785416 58430976 57205168 56250244 
870.221 55667736 55526440 55853880 56641156 57844364 59388544 61173840 
873.596 63065640 64908928 66539772 67786936 68509920 68614720 68067176 
876.970 66900588 65207220 63124916 60802076 58388448 56017412 53784756 
880.345 51758656 49976292 48448268 47168864 46120756 45282204 44628868 
883.720 44137280 43786632 43556532 43428716 43386640 43415716 43506464 
887.095 43656764 43873900 44173960 44578708 45112076 45791804 46626620 
890.470 47613276 48739572 49987036 51337132 52776700 54298124 55900268 
893.844 57585440 59355952 61210040 63137600 65112324 67085892 68985704 
897.219 70704272 72113672 73080240 73475744 73213408 72261488 70653352 
900.594 68479936 65879748 63021704 60068860 57174744 54467572 52034296 
903.969 49931800 48185440 46795088 45743944 45004784 44548640 44347388 
907.344 44379756 44632760 45099760 45779100 46670408 47772400 49082264 
910.719 50594468 52299388 54182420 56218452 58365596 60568008 62752932 
914.093 64837984 66751772 68439200 69877792 71081960 72102488 73018696 
917.468 73918696 74895160 76022736 77344360 78864896 80541672 82290464 
920.843 83983280 85477208 86638656 87364856 87620432 87449344 86984160 
924.218 86417624 85988480 85950632 86512960 87831248 89973144 92907776 
927.593 96499592 100510952 104641544 108513920 111726536 113911936 114738648 
930.967 113982320 111554168 107511456 102060720 95523584 88321744 80887736 
934.342 73622800 66874808 60877852 55770652 51607208 48373072 46016492 
937.717 44468796 43664276 43536280 44011784 45003796 46386572 47992600 
941.092 49631372 51085224 52153728 52689488 52607760 51910604 50675448 
944.467 49045020 47188144 45270728 43441240 41800152 40404532 39272412 
947.841 38392308 37735692 37266320 36950464 36756596 36656324 36626404 
951.216 36644788 36692268 36754396 36821004 36888020 36956996 37033340 
954.591 37124424 37236684 37375112 37541620 37735984 37956000 38199496 
957.966 38463368 38745260 39043464 39356676 39684780 40028608 40389876 
961.341 40770112 41170716 41591056 42028988 42481324 42945068 43418320 
964.716 43901612 44397260 44908544 45438340 45988092 46557344 47145040 
968.090 47750208 48373184 49016160 49682152 50374284 51094692 51844780 
971.465 52625488 53438968 54289116 55180960 56120296 57111660 58157308 
974.840 59257352 60411284 61619004 62882700 64207128 65597572 67059212 
978.215 68595480 70208656 71901896 73681608 75559296 77552424 79681352 
981.590 81966088 84423680 87064080 89888776 92888488 96042024 99308992 
984.964 102622624 105892544 108992576 111770512 114073432 115750432 
987.857 116684856 116814304 116134912 114707024 112642288 110103488 
990.750 107275504 104345672 101500808 98893088 96636664 94808200 93441016 
994.125 92537408 92077232 92030424 92363472 93044040 94045720 95343160 
997.500 96911832 98728936 100770456 103012616 105431944 107998608 110672008 
1000.874 113397104 116094352 118667080 121011744 123021200 124610128 
1003.767 125724288 126347544 126506280 126266840 125734104 125031608 
1006.660 124298176 123675696 123283072 123218648 123549248 124307392 
1009.552 125500960 127118904 129143192 131553096 134330112 137459168 
1012.445 140923520 144705184 148785792 153145712 157766976 162629856 
1015.338 167700816 172922336 178198528 183377440 188270336 192658528 
1018.231 196319568 199081888 200844576 201609520 201481792 200673344 
1021.123 199479600 198219472 197234640 196829456 197226848 198575920 
1024.016 200926128 204241648 208411584 213278384 218663744 224366800 
1026.909 230193520 235954240 241452784 246511152 250969168 254697328 
1029.802 257619856 259712992 261004336 261554544 261447904 260778880 
1032.695 259636816 258111920 256283520 254208144 251914208 249388896 
1035.588 246582160 243411104 239785216 235632384 230909888 225620304 
1038.481 219806624 213545664 206932736 200075520 193094112 186104992 
1041.374 179223328 172553648 166170768 160121472 154420368 149055888 
1044.267 144003664 139241152 134759152 130568312 126698632 123190176 
1047.160 120090472 117442224 115276888 113615016 112462128 111809384 
1050.053 111634160 111902360 112571000 113588720 114905472 116473072 
1052.947 118245896 120184360 122245264 124374320 126506016 128553376 
1055.840 130412680 131980256 133151856 133840304 133989008 133570864 
1058.733 132597816 131119328 129228440 127052512 124740680 122464936 
1061.626 120388656 118654976 117385264 116659408 116522120 116983536 
1064.519 118022784 119590480 121607440 123976400 126574304 129260976 
1067.412 131900296 134357648 136518992 138303344 139654256 140542192 
1070.305 140956416 140898848 140380896 139421440 138049424 136301424 
1073.198 134220976 131862224 129286544 126566144 123791256 121060256 
1076.091 118481704 116168856 114219184 112714440 111711800 111236296 
1078.984 111283984 111819200 112780464 114071800 115567720 117126528 
1081.877 118583440 119780088 120591560 120937320 120808904 120270152 
1084.770 119456800 118547432 117740248 117240920 117221088 117813000 
1087.663 119098920 121097424 123762704 126978304 130576728 134334048 
1090.556 137992416 141308144 144051712 146047680 147195280 147461392 
1093.449 146882624 145545936 143582416 141141056 138368256 135406064 
1096.343 132367704 129334552 126361328 123473864 120678512 117967480 
1099.236 115324072 112724024 110136024 107527664 104866784 102130008 
1102.129 99312032 96430088 93527320 90664024 87917048 85366416 83082224 
1105.504 81127664 79549608 78378528 77633288 77320168 77434872 77962800 
1108.879 78880432 80155112 81743008 83594088 85649424 87837984 90082880 
1112.254 92294080 94369248 96208512 97712968 98798816 99411536 99525192 
1115.630 99146600 98308824 97068048 95494392 93660896 91645824 89519792 
1119.005 87340544 85154768 82992440 80870616 78798584 76782256 74828824 
1122.380 72949784 71158536 69469584 67895832 66446200 65126872 63944272 
1125.755 62906944 62029800 61333584 60841908 60580008 60568388 60817780 
1129.131 61327976 62084804 63061772 64217196 65498000 66841656 68173464 
1132.506 69419232 70512552 71400960 72061136 72501672 72764432 72913528 
1135.881 73029280 73194432 73474760 73916256 74534480 75313552 76206248 
1139.256 77139392 78028032 78775776 79292856 79507312 79364488 78835056 
1142.632 77912208 76607440 74947288 72969816 70726184 68274064 65677388 
1146.007 63005576 60321428 57682948 55139316 52726188 50469624 48386300 
1149.382 46484692 44767984 43235044 41881988 40702204 39687212 38828260 
1152.757 38116108 37542776 37102228 36790100 36603548 36540540 36599184 
1156.133 36777620 37074512 37489600 38023660 38678716 39456956 40359656 
1159.508 41386176 42533688 43797404 45170016 46641376 48197324 49816172 
1162.883 51467112 53112180 54702544 56185304 57509256 58623428 59485432 
1166.258 60062620 60331480 60281572 59915440 59249528 58311288 57137436 
1169.634 55771216 54255140 52631024 50938592 49211868 47482964 45781568 
1173.009 44132216 42557552 41076048 39700936 38441792 37304592 36291884 
1176.384 35405172 34644704 34010496 33501998 33118092 32857626 32718912 
1179.759 32700978 32804166 33030062 33381328 33861060 34471876 35215192 
1183.135 36091972 37102516 38247004 39524708 40932176 42461264 44095908 
1186.510 45810580 47573160 49341772 51070392 52712420 54217672 55539280 
1189.885 56635912 57473356 58032316 58310944 58328116 58119692 57736228 
1193.260 57237716 56681212 56119808 55596556 55139272 54763092 54470052 
1196.635 54251796 54091368 53965928 53850876 53718040 53538768 53285548 
1200.011 52928632 52440124 51795948 50977604 49977928 48804260 47480672 
1203.386 46043972 44541300 43025036 41542088 40132244 38825324 37637400 
1206.761 36575860 35639940 34824240 34120908 33520684 33014760 32593888 
1210.136 32249968 31977110 31771294 31631824 31560342 31560234 31635210 
1213.512 31787838 32019410 32329846 32717734 33180032 33712536 34308912 
1216.887 34959820 35654404 36380504 37126156 37882024 38640652 39396800 
1220.262 40147144 40888740 41620224 42342352 43060596 43785420 44532156 
1223.637 45321040 46173044 47107112 48138760 49277076 50524228 51873980 
1227.013 53311992 54813872 56343488 57856856 59301596 60620236 61760348 
1230.388 62674500 63326208 63695876 63780800 63600512 63194544 62627876 
1233.763 61984088 61354996 60842592 60542332 60535400 60892184 61663604 
1237.138 62884344 64576708 66750340 69402792 72515920 76056008 79967344 
1240.514 84168576 88563792 93034520 97445872 101662320 105537936 108929936 
1243.889 111717544 113800608 115120072 115662720 115460944 114585912 
1246.782 113133040 111222008 108977416 106521288 103973248 101428280 
1249.675 98950224 96564688 94253224 91959000 89598384 87088248 84361072 
1253.050 81385032 78173904 74786160 71316064 67869216 64557908 61478692 
1256.426 58697840 56253300 54149276 52361284 50840468 49522920 48339184 
1259.801 47215732 46089952 44913760 43655152 42302976 40862784 39354176 
1263.176 37804044 36243328 34703988 33213258 31794824 30467580 29243960 
1266.551 28130912 27129788 26236824 25444340 24742488 24122356 23575832 
1269.927 23097254 22682494 22327702 22028552 21779772 21575808 21412004 
1273.302 21285248 21194228 21138356 21117032 21128094 21167752 21230688 
1276.677 21310306 21399924 21491688 21576854 21646084 21689726 21699408 
1280.052 21670324 21601542 21496632 21360804 21199480 21015366 20808180 
1283.427 20575038 20313930 20025946 19717906 19402046 19094724 18814710 
1286.803 18578934 18402048 18296144 18270604 18333504 18492142 18751674 
1290.178 19114736 19580068 20142340 20790698 21509096 22277336 23067308 
1293.553 23845070 24572994 25209748 25719590 26077762 26274418 26317964 
1296.928 26232532 26055736 25827954 25589428 25376186 25214242 25122392 
1300.304 25111544 25183446 25332138 25542478 25792790 26055138 26299904 
1303.679 26501380 26638438 26698086 26675432 26572140 26395456 26156372 
1307.054 25870188 25554250 25226954 24907728 24612618 24353802 24139414 
1310.429 23972538 23854660 23786126 23768136 23801980 23888232 24025762 
1313.805 24211158 24439426 24706360 25009466 25349244 25728378 26150354 
1317.180 26617442 27130246 27687656 28288326 28931898 29618954 30349348 
1320.555 31120372 31923044 32741458 33552646 34326480 35032440 35640304 
1323.930 36126140 36477868 36699228 36813284 36859236 36892960 36976152 
1327.306 37162716 37493684 37984204 38622000 39368648 40170916 40973064 
1330.681 41724244 42392436 42964968 43448048 43862204 44237536 44609296 
1334.056 45010776 45472264 46017744 46660668 47403724 48237312 49143072 
1337.431 50094040 51059580 52010320 52916580 53751676 54493940 55126408 
1340.807 55639528 56031172 56305352 56468788 56527848 56484940 56337608 
1344.182 56078672 55698584 55189200 54546496 53772188 52873276 51861580 
1347.557 50752232 49561508 48308520 47015240 45706136 44412200 43169388 
1350.932 42015044 40990360 40133008 39473976 39038280 38841524 38889972 
1354.308 39179572 39694112 40402532 41255420 42191924 43140148 44023700 
1357.683 44776764 45343880 45687436 45791804 45662000 45324752 44823528 
1361.058 44222568 43599760 43036268 42614568 42399120 42425020 42695752 
1364.433 43183184 43838380 44596040 45388716 46148944 46808852 47311380 
1367.809 47611760 47682088 47516748 47129452 46549932 45813528 44960244 
1371.184 44030340 43060964 42093564 41173740 40347876 39664888 39164380 
1374.559 38868192 38777360 38872756 39124892 39502280 39981960 40552852 
1377.934 41215088 41978148 42858092 43876756 45058336 46427500 48001520 
1381.310 49777340 51717000 53733788 55701676 57453392 58808152 59608524 
1384.685 59723436 59080484 57679880 55614784 53071072 50295184 47565472 
1388.060 45109100 43063784 41475044 40310572 39495892 38940200 38561596 
1391.435 38289920 38066480 37846048 37590032 37267944 36863168 36374056 
1394.811 35816040 35214040 34594396 33975128 33361896 32753210 32146700 
1398.186 31545732 30965168 30428414 29960266 29579938 29294608 29099876 
1401.561 28984778 28937812 28950314 29019386 29146928 29337820 29596326 
1404.936 29923666 30316446 30767160 31266872 31807054 32381568 32987554 
1408.312 33623636 34288648 34980760 35695336 36426736 37169216 37917776 
1411.687 38668900 39419184 40163064 40892344 41596524 42265360 42892656 
1415.062 43479144 44033236 44568392 45101120 45647828 46222276 46836384 
1418.437 47499116 48213320 48975136 49770988 50578348 51369876 52119280 
1421.813 52807344 53423604 53972192 54471664 54953136 55450728 55992120 
1425.188 56592428 57251928 57962224 58713164 59498768 60316404 61162928 
1428.563 62030872 62903808 63758812 64573436 65332212 66033176 66687168 
1431.938 67316144 67944800 68595272 69286376 70034664 70859336 71787424 
1435.313 72854752 74099984 75555232 77226544 79090264 81101664 83204608 
1438.689 85339792 87437304 89419184 91181968 92603792 93570464 93978824 
1442.064 93761624 92895800 91396864 89315552 86724344 83720312 80409992 
1445.439 76896432 73286440 69678896 66171176 62870792 59880752 57286748 
1448.814 55138448 53438184 52150552 51222400 50608392 50280860 50230384 
1452.190 50454480 50940716 51655940 52551364 53561036 54614912 55651468 
1455.565 56613112 57461636 58185036 58807356 59375060 59933464 60515368 
1458.940 61131424 61780020 62456940 63159636 63887112 64634764 65391368 
1462.315 66132052 66815876 67395664 67824824 68077528 68160744 68116592 
1465.691 68005016 67876496 67761336 67662168 67562904 67436184 67251696 
1469.066 66976548 66568344 65973656 65128684 63970724 62468568 60652352 
1472.441 58630940 56559476 54589288 52818080 51274152 49941016 48790320 
1475.816 47808608 47005528 46407624 46037492 45904372 45995828 46286744 
1479.192 46749220 47365256 48132132 49060192 50165444 51461140 52953184 
1482.567 54639860 56518564 58592600 60874420 63383176 66132828 69119904 
1485.942 72304384 75593200 78848720 81877776 84449488 86332328 87304528 
1489.317 87206576 85986824 83726056 80632064 76977920 73048760 69063848 
1492.693 65151280 61373656 57737704 54232688 50865052 47668184 44709072 
1496.068 42074180 39838632 38042068 36677556 35708068 35081256 34747812 
1499.443 34671116 34822552 35178000 35713972 36403060 37214048 38115532 
1502.818 39066776 40019564 40913496 41657900 42133724 42197584 41706004 
1506.194 40582172 38873192 36752632 34437368 32097462 29817540 27614384 
1509.569 25479404 23408856 21411864 19517854 17764008 16178861 14778972 
1512.944 13562775 12515820 11617833 10848090 10187394 9616854 9119095 
1516.319 8680347 8292497 7956452 7678030 7462648 7308258 7202262 7122092 
1520.177 7043384 6949372 6841814 6742259 6681352 6680276 6739600 6842117 
1524.034 6962368 7079419 7182757 7276921 7377172 7502358 7663900 7861432 
1527.892 8085080 8323197 8568947 8823189 9092534 9384831 9703381 10045527 
1531.749 10402741 10764833 11125697 11487474 11859121 12249388 12661463 
1535.124 13088545 13517824 13932576 14317897 14662980 14960012 15204607 
1538.500 15393790 15525155 15596381 15607373 15565335 15485014 15383663 
1541.875 15275129 15162540 15038110 14885873 14691358 14448354 14165227 
1545.250 13862887 13566774 13296111 13054705 12832546 12611046 12373566 
1548.625 12112468 11834401 11557668 11304474 11089461 10913695 10766429 
1552.000 10632590 10500389 10367040 10239160 10129292 10048647 9999617 
1555.376 9974901 9958186 9929234 9865269 9742958 9544196 9264924 8929006 
1559.233 8586453 8294050 8086396 7966340 7915722 7908298 7919063 7926992 
1563.091 7918793 7890584 7848712 7806845 7780567 7781039 7810084 7860217 
1566.948 7918894 7974946 8020913 8056657 8087544 8122079 8167319 8226408 
1570.805 8299284 8384672 8481834 8590070 8707290 8828633 8944598 9043070 
1574.663 9113343 9151546 9165488 9175031 9205016 9271660 9377993 9515543 
1578.520 9672143 9837883 10008568 10185834 10375184 10582577 10810756 
1581.896 11059483 11324640 11600613 11879927 12153663 12410148 12633729 
1585.271 12806882 12913436 12942246 12892649 12775488 12614661 12441754 
1588.646 12292470 12202630 12200756 12307672 12535258 12884627 13344046 
1592.021 13885774 14468223 15032793 15512175 15844600 15977098 15880134 
1595.396 15553143 15023600 14341423 13565749 12759109 11973276 11246494 
1598.772 10605902 10066552 9634571 9308963 9083094 8947101 8890112 8904045 
1602.629 8984275 9128603 9335740 9602050 9918963 10273730 10648618 11022844 
1606.487 11374603 11679470 11912585 12051587 12076457 11974741 11743192 
1609.862 11389876 10934558 10406440 9843577 9282559 8753672 8277299 7859374 
1613.719 7495953 7176087 6887056 6617258 6360102 6117211 5897059 5712504 
1617.577 5574911 5490075 5456185 5465211 5504571 5559876 5617974 5667721 
1621.434 5703641 5727243 5746649 5773174 5816693 5882181 5968303 6069832 
1625.292 6181197 6299181 6422544 6550684 6682261 6814079 6942066 7063388 
1629.149 7178277 7290837 7406561 7530710 7664675 7805732 7946362 8077249 
1633.006 8188117 8270511 8318739 8332080 8316206 8282939 8247683 8225699 
1636.864 8225463 8247818 8286957 8333938 8377646 8408218 8420413 8414130 
1640.721 8395651 8374944 8361939 8362581 8375653 8393016 8402036 8389773 
1644.579 8345388 8264263 8150471 8016897 7881912 7765691 7684977 7648690 
1648.436 7659010 7711487 7797467 7903710 8011058 8095511 8126569 8073806 
1652.293 7922977 7697220 7458064 7271631 7173325 7154933 7187069 7237771 
1656.151 7284806 7316850 7330363 7327735 7312301 7286356 7249664 7199398 
1660.008 7131523 7043418 6934087 6804991 6660222 6506251 6351562 6205061 
1663.866 6075342 5968102 5884968 5822435 5772234 5723180 5662048 5576522 
1667.723 5459607 5311260 5139661 4959684 4788592 4639938 4521099 4432919 
1671.581 4370830 4327422 4292184 4253402 4197962 4114030 3996437 3850528 
1675.438 3693941 3547766 3429926 3346108 3290383 3249521 3210598 3165404 
1679.295 3113841 3063117 3022843 3000022 2993116 2990614 2972698 2918189 
1683.153 2812392 2658079 2480293 2316970 2199264 2135928 2116649 2122376 
1687.010 2136760 2147782 2150080 2142554 2126172 2103065 2076196 2049962 
1690.868 2029789 2021633 2029023 2050895 2080225 2103131 2102632 2063079 
1694.725 1978094 1856985 1726097 1617996 1553049 1531601 1534893 1535225 
1698.583 1502474 1414706 1267169 1080850 897334 756047 676228 651041 659702 
1702.922 679149 691693 686350 658872 612118 553525 493812 442001 403727 
1707.262 380678 371558 372818 381009 393578 409099 427440 449497 475667 
1711.601 505322 537136 568554 597054 622006 643508 662556 679348 691461 
1715.941 693286 678286 642148 587432 524497 469166 434604 427341 445218 
1720.281 480311 522108 561321 592608 614706 630069 642546 655886 671815 
1724.620 689669 707424 723554 737228 748114 756379 760993 761026 755914 
1728.960 746820 737095 731519 733278 741542 750073 745924 712800 636772 
1733.299 513350 355806 192650 56762 -30912 -69310 -71431 -56026 -39096 
1737.639 -32503 -41581 -64871 -96078 -126884 -150336 -162889 -165473 -160835 
1741.979 -152191 -141889 -130594 -117676 -102140 -82628 -58278 -28925 4804 
1746.318 41618 79131 114692 145681 170010 186120 193347 190927 178993 158608 
1751.140 132688 106008 84268 71608 70084 77540 88940 96629 93613 75320 41717 
1756.444 -1822 -46087 -82628 -107109 -121220 -131489 -146162 -172825 -215152 
1760.783 -271349 -335087 -397261 -449628 -486433 -506655 -512182 -506853 
1764.641 -495270 -481899 -471605 -467931 -472995 -485970 -502882 -517510 
1768.498 -523732 -519495 -507283 -494773 -491100 -504537 -537267 -583760 
1772.356 -631406 -666211 -679279 -670049 -644045 -610165 -575587 -542992 
1776.213 -511685 -478589 -441353 -400637 -360746 -327009 -304924 -296978 
1780.071 -300786 -311182 -321744 -328201 -329558 -328267 -327538 -330088 
1783.928 -336710 -345450 -353462 -358064 -357799 -352899 -343795 -330849 
1787.785 -313732 -292673 -268600 -245122 -227306 -221577 -232902 -262971 
1791.643 -307871 -359190 -407556 -445225 -469156 -481667 -487922 -492787 
1795.500 -500201 -511685 -527074 -545705 -566487 -588657 -612084 -636072 
1799.358 -659959 -682389 -702039 -718612 -732274 -743685 -753344 -760885 
1803.215 -765615 -766211 -762341 -754138 -742594 -729528 -716297 -703428 
1807.073 -691321 -680272 -670744 -664193 -662241 -665550 -673291 -683282 
1810.930 -692016 -695985 -693339 -684804 -672299 -659132 -647089 -636832 
1814.787 -627238 -615856 -600669 -580914 -557288 -531476 -505397 -480244 
1818.645 -455751 -431522 -406331 -379748 -352336 -325420 -300587 -280422 
1822.502 -267375 -263501 -270587 -288534 -314394 -343166 -367367 -380874 
1826.360 -380212 -366506 -344987 -323698 -310951 -311182 -324128 -343795 
1830.217 -360911 -366705 -356607 -331015 -294792 -253931 -212535 -173157 
1834.074 -135662 -98860 -62022 -26108 7620 37575 63853 89404 119232 158442 
1838.896 211446 279509 360548 450259 543207 634184 718741 793887 858622 
1843.236 914467 965936 1019537 1082777 1160910 1254575 1359860 1469526 
1847.093 1574397 1666455 1741100 1797725 1839482 1870262 1893291 1908200 
1850.951 1911828 1899281 1866436 1813063 1742631 1661699 1577191 1494262 
1854.808 1414141 1335165 1254076 1168252 1077529 983869 890229 799232 712103 
1859.148 628543 547951 470692 398321 333655 279078 235116 200474 172397 
1863.487 148432 126921 108428 94044 84897 80589 78402 74756 66836 54144 
1868.309 39099 26806 21637 25613 37807 54144 69454 80887 86819 88112 86521 
1873.613 83837 80887 77474 72834 66438 58220 48212 35918 19980 -1358 -29919 
1878.917 -65534 -106015 -147520 -185444 -216344 -239327 -256183 -270687 
1882.774 -286779 -306448 -329558 -354091 -377100 -395705 -409840 -419671 
1886.632 -426755 -432581 -437778 -442776 -448105 -454063 -460848 -468031 
1890.489 -473856 -475213 -469123 -453633 -429436 -400273 -371306 -347668 
1894.347 -332604 -325717 -323665 -321380 -314460 -300885 -281548 -259295 
1898.204 -236777 -215682 -196837 -179251 -161929 -145135 -129203 -114595 
1902.062 -101411 -88425 -73650 -56324 -36247 -15373 3479 18356 28827 36714 
1906.883 44898 56066 70051 84367 94574 96530 88642 72370 51725 31942 17097 
1912.187 7985 3777 3015 3744 5964 10371 16865 23161 25712 19085 -463 -32238 
1917.973 -72060 -112243 -145500 -168387 -182198 -191869 -204123 -223199 
1921.831 -249427 -279329 -307408 -328532 -340418 -344854 -344457 -341974 
1925.688 -338034 -330585 -316977 -295984 -268501 -238665 -211840 -191936 
1929.546 -180907 -178125 -180907 -187067 -195711 -206872 -220550 -236446 
1933.403 -251348 -261779 -265355 -261944 -254593 -248367 -247705 -253931 
1937.260 -264925 -274925 -278435 -272706 -258997 -241811 -227173 -218894 
1941.118 -217503 -219623 -221047 -217702 -209886 -200712 -193327 -190180 
1944.975 -190015 -188624 -181271 -164909 -140134 -110719 -82893 -60366 
1948.833 -44828 -34723 -26572 -17229 -6461 4903 15043 22366 27899 34261 
1953.655 42513 53282 63423 68692 65245 51559 28794 1623 -24584 -47776 -66660 
1958.958 -82562 -97535 -111051 -120293 -122777 -116682 -102802 -86603 -74247 
1963.298 -68449 -69675 -73518 -73617 -65997 -51818 -36247 -28096 -33662 
1967.638 -52713 -79116 -101808 -111051 -100881 -74180 -37373 298 31842 56298 
1972.459 76049 94607 115752 140444 168254 202264 247979 312334 402466 518359 
1977.281 650178 780411 889299 961055 991905 987655 961520 927483 895575 
1981.621 867187 838503 803680 759233 707357 655587 610990 581228 567725 
1985.960 568090 577081 591348 608667 628609 652335 677456 700488 717181 
1990.300 724782 724682 722823 727171 744762 777290 821141 867486 908059 
1994.640 937080 953284 959461 960258 958498 954812 947407 934224 915994 
1998.979 896039 878077 866656 862075 860215 855202 842122 817755 786983 
2003.319 757906 738157 734241 747285 771482 798667 822104 836910 842454 
2007.658 842055 838039 832860 828478 825224 824925 830403 843782 864863 
2011.998 891225 915994 931534 932962 917787 889266 853775 818618 789240 
2016.338 769556 760462 762951 779680 813107 864067 931999 1010171 1088524 
2020.677 1156890 1207823 1238359 1253046 1259559 1264976 1274746 1289999 
2024.535 1307846 1325327 1340981 1354110 1366973 1381033 1394263 1403869 
2028.392 1405797 1396889 1378241 1354376 1330811 1314393 1308942 1314758 
2032.250 1330944 1355207 1385986 1421554 1461347 1501709 1538684 1568711 
2036.107 1589695 1602565 1612808 1626477 1648594 1680858 1719843 1758699 
2039.964 1791104 1812464 1822479 1825041 1825241 1826672 1831297 1837286 
2043.822 1841346 1841812 1838118 1830997 1823078 1815958 1810401 1806708 
2047.679 1805477 1806874 1811865 1819951 1826672 1826439 1812198 1779326 
2051.537 1727993 1665391 1602299 1551353 1522258 1516638 1528841 1548293 
2055.394 1563257 1565585 1554512 1534760 1514344 1499947 1493863 1493996 
2059.251 1496489 1496922 1494295 1491236 1492001 1499714 1515608 1536755 
2063.109 1558635 1577922 1592954 1604627 1616267 1629836 1644803 1658971 
2066.966 1668717 1671045 1666189 1656377 1644603 1633760 1624248 1613540 
2070.824 1599006 1577956 1551087 1521559 1494295 1473349 1460948 1456261 
2074.681 1455729 1456128 1454831 1451174 1446520 1442697 1440503 1440070 
2078.539 1440536 1440170 1437544 1432557 1424180 1411980 1395925 1375648 
2082.396 1351982 1328152 1307846 1295516 1293921 1303126 1319743 1338422 
2086.253 1353079 1359328 1355938 1344305 1327820 1309374 1291229 1273217 
2090.111 1254940 1235800 1215531 1195695 1177854 1163701 1153900 1148850 
2093.968 1147654 1150877 1159581 1173933 1194167 1218887 1244274 1266538 
2097.826 1282788 1291561 1294153 1293755 1292857 1293422 1295516 1297743 
2101.683 1298640 1298175 1298008 1300999 1309873 1325427 1346764 1371626 
2105.541 1396656 1420590 1443561 1467298 1492732 1520994 1549923 1576526 
2109.398 1598308 1614072 1624714 1633494 1643639 1657209 1673972 1691834 
2113.255 1707335 1718479 1724800 1727594 1729823 1734580 1742764 1754607 
2117.113 1769079 1784416 1800253 1816856 1834358 1853258 1872858 1891161 
2120.970 1906403 1916553 1920114 1917186 1908067 1893524 1875054 1854390 
2124.828 1833659 1815858 1804179 1800120 1803580 1812032 1820416 1822513 
2128.685 1813629 1791070 1755139 1709132 1657375 1603995 1552783 1506132 
2132.542 1465968 1434485 1413842 1405199 1408822 1421787 1439505 1456859 
2136.400 1469925 1476142 1476807 1474147 1470224 1465835 1460882 1453003 
2140.257 1442132 1429998 1418429 1411548 1411249 1416102 1422451 1425942 
2144.115 1423116 1413842 1402805 1394495 1394030 1403204 1418629 1432890 
2147.972 1439007 1430330 1404667 1363317 1309673 1247663 1180877 1110879 
2151.830 1039199 967829 898662 832627 770552 710411 650012 591016 539293 
2156.169 507512 513284 574493 701218 890495 1123337 1369665 1599472 1787743 
2160.509 1922045 2003191 2040475 2043970 2024729 1989377 1941881 1886336 
2164.366 1827803 1770842 1720508 1679394 1645601 1616001 1586336 1552417 
2168.224 1513380 1470723 1425842 1380933 1336793 1292791 1248394 1205331 
2172.081 1165860 1134499 1115364 1109982 1116693 1131907 1149548 1163302 
2175.938 1169947 1167255 1155428 1135794 1110481 1080850 1049429 1017677 
2179.796 987223 959959 936714 917455 902813 893151 888668 890760 899459 
2184.135 913039 928479 941762 948237 946842 939736 931036 927550 934124 
2188.475 951458 976729 1004426 1028305 1044513 1053614 1058530 1063645 
2192.333 1073211 1087328 1104435 1121576 1136292 1149016 1162206 1179482 
2196.190 1203670 1235701 1272719 1310105 1343906 1369931 1386484 1394130 
2200.047 1393365 1384623 1369200 1347861 1321871 1295184 1271788 1255406 
2203.905 1249358 1254110 1267634 1287740 1311003 1334999 1358231 1380767 
2207.762 1401808 1421587 1439339 1454831 1468595 1481395 1493464 1505367 
2211.620 1516106 1523355 1525948 1523355 1516106 1507195 1499116 1493397 
2215.477 1490106 1487413 1482259 1472385 1458355 1441167 1424679 1412612 
2219.334 1406728 1407160 1413210 1422285 1432524 1442763 1451606 1457258 
2223.192 1457790 1450709 1434718 1410650 1381299 1350819 1323599 1301498 
2227.049 1283486 1266970 1247929 1224470 1198320 1174133 1157787 1154232 
2230.907 1164531 1185362 1210847 1234471 1251418 1261321 1267269 1273217 
2234.764 1283120 1298773 1318547 1339552 1359029 1374884 1387016 1397121 
2238.622 1406296 1415304 1424380 1432624 1440370 1448980 1459685 1474047 
2242.479 1493065 1515408 1539016 1561927 1582578 1600902 1618561 1637319 
2246.336 1658306 1682388 1708267 1733948 1758167 1779259 1796061 1807873 
2250.194 1814161 1814061 1808471 1798856 1787777 1779193 1776365 1780391 
2254.051 1790904 1804179 1815725 1821581 1819285 1808671 1791935 1771973 
2257.909 1751047 1730954 1712458 1695560 1680991 1669715 1662397 1659770 
2261.766 1661599 1665856 1670679 1674571 1676334 1677132 1678829 1683020 
2265.624 1690970 1702712 1717415 1733316 1749284 1763789 1775766 1783851 
2269.481 1786645 1782520 1771408 1753975 1732750 1711460 1693498 1681456 
2273.338 1676334 1677166 1681922 1689406 1698920 1710995 1726396 1745458 
2277.196 1766983 1788741 1808006 1822147 1830964 1835656 1838517 1842610 
2281.053 1850363 1862409 1878682 1898582 1921113 1946008 1973467 2002825 
2284.911 2033184 2062846 2089880 2112387 2129368 2140356 2145717 2146616 
2288.768 2143387 2137326 2129402 2121677 2116682 2117115 2125106 2141688 
2292.625 2166296 2196600 2229170 2261311 2290788 2316504 2338790 2358378 
2296.483 2375769 2391927 2406820 2421080 2435241 2450369 2466864 2485125 
2300.340 2504320 2523116 2540147 2554445 2565877 2575276 2584242 2593909 
2304.198 2605275 2618842 2633943 2650544 2668347 2687450 2707921 2729527 
2308.055 2751400 2772508 2791916 2808823 2823597 2837304 2851379 2867055 
2311.913 2885099 2905146 2926561 2948612 2970730 2992715 3015036 3037925 
2315.770 3061916 3087277 3114074 3142442 3173047 3205892 3241208 3279099 
2319.627 3318829 3359798 3401707 3443753 3484800 3522545 3553612 3573188 
2323.485 3577164 3562698 3529493 3480993 3423848 3365508 3313721 3273891 
2327.342 3248085 3235300 3232462 3235667 3241743 3249154 3257466 3266814 
2331.200 3277563 3288881 3300166 3310850 3321166 3332452 3346676 3365375 
2335.057 3389150 3417369 3448695 3480926 3512691 3542688 3570549 3596173 
2338.915 3619360 3639541 3656783 3671184 3683916 3696280 3709246 3722246 
2342.772 3733341 3738588 3733742 3715662 3684183 3642114 3596340 3555817 
2346.629 3529527 3524883 3546496 3595706 3671117 3768501 3882253 4005500 
2350.487 4130754 4251060 4361525 4459565 4545540 4622423 4693961 4763065 
2354.344 4830906 4896949 4959215 5015925 5067112 5113376 5156694 5199245 
2358.202 5242136 5285501 5328904 5371774 5413575 5454373 5493866 5531149 
2362.059 5564306 5590988 5609280 5618779 5620793 5618309 5615322 5614181 
2365.917 5615658 5618410 5619283 5613845 5599546 5574475 5538699 5494571 
2369.774 5445113 5393412 5342992 5296334 5254746 5219332 5190158 5166652 
2373.631 5148311 5135235 5127222 5125277 5130407 5143316 5164171 5192673 
2377.489 5227884 5269067 5315755 5368352 5427532 5494504 5569340 5651607 
2381.346 5739833 5831502 5924266 6016410 6106592 6194171 6278843 6359631 
2385.204 6435020 6503695 6563702 6613624 6652988 6681789 6700330 6709415 
2389.061 6709314 6700464 6683136 6658371 6627284 6591522 6552635 6511801 
2392.918 6469726 6426209 6381184 6334516 6286810 6238471 6191146 6146246 
2396.776 6105147 6069597 6041037 6020812 6010464 6010900 6022391 6044128 
2400.633 6075141 6113413 6157773 6207380 6262505 6323689 6392549 6469591 
2404.491 6555225 6648950 6749831 6856659 6968496 7084707 7205092 7330195 
2408.348 7460322 7596289 7739246 7889841 8048523 8214961 8387577 8563540 
2412.206 8739439 8910911 9073891 9225052 9361809 9482183 9585621 9671601 
2416.063 9740417 9793417 9832155 9858693 9875133 9883166 9883607 9876658 
2419.920 9861812 9838459 9806770 9767662 9722695 9674074 9624273 9574849 
2423.778 9527464 9483098 9442529 9406839 9377417 9355410 9342681 9340988 
2427.635 9351652 9376097 9415474 9469891 9539318 9622918 9719205 9826359 
2431.493 9943439 10069299 10204185 10348648 10503173 10667940 10842552 
2434.868 11025699 11216096 11413176 11616914 11828068 12048249 12278597 
2438.243 12519776 12772007 13035277 13309742 13596380 13896242 14210485 
2441.618 14539413 14882375 15237447 15602598 15976101 16357081 16746143 
2444.994 17144722 17553882 17974130 18404848 18844020 19289628 19739750 
2448.369 20192528 20646888 21101482 21554742 22004746 22449598 22887398 
2451.744 23316828 23736466 24144982 24539862 24918292 25276084 25608900 
2455.119 25913234 26185404 26422532 26621810 26779382 26890478 26950582 
2458.495 26954990 26900734 26787382 26616560 26391828 26117594 25798452 
2461.870 25438050 25039688 24606166 24139974 23644228 23123010 22580532 
2465.245 22022070 21454332 20883582 20317608 19764440 19231370 18725276 
2468.620 18251598 17813922 17414348 17053634 16731508 16447200 16199738 
2471.996 15987445 15807968 15657967 15533499 15429734 15342916 15269294 
2475.371 15206083 15151388 15103356 15059995 15019554 14980041 14940190 
2478.746 14899657 14858751 14817471 14776092 14733826 14688925 14640396 
2482.121 14587006 14529272 14468873 14408107 14349266 14293652 14240921 
2485.497 14189909 14138937 14086431 14031809 13976030 13920396 13866274 
2488.872 13815237 13767934 13724227 13684046 13646913 13611936 13578159 
2492.247 13544452 13508868 13469973 13426877 13379479 13328329 13274793 
2495.622 13219452 13162550 13103228 13040228 12971843 12897564 12817325 
2498.998 12732563 12645055 12556131 12467192 12378748 12291004 12204164 
2502.373 12118874 12035815 11956008 11880029 11807843 11739277 11673649 
2505.748 11610618 11549842 11491625 11436410 11383651 11333279 11284341 
2509.123 11236089 11188046 11140383 11093268 11047247 11002385 10957902 
2512.499 10912812 10865722 10815207 10760689 10702340 10640910 10577586 
2515.874 10514307 10452461 10393578 10339045 10289609 10245537 10206593 
2519.249 10171825 10140722 10112809 10088527 10069062 10056582 10052174 
2522.624 10056514 10068722 10086086 10105416 10123730 10138891 10149710 
2526.000 10157002 10161819 10165583 10169349 10173860 10179388 10186682 
2529.375 10196111 10207985 10222604 10239058 10256258 10272508 10286453 
2532.750 10297208 10305114 10311425 10317464 10324658 10333955 10345493 
2536.125 10359202 10374777 10391745 10409935 10429314 10449339 10469840 
2539.500 10490444 10511422 10532944 10556096 10581695 10610690 10643151 
2542.876 10678501 10715449 10752809 10788983 10823461 10855700 10885801 
2546.251 10914137 10941490 10968369 10995588 11024135 11054180 11085484 
2549.626 11117369 11148032 11175807 11199402 11218307 11233334 11246188 
2553.001 11258974 11273324 11290463 11310187 11331340 11352597 11372291 
2556.377 11388719 11401203 11408652 11410454 11406236 11396542 11381644 
2559.752 11362495 11340149 11314846 11286314 11253669 11215994 11172747 
2563.127 11124609 11072976 11020499 10969659 10921850 10877850 10837220 
2566.502 10799004 10762455 10728117 10696907 10670248 10649500 10635002 
2569.878 10625970 10621080 10618533 10617413 10617515 10619213 10623558 
2573.253 10631301 10642948 10658771 10678772 10703121 10731922 10765444 
2576.628 10803114 10843912 10886412 10928747 10969387 11007993 11045071 
2580.003 11081609 11119374 11159590 11202870 11249520 11299134 11351407 
2583.379 11405964 11462809 11521463 11581657 11643018 11705033 11767601 
2586.754 11830996 11895217 11960537 12026856 12093185 12158433 12221374 
2590.129 12281426 12338658 12394124 12448983 12504498 12561452 12619470 
2593.504 12677736 12735634 12792208 12847528 12902001 12956345 13011548 
2596.880 13068398 13127236 13188336 13251939 13318625 13388364 13461497 
2600.255 13538060 13617646 13699913 13784043 13869422 13955363 14041289 
2603.630 14126854 14211820 14296529 14381699 14468736 14559457 14655166 
2607.005 14757135 14865608 14980007 15099034 15220907 15343569 15465408 
2610.381 15584739 15700152 15810339 15914194 16010616 16099183 16179893 
2613.756 16252946 16318651 16377278 16428376 16471427 16505945 16531793 
2617.131 16549451 16560294 16565939 16568176 16568452 16567420 16565321 
2620.506 16562566 16558815 16554339 16549796 16545769 16542980 16542464 
2623.882 16545046 16551862 16564185 16583255 16609658 16643466 16683543 
2627.257 16728237 16775588 16824046 16872888 16922392 16973554 17027202 
2630.632 17084408 17145414 17209528 17276240 17344996 17415522 17487956 
2634.007 17562542 17639004 17717308 17796662 17876654 17956830 18037646 
2637.383 18119614 18203224 18288818 18376226 18464828 18554002 18643330 
2640.758 18732714 18822772 18913854 19006236 19099882 19193620 19286060 
2644.133 19376372 19463688 19547972 19629776 19710694 19791974 19874970 
2647.508 19960928 20050514 20144318 20242446 20344658 20450820 20560030 
2650.884 20671944 20785900 20901488 21018322 21136616 21256506 21378310 
2654.259 21502166 21628602 21757720 21889806 22025312 22164450 22307124 
2657.634 22453506 22602696 22754066 22906992 23060460 23213878 23366932 
2661.009 23519268 23670608 23821476 23971978 24122460 24273240 24424460 
2664.385 24575764 24726844 24876746 25025084 25171650 25316858 25461660 
2667.760 25607282 25754816 25905216 26058728 26215004 26373166 26532584 
2671.135 26692626 26852584 27012848 27173064 27333448 27494030 27654710 
2674.510 27814738 27973698 28130382 28283762 28432776 28576958 28716158 
2677.885 28851510 28984778 29118300 29254520 29395536 29542378 29695476 
2681.261 29854664 30019626 30190690 30368784 30555342 30752330 30961574 
2684.636 31184056 31420440 31670708 31934134 32210000 32497108 32794126 
2688.011 33100068 33413210 33732952 34058300 34389092 34725524 35067892 
2691.386 35416928 35772756 36135648 36505436 36882356 37266684 37659152 
2694.762 38060440 38471260 38891348 39320148 39756344 40198356 40644748 
2698.137 41094372 41546716 42001724 42459512 42920308 43384192 43850844 
2701.512 44319832 44790244 45260616 45729216 46194048 46653144 47104264 
2704.887 47545800 47975764 48391852 48791840 49172388 49529940 49860956 
2708.263 50162244 50431552 50668076 50871532 51042628 51182472 51291676 
2711.638 51370508 51419776 51439360 51429436 51390348 51322216 51224936 
2715.013 51098192 50941608 50754912 50538368 50292656 50019344 49720268 
2718.388 49397900 49054888 48694016 48318484 47931472 47536708 47138096 
2721.764 46739184 46344028 45956488 45580148 45218588 44875220 44552900 
2725.139 44253972 43980176 43732356 43510712 43314552 43143256 42996280 
2728.514 42873124 42773696 42697836 42645636 42616652 42610400 42626116 
2731.889 42662596 42718676 42792892 42883912 42990024 43109996 43242296 
2735.265 43385544 43538696 43700256 43868656 44042220 44218896 44396528 
2738.640 44573276 44747380 44917692 45083516 45244216 45399128 45547544 
2742.015 45688908 45823064 45950668 46073484 46193420 46313064 46434432 
2745.390 46558676 46686200 46816308 46948008 47080520 47213072 47345304 
2748.766 47476828 47607320 47736080 47862288 47985680 48106188 48224500 
2752.141 48342256 48460828 48582056 48707172 48837000 48972060 49113132 
2755.516 49260632 49415312 49577960 49748656 49926816 50111408 50300244 
2758.891 50490172 50678536 50861736 51036364 51199248 51347312 51477296 
2762.267 51586832 51673632 51735812 51771872 51781204 51763248 51718680 
2765.642 51648552 51554968 51440032 51307076 51158428 50997200 50826052 
2769.017 50647932 50465980 50283652 50104304 49931276 49767420 49614432 
2772.392 49473456 49344292 49226304 49119104 49022132 48934896 48856948 
2775.768 48787428 48724932 48667068 48610960 48552932 48488832 48414336 
2779.143 48325112 48216840 48086012 47930252 47748616 47542220 47313748 
2782.518 47067448 46808228 46541304 46271336 46002128 45736620 45477268 
2785.893 45225540 44982480 44748076 44522320 44303572 44090920 43882476 
2789.269 43677172 43474052 43273480 43075636 42881392 42691476 42506612 
2792.644 42327160 42154024 41987708 41828684 41677412 41533520 41396160 
2796.019 41263804 41134728 41007512 40880588 40753480 40625684 40497376 
2799.394 40368532 40238996 40108404 39976296 39842152 39705184 39564628 
2802.770 39419512 39268820 39111404 38946576 38774280 38595344 38411748 
2806.145 38226128 38041492 37860184 37684156 37514420 37351172 37194552 
2809.520 37044632 36901980 36766948 36640316 36522264 36412536 36310144 
2812.895 36213864 36122432 36035120 35951860 35872968 35799524 35732680 
2816.271 35673720 35623612 35583840 35555788 35541112 35541760 35559776 
2819.646 35597072 35655588 35736168 35839824 35966436 36115376 36285796 
2823.021 36476460 36685312 36909844 37147196 37393604 37644952 37897168 
2826.396 38145700 38386444 38615480 38829388 39024940 39199624 39351488 
2829.771 39479200 39582160 39661256 39717492 39752456 39768504 39767020 
2833.147 39749844 39718472 39674724 39620672 39559440 39494224 39428656 
2836.522 39365928 39307960 39255984 39210284 39171052 39138924 39115972 
2839.897 39104624 39108832 39132796 39180188 39255076 39360776 39501120 
2843.272 39680604 39905060 40180800 40514912 40913496 41379832 41912496 
2846.648 42504160 43140292 43797220 44444572 45047308 45566092 45964996 
2850.023 46214352 46293228 46194748 45924740 45501548 44951536 44307244 
2853.398 43603936 42873492 42145664 41445184 40790236 40193848 39663324 
2856.773 39200856 38804420 38468328 38185204 37946052 37741656 37564016 
2860.149 37405412 37259572 37121648 36988056 36856132 36725188 36595220 
2863.524 36467524 36343828 36226616 36118364 36021980 35940632 35877360 
2866.899 35835436 35818020 35827268 35864764 35930844 36024252 36142380 
2870.274 36281148 36435452 36598932 36764888 36926908 37078592 37216212 
2873.650 37337772 37444344 37539160 37627500 37715204 37807120 37906896 
2877.025 38016428 38136076 38265460 38404180 38552292 38710628 38880440 
2880.400 39062860 39258740 39467916 39689792 39922564 40164116 40411476 
2883.775 40660940 40908364 41149080 41377904 41590616 41783808 41956140 
2887.151 42107764 42241332 42360984 42471788 42579444 42690376 42809752 
2890.526 42944044 43099712 43283952 43505952 43776660 44108524 44516368 
2893.901 45015996 45622436 46349960 47208016 48198252 49310996 50523148 
2897.276 51795352 53069832 54280592 55352592 56211400 56799056 57075764 
2900.652 57029364 56675020 56053976 55225432 54253788 53207116 52145432 
2904.027 51115488 50154620 49287096 48527512 47883448 47356828 46946160 
2907.402 46647608 46456484 46368876 46381560 46493100 46703244 47012024 
2910.777 47418544 47919520 48508024 49173316 49899572 50666064 51449468 
2914.153 52221656 52953596 53617788 54188920 54647904 54983820 55194276 
2917.528 55284964 55267840 55158840 54974644 54729752 54436244 54101428 
2920.903 53729480 53321808 52879000 52402364 51895560 51364728 50819276 
2924.278 50271116 49732420 49215024 48728784 48279972 47872276 47506176 
2927.654 47180684 46893560 46642220 46424068 46236208 46074884 45935900 
2931.029 45813784 45702896 45597076 45490696 45378492 45256388 45121232 
2934.404 44971088 44805268 44624716 44431140 44227592 44017688 43805100 
2937.779 43594044 43388544 43192556 43010584 42847124 42706208 42591724 
2941.155 42506100 42449612 42420636 42415196 42426372 42445192 42461012 
2944.530 42461560 42433424 42364928 42245712 42069436 41835468 41548612 
2947.905 41219788 40863040 40495376 40132792 39788332 39471328 39186500 
2951.280 38934328 38712404 38516372 38341276 38181696 38033136 37891384 
2954.656 37752716 37614528 37474684 37331780 37185168 37034820 36881132 
2958.031 36724828 36566852 36408356 36250388 36094276 35941460 35793156 
2961.406 35650988 35516448 35390616 35274700 35169268 35074464 34989952 
2964.781 34915688 34851348 34797384 34755208 34726532 34713788 34718740 
2968.156 34742288 34784104 34842404 34914648 34997924 35090092 35189644 
2971.532 35296260 35410024 35531404 35660228 35795640 35935484 36076452 
2974.907 36213756 36340944 36449684 36530668 36573192 36566852 36503236 
2978.282 36376576 36185196 35932568 35626488 35277900 34900428 34508828 
2981.657 34116144 33734740 33374206 33040718 32737706 32465864 32222986 
2985.033 32005570 31809084 31629722 31464540 31312666 31174446 31050752 
2988.408 30942004 30845734 30756276 30664348 30557118 30419814 30239850 
2991.783 30007732 29720170 29381034 29001320 28597198 28186594 27786832 
2995.158 27411614 27068880 26760950 26485110 26236472 26008594 25795956 
2998.534 25595192 25404218 25222178 25049024 24883974 24725826 24573312 
3001.909 24424774 24279372 24136856 23997994 23863692 23735344 23613858 
3005.284 23499752 23392842 23292634 23198254 23109100 23024542 22944262 
3008.659 22868224 22796458 22728928 22665422 22605628 22548876 22494716 
3012.035 22442656 22392938 22345772 22302344 22263246 22229416 22201170 
3015.410 22178608 22161384 22149318 22141962 22139486 22141822 22149144 
3018.785 22160544 22175400 22191928 22208038 22221814 22231510 22235520 
3022.160 22233078 22224150 22208842 22188372 22164068 22137986 22112324 
3025.536 22089976 22073314 22064284 22064668 22074742 22094020 22120762 
3028.911 22152352 22185304 22215886 22240542 22256306 22261466 22255922 
3032.286 22241098 22219512 22193776 22166754 22140286 22115324 22092280 
3035.661 22070838 22050724 22032144 22015342 22001016 21989444 21981636 
3039.037 21977838 21978360 21983588 21993940 22009486 22030260 22055778 
3042.412 22085340 22118252 22153746 22191370 22230846 22272208 22314832 
3045.787 22358366 22401730 22443912 22484422 22522808 22559730 22596030 
3049.162 22633030 22671392 22711262 22752180 22793034 22832776 22870180 
3052.538 22904618 22935774 22963616 22988418 23010848 23031670 23051934 
3055.913 23072620 23094774 23118920 23145130 23173020 23202064 23231706 
3059.288 23262046 23293440 23327246 23364274 23405570 23451032 23500170 
3062.663 23551904 23604972 23658468 23712214 23766526 23822178 23879900 
3066.039 23940396 24003632 24069470 24137138 24206042 24275344 24344376 
3069.414 24412508 24479562 24544980 24608866 24670868 24731158 24789562 
3072.789 24846220 24901344 24955418 25009642 25064996 25122778 25184184 
3076.164 25249744 25319494 25392696 25468160 25544340 25619760 25693400 
3079.540 25764802 25833756 25900820 25966770 26032588 26098980 26166402 
3082.915 26235102 26304550 26373696 26441546 26507226 26570168 26630792 
3086.290 26690158 26750098 26812298 26878456 26949138 27024696 27104676 
3089.665 27188338 27274806 27363372 27453368 27544406 27635816 27726894 
3093.041 27817354 27906630 27994690 28081776 28168492 28255224 28342576 
3096.416 28431044 28520588 28611708 28704548 28799176 28895810 28994234 
3099.791 29094276 29195440 29297230 29399612 29502194 29605050 29707894 
3103.166 29810444 29912342 30013022 30112376 30210546 30308024 30405706 
3106.542 30504440 30605042 30707696 30812474 30919092 31027230 31136178 
3109.917 31245402 31353976 31461262 31566222 31668640 31768728 31867702 
3113.292 31967018 32068246 32172352 32279376 32388318 32497536 32605174 
3116.667 32710482 32813456 32915276 33017584 33122384 33230394 33341900 
3120.042 33456116 33571724 33687544 33802568 33916516 34029164 34140984 
3123.418 34252116 34362772 34473312 34583880 34694660 34805860 34917088 
3126.793 35028524 35139704 35250516 35360852 35470928 35580996 35690768 
3130.168 35800532 35909572 36017336 36123836 36229388 36334788 36441720 
3133.543 36551640 36665664 36784580 36907932 37034712 37163800 37293688 
3136.919 37422964 37550868 37676788 37800612 37922480 38043008 38163172 
3140.294 38283768 38405592 38528356 38651736 38774388 38894860 39012580 
3143.669 39127104 39239300 39350616 39462948 39577008 39693860 39812920 
3147.044 39933828 40055896 40179384 40304468 40432348 40563656 40698748 
3150.420 40836868 40976632 41116224 41253820 41388396 41519700 41648304 
3153.795 41775456 41902240 42029976 42158880 42288920 42419140 42549072 
3157.170 42677692 42804776 42930476 43055952 43181976 43310048 43440692 
3160.545 43574412 43710552 43848572 43987108 44125216 44262040 44397040 
3163.921 44529880 44660596 44789104 44915892 45041612 45166852 45292280 
3167.296 45418404 45545152 45671864 45797808 45921608 46042428 46160072 
3170.671 46274248 46385392 46493692 46599208 46701916 46801472 46897804 
3174.046 46990980 47081740 47170412 47257256 47342344 47425084 47504696 
3177.422 47580924 47653760 47724096 47793040 47861732 47931064 48001372 
3180.797 48072652 48144868 48218284 48293300 48370516 48450120 48532104 
3184.172 48615184 48698464 48780164 48859620 48936712 49011932 49085712 
3187.547 49158656 49230832 49302128 49372136 49440744 49508212 49575284 
3190.923 49642736 49710944 49780240 49850364 49921352 49992948 50065520 
3194.298 50139040 50213536 50288300 50362492 50434680 50504124 50570460 
3197.673 50634268 50696372 50757968 50819424 50880548 50940044 50996792 
3201.048 51049856 51098976 51144524 51187764 51229896 51272060 51315500 
3204.424 51361000 51409148 51460732 51515384 51572132 51629296 51684864 
3207.799 51736372 51783144 51825740 51866212 51907584 51952580 52002364 
3211.174 52056260 52111696 52165608 52214896 52258428 52296320 52330444 
3214.549 52363528 52397620 52434068 52473400 52514904 52557796 52601368 
3217.925 52645164 52688776 52731840 52774228 52815872 52857520 52900148 
3221.300 52945024 52993648 53046696 53103792 53163820 53225204 53286068 
3224.675 53345600 53403332 53459656 53515308 53570552 53625248 53679084 
3228.050 53731652 53782428 53831744 53880132 53928296 53976844 54026188 
3231.426 54076620 54128376 54181748 54237116 54294900 54354712 54416264 
3234.801 54478652 54541388 54603940 54666844 54730280 54794480 54859476 
3238.176 54924408 54988708 55051628 55113696 55175728 55240068 55307956 
3241.551 55379956 55455432 55531936 55606840 55677944 55744316 55807384 
3244.927 55869520 55934000 56003276 56078784 56160264 56246436 56335380 
3248.302 56425772 56516412 56606768 56695940 56783196 56867112 56946624 
3251.677 57020672 57089292 57153236 57214544 57274876 57336048 57398740 
3255.052 57462996 57527904 57592176 57654640 57714884 57772788 57829072 
3258.427 57884492 57940148 57996640 58054092 58111928 58168748 58223040 
3261.803 58273320 58318184 58357448 58391100 58420100 58445612 58468772 
3265.178 58490076 58510052 58528632 58545692 58561052 58574664 58586800 
3268.553 58597072 58605644 58612316 58616716 58618648 58618196 58615236 
3271.928 58610236 58603404 58594876 58585356 58575040 58564464 58554304 
3275.304 58545048 58537240 58531136 58526660 58523400 58521280 58519384 
3278.679 58516804 58513240 58507780 58499820 58489508 58477184 58463880 
3282.054 58451332 58441172 58434656 58432684 58435108 58441516 58450612 
3285.429 58461680 58473736 58486400 58499060 58511384 58522908 58533220 
3288.805 58542056 58550132 58558816 58569620 58584824 58605720 58632836 
3292.180 58666588 58706144 58751284 58801932 58858536 58921680 58991928 
3295.555 59068644 59151292 59237376 59325412 59413428 59500516 59586248 
3298.930 59671508 59757008 59843672 59932172 60023168 60117072 60214612 
3302.306 60316936 60425032 60540240 60663100 60793880 60931908 61076236 
3305.681 61225456 61378236 61533628 61691256 61851764 62015772 62184548 
3309.056 62358776 62539012 62724532 62914224 63107060 63301712 63498020 
3312.431 63696532 63897820 64103156 64312436 64525156 64740284 64956068 
3315.807 65171220 65385484 65598764 65811656 66024496 66237516 66449872 
3319.182 66660896 66869980 67077040 67283112 67488704 67694656 67900520 
3322.557 68104920 68306368 68503088 68694240 68879952 69061640 69240400 
3325.932 69417520 69593128 69767088 69938592 70107128 70272368 70433904 
3329.308 70591248 70742912 70886800 71020576 71142216 71250272 71344800 
3332.683 71426464 71495984 71553920 71600264 71634528 71656416 71666184 
3336.058 71665408 71655592 71638752 71615344 71584752 71545056 71494192 
3339.433 71430176 71352144 71259880 71153896 71034072 70899976 70750288 
3342.809 70584352 70401448 70202536 69988920 69762808 69525576 69277944 
3346.184 69019528 68749240 68466312 68171016 67864256 67548264 67225664 
3349.559 66898660 66569008 66238096 65906436 65574332 65241716 64908200 
3352.934 64572864 64235016 63893980 63550108 63204700 62860184 62519608 
3356.310 62186192 61861736 61547184 61242316 60945976 60656584 60373552 
3359.685 60096372 59825228 59560560 59302436 59051140 58806596 58568860 
3363.060 58338308 58115220 57899524 57690816 57488676 57292188 57101008 
3366.435 56915952 56737996 56568496 56409208 56259976 56119580 55986124 
3369.811 55856708 55728532 55599568 55468496 55334152 55195744 55052380 
3373.186 54902488 54745424 54580532 54407740 54228184 54042468 53851324 
3376.561 53654040 53449424 53235164 53009256 52769252 52514196 52243032 
3379.936 51955680 51652660 51334964 51003608 50660180 50305860 49941724 
3383.312 49568264 49185632 48793548 48392372 47983016 47567208 47147700 
3386.687 46727336 46308160 45891484 45476860 45063736 44649980 44234564 
3390.062 43816788 43397004 42976164 42555980 42138104 41724896 41317876 
3393.437 40918560 40527896 40145836 39771376 39402968 39038352 38676072 
3396.813 38314928 37955420 37598160 37244624 36895088 36549588 36206772 
3400.188 35864944 35522524 35178828 34834400 34490892 34149620 33812168 
3403.563 33478734 33149026 32821496 32495574 32170888 31847804 31527418 
3406.938 31211080 30899202 30591960 30288236 29986642 29686040 29385254 
3410.313 29084428 28784378 28486338 28192004 27902780 27619786 27343434 
3413.689 27073958 26810288 26552062 26298356 26048736 25802636 25560296 
3417.064 25321708 25086690 24855166 24626608 24400486 24176896 23956048 
3420.439 23738704 23526264 23319416 23119236 22925470 22737586 22553972 
3423.814 22373504 22194892 22017398 21840812 21665310 21491130 21318902 
3427.190 21148860 20981566 20817184 20655890 20497364 20340978 20185760 
3430.565 20030458 19874068 19716380 19557400 19398408 19240546 19085548 
3433.940 18934412 18788138 18646272 18508600 18373944 18241544 18109768 
3437.315 17977896 17844856 17709922 17572478 17432766 17290894 17147652 
3440.691 17004014 16861246 16720248 16582394 16448129 16317826 16191173 
3444.066 16067034 15943892 15820201 15694622 15566880 15437838 15309142 
3447.441 15183469 15062945 14948284 14839207 14733483 14628846 14522968 
3450.816 14414649 14303891 14191690 14079414 13968092 13857722 13747756 
3454.192 13637031 13525412 13413344 13302465 13194621 13091618 12994102 
3457.567 12901558 12812240 12723862 12634172 12541806 12446187 12347350 
3460.942 12246389 12144497 12043071 11943951 11848361 11757353 11671709 
3464.317 11590336 11512039 11434879 11356747 11276588 11194268 11110910 
3467.693 11028316 10947708 10869901 10794078 10718947 10642268 10562547 
3471.068 10478835 10391338 10301348 10210698 10121593 10035695 9954762 
3474.443 9879844 9811413 9749464 9693081 9640703 9590601 9540741 9489804 
3478.301 9436976 9382022 9325821 9268985 9212258 9156114 9101027 9047265 
3482.158 8995708 8946898 8901408 8859371 8819942 8782038 8744105 8704822 
3486.015 8663852 8621872 8580167 8540460 8504743 8474030 8449467 8431460 
3489.873 8420210 8415380 8416291 8421393 8428622 8435244 8439028 8438116 
3493.730 8432474 8423150 8412745 8404468 8401022 8404705 8416899 8437710 
3497.588 8467171 8504641 8549483 8600580 8656821 8716349 8777812 8840434 
3501.445 8903471 8967700 9034341 9104647 9179837 9260896 9347996 9441378 
3505.302 9541317 9647681 9760647 9879607 10003347 10130072 10258837 10388521 
3509.160 10520077 10655749 10798222 10949951 11112032 11283355 11461108 
3512.535 11641350 11820134 11994462 12162692 12324341 12479365 12628715 
3515.910 12772622 12911593 13046271 13177304 13305608 13431045 13552417 
3519.286 13667497 13772722 13864290 13939111 13995535 14032596 14051179 
3522.661 14051726 14034786 13999675 13945886 13871747 13776861 13660453 
3526.036 13523053 13365299 13188746 12994922 12786271 12565715 12336476 
3529.411 12101668 11864024 11625081 11386372 11148133 10910807 10674256 
3532.787 10438207 10201878 9963746 9721611 9474022 9219739 8959549 8696201 
3536.644 8434197 8178427 7933134 7701470 7484020 7279684 7086323 6901060 
3540.501 6721327 6544797 6369819 6194507 6017956 5838857 5657180 5473465 
3544.359 5289023 5105933 4926942 4754288 4590577 4437572 4296334 4166548 
3548.216 4047604 3936650 3830337 3724819 3616520 3503071 3384141 3260938 
3552.074 3137102 3016137 2901410 2794383 2695418 2602842 2514884 2430010 
3555.931 2347051 2265741 2186376 2109191 2034482 1962250 1892525 1825208 
3559.789 1759963 1696392 1633794 1571604 1508492 1444027 1377908 1310238 
3563.646 1241050 1170079 1096330 1018507 934954 845209 750205 653563 560227 
3567.986 474772 400808 339358 288859 246156 207568 170242 131661 91028 47682 
3572.807 2352 -44629 -92467 -140333 -187531 -233432 -277673 -320619 -363129 
3577.147 -406331 -450488 -495336 -539087 -579922 -615227 -643416 -664756 
3581.004 -680669 -693769 -706373 -720465 -736706 -754336 -773057 -792670 
3584.862 -814531 -841319 -876405 -922333 -979761 -1045940 -1115712 -1181574 
3588.719 -1237514 -1279274 -1306727 -1322220 -1330841 -1338042 -1348646 
3592.094 -1365987 -1391221 -1423191 -1459418 -1496270 -1530643 -1560292 
3595.470 -1585118 -1605421 -1623115 -1639620 -1656223 -1673255 -1690616 
3598.845 -1707845 -1724775 -1740286 -1754213 -1765829 -1774178 -1779061 
3602.220 -1780810 -1780348 -1779490 -1780348 -1785100 -1795527 -1812356 
3605.595 -1836310 -1866862 -1903580 -1944848 -1988915 -2032878 -2072814 
3608.971 -2105361 -2128145 -2141169 -2147499 -2151950 -2160226 -2177304 
3612.346 -2205260 -2242049 -2282559 -2319736 -2346926 -2360470 -2360602 
3615.721 -2350814 -2337303 -2326460 -2324186 -2333974 -2356680 -2389897 
3619.096 -2429010 -2468152 -2501328 -2524454 -2535983 -2536345 -2528571 
3622.472 -2516020 -2502481 -2489435 -2477344 -2464627 -2449702 -2432140 
3625.847 -2414347 -2401793 -2403441 -2428746 -2483900 -2567276 -2667760 
3629.222 -2766510 -2844170 -2889495 -2902134 -2890054 -2865006 -2837915 
3632.597 -2816551 -2804107 -2800091 -2800881 -2802987 -2803613 -2802164 
3635.973 -2799333 -2796963 -2796041 -2796502 -2797720 -2798807 -2799169 
3639.348 -2799169 -2799893 -2801901 -2805555 -2809967 -2813357 -2813588 
3642.723 -2809111 -2799531 -2786066 -2771086 -2757521 -2749027 -2748665 
3646.098 -2758674 -2780699 -2814707 -2859575 -2913258 -2972596 -3033866 
3649.474 -3092167 -3142401 -3178880 -3196872 -3193945 -3170459 -3130789 
3652.849 -3081277 -3031398 -2990859 -2967857 -2968515 -2993327 -3036762 
3656.224 -3087561 -3133190 -3163355 -3173190 -3164539 -3142861 -3116117 
3659.599 -3090522 -3070749 -3058346 -3053015 -3052851 -3055483 -3059004 
3662.975 -3061340 -3061175 -3057326 -3049001 -3036104 -3018928 -2999185 
3666.350 -2979638 -2963908 -2956174 -2960913 -2981119 -3017644 -3067393 
3669.725 -3122038 -3169177 -3197168 -3197793 -3170558 -3122301 -3065748 
3673.100 -3017282 -2992439 -3004219 -3057358 -3144901 -3246765 -3337557 
3676.476 -3397559 -3419290 -3408310 -3376749 -3337984 -3301453 -3272218 
3679.851 -3250514 -3234333 -3220454 -3207364 -3194142 -3181544 -3168979 
3683.226 -3155032 -3136841 -3111709 -3079007 -3041500 -3005042 -2977828 
3686.601 -2968515 -2982665 -3021132 -3077724 -3141414 -3199700 -3242752 
3689.977 -3266760 -3273402 -3267845 -3255348 -3240648 -3226539 -3213843 
3693.352 -3202562 -3192662 -3183682 -3174736 -3165065 -3153124 -3137828 
3696.727 -3118222 -3094996 -3070025 -3046172 -3026890 -3015539 -3014486 
3700.102 -3024620 -3045086 -3073052 -3104307 -3133716 -3156940 -3170722 
3703.478 -3173222 -3165262 -3148453 -3125887 -3100556 -3075224 -3051568 
3706.853 -3030707 -3012380 -2996552 -2982994 -2972596 -2967495 -2970621 
3710.228 -2984574 -3010537 -3046994 -3089140 -3129901 -3161809 -3178847 
3713.603 -3179209 -3164177 -3138486 -3107662 -3077329 -3051831 -3033109 
3716.979 -3021034 -3013729 -3008727 -3004219 -2999547 -2996091 -2995664 
3720.354 -3000040 -3009780 -3023172 -3037058 -3047751 -3052127 -3049265 
3723.729 -3041171 -3031760 -3025344 -3025870 -3034129 -3048376 -3063708 
3727.104 -3074401 -3075355 -3064663 -3043638 -3016559 -2989247 -2967659 
3730.479 -2955779 -2954496 -2960814 -2969930 -2975887 -2975985 -2971674 
3733.855 -2968778 -2975228 -2996914 -3035577 -3086212 -3138848 -3181906 
3737.230 -3207364 -3211936 -3198155 -3170098 -3132532 -3088581 -3039427 
3740.605 -2986515 -2933203 -2885677 -2854736 -2852992 -2891075 -2971806 
3743.980 -3083284 -3199339 -3287674 -3326312 -3312271 -3258735 -3186445 
3747.356 -3114899 -3060780 -3032747 -3033011 -3056766 -3095819 -3140690 
3750.731 -3184373 -3222723 -3252619 -3270213 -3271627 -3253769 -3217494 
3754.106 -3167170 -3111314 -3059629 -3020145 -2998461 -2995565 -3008365 
3757.481 -3031036 -3057589 -3083482 -3105886 -3123848 -3135986 -3139769 
3760.857 -3133157 -3114801 -3086113 -3052325 -3020408 -2998000 -2990135 
3764.232 -2998296 -3018467 -3043276 -3063741 -3073809 -3072032 -3062096 
3767.607 -3050581 -3044329 -3048080 -3062359 -3084041 -3106938 -3124111 
3770.982 -3131282 -3125953 -3109044 -3083120 -3052127 -3019290 -2987963 
3774.358 -2960551 -2939061 -2923955 -2916089 -2915529 -2922573 -2937317 
3777.733 -2959432 -2987766 -3019290 -3049857 -3074270 -3087956 -3089239 
3781.108 -3079205 -3061471 -3041138 -3023074 -3010701 -3004713 -3004055 
3784.483 -3006029 -3008003 -3008464 -3007082 -3004515 -3001488 -2998362 
3787.859 -2994282 -2988720 -2981185 -2972135 -2963118 -2955681 -2950645 
3791.234 -2947387 -2944195 -2938897 -2929978 -2917767 -2905162 -2896078 
3794.609 -2894597 -2902661 -2919775 -2940904 -2959367 -2968976 -2966277 
3797.984 -2952587 -2932940 -2916023 -2911284 -2926621 -2965191 -3022777 
3801.360 -3088318 -3144868 -3177499 -3177893 -3146907 -3093318 -3029358 
3804.735 -2969502 -2925963 -2906610 -2913193 -2940081 -2975426 -3005502 
3808.110 -3020770 -3018566 -3001784 -2976347 -2948078 -2920466 -2894169 
3811.485 -2867837 -2840285 -2812304 -2788370 -2775827 -2782510 -2814444 
3814.861 -2871128 -2944162 -3016690 -3070025 -3090522 -3075059 -3031760 
3818.236 -2975459 -2924613 -2894893 -2897197 -2934092 -2997835 -3071506 
3821.611 -3134210 -3170098 -3173025 -3147368 -3103583 -3054299 -3009978 
3824.986 -2976446 -2954858 -2942089 -2932314 -2920137 -2902200 -2878897 
3828.362 -2854275 -2833373 -2820567 -2818822 -2827710 -2844334 -2864512 
3831.737 -2883669 -2898481 -2907400 -2910263 -2908157 -2902364 -2894695 
3835.112 -2887125 -2882122 -2881990 -2888968 -2903845 -2925271 -2949592 
3838.487 -2972069 -2988062 -2994841 -2991781 -2980559 -2964303 -2946071 
3841.863 -2928628 -2914180 -2903483 -2896275 -2891239 -2886763 -2880904 
3845.238 -2872248 -2859970 -2844268 -2826295 -2807201 -2787547 -2767267 
3848.613 -2744911 -2719064 -2689231 -2657321 -2629394 -2615693 -2628669 
3851.988 -2680735 -2777407 -2911382 -3059727 -3191741 -3280834 -3315526 
3855.364 -3300367 -3249100 -3178222 -3100490 -3025147 -2957589 -2899204 
3858.739 -2851016 -2813226 -2785737 -2768715 -2761571 -2762789 -2770164 
3862.114 -2781062 -2793934 -2807201 -2820666 -2832879 -2841767 -2843248 
3865.489 -2834294 -2813127 -2782049 -2747216 -2718010 -2703753 -2712380 
3868.865 -2746294 -2800321 -2862011 -2916188 -2951402 -2963842 -2957787 
3872.240 -2941891 -2925633 -2915562 -2913193 -2915661 -2916681 -2910626 
3875.615 -2893708 -2866257 -2831891 -2796436 -2765588 -2744648 -2737437 
3878.990 -2745109 -2766411 -2796766 -2829784 -2857501 -2874058 -2876592 
3882.365 -2866454 -2849568 -2833373 -2826657 -2835282 -2860529 -2896999 
3885.741 -2933927 -2958642 -2961341 -2939061 -2896078 -2841800 -2787185 
3889.116 -2742541 -2715409 -2708889 -2720809 -2745010 -2772436 -2794592 
3892.491 -2805457 -2803119 -2788206 -2764139 -2734309 -2702337 -2671021 
3895.866 -2642600 -2618855 -2600971 -2590267 -2587335 -2592342 -2604528 
3899.242 -2622148 -2642666 -2663315 -2681789 -2696838 -2708988 -2719591 
3902.617 -2731181 -2744812 -2760682 -2776946 -2790379 -2797523 -2796140 
3905.992 -2785901 -2768320 -2746327 -2723246 -2701876 -2683831 -2669473 
3909.367 -2658507 -2650241 -2643852 -2638714 -2634235 -2629229 -2622840 
3912.743 -2613552 -2601136 -2586578 -2572612 -2562862 -2561083 -2569318 
3916.118 -2587796 -2613585 -2641546 -2666377 -2683831 -2692326 -2691964 
3919.493 -2685181 -2674610 -2662228 -2649648 -2637627 -2626957 -2618526 
3922.868 -2613651 -2612861 -2616253 -2621918 -2627286 -2629328 -2625903 
3926.244 -2616517 -2602519 -2586742 -2571558 -2559305 -2550609 -2545305 
3929.619 -2543197 -2543691 -2547314 -2554759 -2566387 -2581341 -2597315 
3932.994 -2611642 -2620963 -2623663 -2619975 -2612004 -2602782 -2595009 
3936.369 -2590333 -2588686 -2588224 -2586578 -2581472 -2572118 -2558745 
3939.745 -2543329 -2528472 -2516580 -2509629 -2508608 -2512858 -2521324 
3943.120 -2531602 -2541484 -2548599 -2551531 -2549785 -2543856 -2535522 
3946.495 -2526496 -2518623 -2512858 -2509201 -2506895 -2504886 -2502579 
3949.870 -2499483 -2496155 -2493685 -2492630 -2493157 -2494739 -2496913 
3953.246 -2498396 -2498857 -2498396 -2497012 -2494969 -2491807 -2486733 
3956.621 -2478431 -2466142 -2449504 -2429570 -2408120 -2387624 -2370521 
3959.996 -2358592 -2352396 -2351869 -2355988 -2362810 -2370587 -2377540 
3963.371 -2381956 -2383175 -2380572 -2374377 -2365545 -2355329 -2344817 
3966.747 -2335523 -2328108 -2322933 -2319704 -2317858 -2316968 -2316045 
3970.122 -2314859 -2312947 -2310376 -2307641 -2305334 -2304049 -2304312 
3973.497 -2305960 -2308267 -2309816 -2308531 -2303257 -2293139 -2278999 
3976.872 -2262650 -2246466 -2232621 -2222303 -2215974 -2212512 -2210568 
3980.248 -2208985 -2207337 -2206150 -2206381 -2208985 -2214326 -2221743 
3983.623 -2229918 -2237104 -2241818 -2243367 -2241455 -2236775 -2230248 
3986.998 -2223226 -2216963 -2212677 -2211326 -2213337 -2218545 -2225468 
3990.373 -2232753 -2238489 -2241159 -2240433 -2237038 -2232621 -2228896 
3993.749 -2227215 -2228336 -2231632 -2236115 -2240236 -2243631 -2246103 
3997.124 -2248048 -2250026 -2252136 -2254146 -2255432 -2255629 -2254772 
4000.499 -2253783 
##END=
