
##TITLE=1675_2_c
##JCAMP-DX=5.01  $$ Nicolet v. 1
##DATATYPE=INFRARED SPECTRUM
##ORIGIN=UniL
##OWNER=Nicolet
##LONGDATE=2011/09/16
##TIME=11:43:08
##SPECTROMETER/DATA SYSTEM=Nicolet iS5
##DATA PROCESSING=
Ratio against background
%Transmittance->Absorbance
Truncated
ElementMultiply or ElementDivide
##COMMENTS=
Number of sample scans: 32
Collection length: 51.15 sec
Sample gain: 2.0
Background collected on: Ven Sep 16 11:34:41 2011 (GMT+02:00);
Number of background scans: 32
Background gain: 2.0
Sample spacing:  1.000
Number of scan points: 12415
Resolution points: 8192
Number of FFT points: 65536
Apodization: N-B fort;
Phase correction: Mertz;
Laser frequency: 15798.0 cm-1
Number of rejected sample scans: 0
Number of rejected background scans: 0
Bench serial number: ASB1000141;
##RESOLUTION=4.000
##XUNITS=1/CM
##YUNITS=ABSORBANCE
##FIRSTX=649.893372
##LASTX=4000.122314
##FIRSTY=0.077389
##MAXX=4000.122314
##MINX=649.893372
##MAXY=0.254555
##MINY=-0.001506
##XFACTOR=1.000000
##YFACTOR=1.000000E-009
##NPOINTS=6950
##DELTAX=0.482117
##ZPD=6100
##XYDATA=(X++(Y..Y))
649.893 77389216 77007512 76679424 76450472 76336424 76329936 76411512 
653.268 76565032 76789024 77095072 77495472 77992664 78569984 79197456 
656.643 79845824 80501552 81175360 81898744 82708672 83627352 84655192 
660.018 85772528 86953352 88183176 89469464 90834224 92303056 93883512 
663.393 95557440 97282888 99014392 100716728 102365488 103944792 105423840 
666.767 106733488 107768296 108418384 108634152 108460704 108007024 
669.660 107375320 106617584 105737056 104712800 103528264 102192472 
672.553 100748192 99257472 97787752 96386688 95072232 93840168 92677776 
675.928 91578592 90547968 89599152 88742840 87976648 87283216 86634776 
679.302 86001320 85362336 84710280 84048048 83381816 82716048 82049776 
682.677 81379232 80703960 80030840 79372368 78745512 78161968 77624008 
686.052 77124112 76649144 76186336 75728912 75277416 74837368 74413096 
689.427 74004216 73603296 73199840 72785392 72357720 71922656 71491616 
692.802 71076304 70685400 70322080 69986160 69677808 69400968 69164936 
696.177 68982560 68865712 68823272 68857792 68967216 69146368 69390544 
699.551 69696672 70062504 70484136 70954632 71461928 71991168 72527984 
702.926 73061384 73586840 74104688 74617888 75127312 75629800 76117872 
706.301 76583488 77020560 77428936 77813472 78183072 78546840 78911544 
709.676 79284024 79673872 80097736 80584192 81169728 81891544 82778144 
713.051 83834112 85030544 86298616 87543040 88649560 89506800 90036696 
716.425 90203096 90027200 89580424 88981208 88374376 87899280 87683232 
719.800 87815272 88333480 89224024 90417584 91800024 93209840 94468200 
723.175 95401472 95857088 95746752 95062176 93885864 92370104 90713184 
726.550 89118856 87739032 86665280 85917200 85459384 85224864 85143232 
729.925 85162224 85248536 85385768 85564400 85772208 85992392 86208408 
733.300 86408808 86592432 86767312 86944808 87132472 87329640 87528248 
736.674 87719640 87899280 88071800 88248496 88440616 88653632 88882968 
740.049 89116048 89338304 89541776 89728360 89908376 90094424 90294992 
743.424 90509528 90730048 90946344 91152416 91351096 91551432 91763520 
746.799 91992040 92233192 92476528 92711008 92930920 93138840 93343608 
750.174 93554192 93772640 93992440 94201072 94387816 94549632 94694696 
753.548 94837208 94991408 95162400 95343856 95520776 95678184 95809824 
756.923 95922176 96031072 96154008 96302136 96475344 96664520 96857664 
760.298 97049280 97242024 97446456 97672512 97923856 98195440 98476968 
763.673 98760760 99049400 99357840 99710648 100133624 100645248 101254288 
767.048 101960432 102758064 103639800 104597864 105622944 106707592 
769.940 107856168 109102080 110528512 112263808 114464456 117266224 
772.833 120705032 124651008 128753352 132499664 135254528 136420592 
775.726 135636432 132853688 128386440 122783184 116728504 110844504 
778.619 105555216 101088368 97455328 94528008 92105248 89996584 88062792 
781.993 86221264 84445536 82741216 81128544 79631040 78272376 77078096 
785.368 76072192 75276200 74704336 74361152 74244304 74350184 74680640 
788.743 75247752 76072624 77179520 78592696 80330448 82407096 84838392 
792.118 87644792 90851296 94480312 98535584 102985816 107743200 112664400 
795.493 117544632 122116864 126094136 129169288 131045896 131498648 
798.385 130389512 127713264 123603632 118330040 112257664 105769816 99258720 
801.760 93054104 87386856 82404488 78152888 74600064 71659816 69224968 
805.135 67194920 65489956 64067864 62918128 62050556 61477052 61193752 
808.510 61166324 61329388 61586352 61823148 61936476 61838544 61476136 
811.885 60833332 59924112 58785236 57463072 56011344 54483460 52929040 
815.259 51397248 49930236 48562084 47318440 46213652 45251940 44430988 
818.634 43744668 43186700 42751760 42436784 42239028 42156360 42186556 
822.009 42329496 42589128 42974148 43498920 44180308 45032352 46062244 
825.384 47263500 48612704 50062512 51542728 52963364 54210540 55167488 
828.759 55727968 55810252 55383756 54473808 53165916 51582728 49871808 
832.133 48182072 46632264 45309492 44258556 43482588 42950700 42605468 
835.508 42378408 42191596 41972456 41666832 41240628 40688920 40033588 
838.883 39318228 38594332 37909752 37301992 36789268 36373840 36045708 
842.258 35790636 35595308 35449356 35346508 35282680 35253712 35255796 
845.633 35286452 35345072 35433248 35553740 35708000 35893556 36104644 
849.008 36333452 36573520 36822228 37082668 37361860 37669164 38012268 
852.382 38395564 38820328 39286816 39795196 40348640 40951580 41609904 
855.757 42329532 43115412 43973764 44912952 45944444 47083844 48348816 
859.132 49756536 51323628 53065640 54995816 57127196 59466924 62011112 
862.507 64732136 67572152 70437960 73194544 75689552 77765232 79275120 
865.882 80117936 80244232 79669096 78467040 76770360 74754040 72600112 
869.256 70496688 68610416 67064240 65946116 65298280 65120832 65376968 
872.631 65998420 66894100 67945344 69020808 69986160 70704392 71065720 
876.006 70996384 70468048 69502904 68166208 66556804 64781828 62950604 
879.381 61162776 59494436 58005160 56735808 55709512 54936816 54415964 
882.756 54134568 54069416 54188352 54454576 54825412 55258996 55719076 
886.131 56175272 56611640 57028608 57445184 57895396 58422940 59073804 
889.505 59882688 60867980 62027316 63340664 64775020 66293208 67863632 
892.880 69460992 71067672 72671240 74258608 75812272 77308408 78710480 
896.255 79969248 81023440 81794168 82197640 82156000 81606048 80520976 
899.630 78916864 76858032 74444096 71801536 69071464 66380724 63842124 
903.005 61544280 59543152 57870712 56535888 55529564 54830004 54408076 
906.379 54234000 54278940 54521024 54947680 55553176 56337680 57303496 
909.754 58451748 59781384 61288104 62963480 64794480 66758992 68821872 
913.129 70936024 73042056 75074016 76976816 78711872 80269384 81670024 
916.504 82964728 84225928 85532568 86967968 88603528 90487320 92639312 
919.879 95038952 97623600 100281488 102871504 105243264 107256792 108826608 
923.254 109939616 110671272 111171624 111654552 112372584 113559880 
926.146 115422520 118101280 121643960 125992176 130960496 136255376 
929.039 141443632 145998768 149381152 151049136 150588192 147787600 
931.932 142672192 135524112 126825808 117217096 107347320 97801368 89065160 
935.306 81444976 75103048 70080608 66329420 63755624 62248632 61707064 
938.681 62031672 63114724 64831220 67004196 69402440 71767256 73808680 
942.056 75266264 75957376 75790968 74795368 73098472 70911248 68469224 
945.431 65993516 63671632 61621904 59902428 58521848 57455204 56661128 
948.806 56093524 55713052 55484196 55376456 55363620 55420724 55525688 
952.181 55661596 55816204 55983412 56161964 56353488 56560568 56785236 
955.555 57028948 57292416 57576436 57882484 58211596 58564616 58940880 
958.930 59338024 59753700 60184852 60630296 61090500 61566996 62061484 
962.305 62574832 63106180 63653564 64214468 64787596 65373076 65972656 
965.680 66588432 67221752 67872160 68537736 69216232 69906216 70608208 
969.055 71324616 72058712 72813296 73589592 74387264 75205672 76044832 
972.429 76906872 77795872 78716320 79672200 80665296 81695296 82760744 
975.804 83861080 84997456 86173256 87393336 88662448 89985248 91365784 
979.179 92809624 94325024 95923816 97621320 99432816 101371240 103444376 
982.554 105653416 107992656 110448816 113000816 115615376 118241888 
985.447 120814112 123243248 125425192 127258688 128648040 129524096 
988.339 129855232 129649656 128956672 127857072 126464608 124907504 
991.232 123315152 121817528 120520136 119500208 118807016 118457200 
994.125 118444664 118748040 119342080 120201888 121306792 122640864 
997.017 124189360 125936152 127864896 129957080 132194712 134560320 
999.910 137031824 139578912 142160752 144718448 147182544 149482480 
1002.803 151551008 153340560 154828704 156019632 156942736 157649632 
1005.695 158212464 158712096 159238160 159881616 160718368 161808992 
1008.588 163189824 164872432 166848576 169097648 171597520 174326304 
1011.481 177266352 180402656 183716960 187187328 190790000 194499664 
1014.374 198294224 202152624 206045024 209925504 213719824 217316816 
1017.266 220585488 223383568 225580176 227089040 227878064 227982896 
1020.159 227498384 226579568 225426208 224247024 223263280 222671328 
1023.052 222614432 223184336 224403904 226236896 228595808 231364576 
1025.945 234418832 237624144 240854768 243988384 246896512 249460192 
1028.838 251572080 253147600 254142944 254554832 254418784 253793360 
1031.731 252752544 251374992 249732448 247895440 245925056 243862368 
1034.624 241723424 239486128 237092496 234448592 231446208 227986880 
1037.517 223989952 219414224 214257440 208552912 202362960 195773632 
1040.410 188896208 181851744 174770640 167783584 160997264 154496736 
1043.303 148337936 142546816 137131952 132092208 127423824 123126472 
1046.196 119202936 115656712 112490336 109702768 107288560 105238456 
1049.089 103540168 102178888 101136040 100389864 99915456 99683680 99666168 
1052.464 99835224 100164544 100630496 101207024 101861224 102553544 
1055.357 103231640 103833592 104298312 104564648 104581888 104317104 
1058.250 103754360 102900104 101781888 100452664 98985344 97466648 95997464 
1061.626 94675248 93585880 92803024 92375680 92330928 92674664 93393032 
1065.001 94453992 95807176 97390888 99127320 100927984 102707688 104382120 
1068.376 105879856 107150424 108158480 108884760 109321936 109469328 
1071.269 109332752 108922784 108257568 107361448 106264248 105004408 
1074.162 103625496 102177928 100723664 99327648 98059216 96986856 96164144 
1077.538 95629488 95399664 95469040 95812304 96387928 97146200 98025944 
1080.913 98957632 99870000 100683464 101324416 101737488 101893864 101805600 
1084.288 101526712 101156120 100818640 100651128 100795408 101368888 
1087.181 102460120 104118976 106345928 109087512 112228664 115609192 
1090.074 119015936 122204696 124945408 127026784 128297208 128686368 
1092.967 128202440 126931024 125009032 122617440 119945624 117164408 
1095.860 114426336 111837896 109460640 107316096 105388400 103634504 
1098.753 101990320 100385224 98745912 97002264 95100608 93004800 90703664 
1102.129 88213904 85580144 82870280 80161368 77537848 75078112 72844128 
1105.504 70886640 69239432 67921560 66942296 66302552 65996528 66013000 
1108.879 66336096 66944852 67811032 68902248 70178272 71589440 73080520 
1112.254 74585576 76028768 77335880 78432032 79252808 79754960 79915000 
1115.630 79733152 79229264 78439688 77411512 76194552 74842800 73405616 
1119.005 71925152 70437456 68968728 67537664 66159144 64844028 63602312 
1122.380 62442404 61369228 60382692 59476312 58638524 57855228 57114760 
1125.755 56413548 55759804 55174524 54686384 54330340 54138132 54131452 
1129.131 54320356 54698708 55247672 55934076 56716476 57546964 58370976 
1132.506 59135912 59794960 60311908 60670564 60876672 60959320 60963476 
1135.881 60945292 60962828 61062048 61274824 61612168 62063132 62595808 
1139.256 63160860 63701564 64152628 64452896 64552524 64412764 64012036 
1142.632 63344532 62417384 61248880 59864968 58300640 56594428 54788692 
1146.007 52928892 51055932 49207192 47413260 45695020 44065800 42532264 
1149.382 41096224 39757688 38516664 37374280 36332840 35395032 34563396 
1152.757 33839212 33222950 32714270 32312248 32015774 31823062 31731728 
1156.133 31738572 31840388 32034784 32321528 32702588 33181820 33763352 
1159.508 34450356 35243472 36140652 37136444 38222252 39387152 40614808 
1162.883 41883740 43167704 44432972 45642164 46758480 47744328 48567680 
1166.258 49202996 49631076 49841740 49833748 49615620 49203852 48621632 
1169.634 47897248 47058548 46132696 45145092 44117032 43068792 42020156 
1173.009 40988940 39994024 39052780 38179744 37387064 36683112 36072960 
1176.384 35559816 35145668 34831992 34620444 34511948 34507176 34606344 
1179.759 34809844 35119224 35537844 36070764 36723672 37501776 38408380 
1183.135 39445272 40613280 41913480 43347760 44919272 46630012 48478568 
1186.510 50457120 52549868 54729640 56957468 59185200 61349536 63379848 
1189.885 65202484 66743268 67943680 68767408 69206824 69284696 69050096 
1193.260 68572072 67922440 67170856 66375508 65573716 64785832 64014876 
1196.635 63251956 62481620 61687052 60855400 59977860 59051180 58075076 
1200.011 57050524 55977532 54854776 53680924 52456988 51189108 49890948 
1203.386 48582832 47290544 46043160 44866288 43780656 42799220 41926140 
1206.761 41158440 40488144 39905420 39399848 38961908 38583720 38258368 
1210.136 37980224 37745776 37553648 37405484 37305820 37261268 37279028 
1213.512 37365832 37527460 37768116 38091112 38498884 38992716 39572288 
1216.887 40234596 40974736 41785668 42659964 43591808 44577204 45613932 
1220.262 46701032 47837392 49021832 50253784 51535568 52873688 54279128 
1223.637 55767748 57356312 59059756 60889136 62847972 64931788 67125568 
1227.013 69404424 71730512 74050192 76299920 78403376 80277032 81843616 
1230.388 83031952 83786448 84076040 83896008 83274560 82271160 80982272 
1233.763 79531472 78052696 76693856 75592536 74865512 74614896 74915592 
1237.138 75819696 77362888 79563344 82423880 85927456 90036656 94684064 
1240.514 99765096 105149936 110671144 116131152 121326416 126035568 
1243.407 130043432 133170592 135274848 136280720 136185408 135058000 
1246.300 133027944 130260600 126958504 123329112 119570232 115870304 
1249.193 112372112 109164024 106270128 103644432 101179968 98723912 96122464 
1252.568 93240024 89992464 86367008 82420392 78269880 74058360 69944784 
1255.943 66069976 62533116 59394776 56667888 54327716 52319756 50574180 
1259.319 49017752 47576560 46189256 44809712 43406600 41966544 40490068 
1262.694 38988696 37479016 35980440 34512272 33090380 31729054 30440320 
1266.069 29233254 28114580 27088030 26152782 25304672 24537128 23843460 
1269.444 23217968 22657604 22160756 21725986 21350746 21030738 20760180 
1272.820 20533836 20347784 20200094 20089830 20015538 19973764 19958674 
1276.195 19963392 19980530 20004990 20033964 20066162 20101282 20138278 
1279.570 20175312 20211030 20244008 20273794 20299348 20317158 20319588 
1282.945 20295250 20229982 20111762 19935186 19704246 19432570 19141814 
1286.321 18857894 18604076 18399802 18259132 18190404 18199664 18291340 
1289.696 18468664 18733026 19082674 19512204 20011548 20566942 21162080 
1293.071 21775524 22382856 22956628 23466454 23884940 24192170 24379210 
1296.446 24451590 24426912 24333160 24200506 24057562 23928842 23831522 
1299.822 23777832 23775908 23829284 23937140 24091498 24278672 24477738 
1303.197 24665044 24818294 24918712 24953840 24917836 24809734 24632290 
1306.572 24391268 24096332 23760402 23400534 23036946 22688882 22372598 
1309.947 22099426 21874576 21699652 21574834 21500880 21480234 21515954 
1313.323 21609448 21759742 21962990 22214490 22510594 22850168 23234642 
1316.698 23666446 24146350 24672338 25239386 25841386 26473276 27131904 
1320.073 27816116 28523700 29248494 29979364 30698556 31383682 32012954 
1323.448 32567032 33033316 33409882 33706704 33947576 34166432 34407924 
1326.823 34719136 35138948 35693144 36383316 37185640 38050532 38915448 
1330.199 39717744 40403440 40942040 41328592 41582340 41739124 41844808 
1333.574 41948952 42094588 42319412 42651520 43107504 43692560 44399720 
1336.949 45212960 46109040 47062316 48050260 49052844 50054368 51042368 
1340.324 52005352 52932376 53813256 54636556 55389592 56056088 56612620 
1343.700 57031104 57278656 57321528 57133280 56697864 56012628 55087324 
1347.075 53943268 52609704 51118880 49508736 47820300 46096436 44386692 
1350.450 42743828 41218480 39860964 38711644 37797212 37132256 36717940 
1353.825 36546524 36601960 36861796 37295312 37859028 38502072 39165320 
1357.201 39787388 40316936 40713592 40952892 41027684 40945316 40727312 
1360.576 40405152 40025304 39646448 39332736 39153136 39164452 39399380 
1363.951 39864524 40540228 41391312 42373292 43442376 44554624 45659792 
1367.326 46704648 47628432 48366072 48861880 49072360 48974948 48570012 
1370.702 47879232 46943912 45816768 44567880 43279044 42035012 40925476 
1374.077 40025596 39382436 39010512 38891204 38987392 39256712 39668224 
1377.452 40208640 40882516 41708520 42714432 43934312 45400932 47145000 
1380.827 49183368 51505984 54054668 56707224 59290660 61578832 63331880 
1384.203 64345016 64454892 63580252 61737312 59064312 55815144 52312920 
1387.578 48909380 45880032 43380564 41450072 40035260 39037736 38345148 
1390.953 37860656 37504736 37214480 36945344 36664000 36349592 35995992 
1394.328 35610128 35209800 34814440 34439128 34089012 33760736 33447564 
1397.704 33145056 32855340 32588568 32359078 32180168 32059506 31996618 
1401.079 31984956 32015454 32080732 32177526 32308358 32481004 32707766 
1404.454 33002284 33374638 33829216 34362592 34964776 35622068 36320844 
1407.829 37051276 37806864 38584412 39382400 40198572 41029764 41872104 
1411.205 42721344 43573056 44420308 45250764 46046000 46782544 47435544 
1414.580 47987864 48434304 48784688 49060224 49289656 49504168 49732160 
1417.955 50001908 50341468 50774168 51317144 51972376 52724280 53544392 
1421.330 54399216 55260276 56108044 56939752 57769908 58626956 59542280 
1424.706 60538488 61621828 62781036 63995296 65242296 66507520 67781176 
1428.081 69054880 70315808 71540024 72694152 73744272 74665024 75450560 
1431.456 76117048 76700456 77246416 77797456 78391464 79059544 79833520 
1434.831 80757944 81893896 83314136 85085880 87233920 89726608 92485752 
1438.207 95410968 98397952 101335664 104110384 106579088 108577600 109955784 
1441.582 110583176 110384688 109351208 107530800 105015552 101917072 
1444.475 98364336 94480680 90372504 86142832 81888896 77718712 73770784 
1447.850 70193656 67122160 64644532 62777780 61479496 60674528 60292192 
1451.225 60280772 60610864 61264676 62216704 63422976 64830756 66378176 
1454.601 68011408 69696408 71410528 73142352 74879336 76607560 78306064 
1457.976 79951968 81535120 83051216 84502568 85895432 87239112 88541888 
1461.351 89805040 91020912 92162392 93179776 94013304 94603480 94919784 
1464.726 94979568 94851232 94627168 94383736 94166048 93979488 93804192 
1468.102 93607744 93355568 93010344 92518872 91805144 90767736 89292232 
1471.477 87297640 84786912 81882736 78794616 75744104 72885864 70276192 
1474.852 67905400 65746768 63795304 62084152 60671900 59608940 58921644 
1478.227 58599956 58610916 58918452 59502488 60366852 61534700 63033460 
1481.603 64878576 67064584 69567656 72357608 75408456 78711432 82268832 
1484.978 86079808 90127288 94350016 98623232 102768224 106539448 109648128 
1488.353 111809600 112761904 112334096 110502872 107419280 103388000 
1491.246 98774360 93932176 89110024 84432336 79938224 75604600 71394480 
1494.621 67300400 63357836 59651740 56298376 53402060 51021088 49152536 
1497.997 47752612 46757524 46108892 45765808 45700100 45890084 46314424 
1501.372 46947380 47757940 48713548 49771768 50881480 51978908 52966324 
1504.747 53712120 54051028 53804932 52858196 51229896 49088752 46667200 
1508.122 44153820 41644260 39160788 36698220 34260180 31867630 29567950 
1511.498 27419202 25466966 23740174 22241588 20954060 19851522 18906794 
1514.873 18096850 17401484 16804208 16293608 15862951 15512072 15243659 
1518.248 15056907 14943243 14883850 14851619 14821413 14780343 14739378 
1521.623 14729712 14788947 14938167 15171735 15464755 15785599 16111046 
1524.999 16431954 16756784 17105226 17500030 17953758 18465138 19022022 
1528.374 19610156 20220436 20851322 21508400 22199566 22930080 23702346 
1531.749 24515390 25367228 26256430 27182342 28141198 29121736 30106944 
1535.124 31074742 32004502 32874602 33665524 34361696 34947968 35413728 
1538.500 35753400 35968668 36065328 36051644 35941708 35753472 35508140 
1541.875 35225900 34916620 34577460 34193248 33746772 33229142 32650322 
1545.250 32038744 31432088 30860248 30331156 29830672 29329702 28800060 
1548.625 28227360 27622540 27017502 26455176 25966418 25558116 25214734 
1552.000 24909868 24620894 24339716 24076228 23851196 23683696 23577126 
1555.376 23514930 23462466 23377280 23211466 22919532 22470254 21867434 
1558.751 21171994 20489408 19921762 19515704 19259458 19109820 19019804 
1562.126 18950402 18872186 18768002 18634650 18483186 18335440 18215938 
1565.501 18142276 18116022 18124624 18145592 18158308 18149842 18121374 
1568.877 18088074 18073256 18098334 18172300 18291374 18442632 18612100 
1572.252 18787550 18959230 19118718 19255268 19357664 19417602 19436868 
1575.627 19432710 19436140 19481952 19590744 19762150 19980564 20226060 
1579.002 20483122 20745374 21016236 21305712 21625154 21982194 22377900 
1582.378 22805640 23253900 23706476 24144458 24546874 24888712 25144546 
1585.753 25292448 25317984 25220212 25014836 24736138 24431014 24154370 
1589.128 23963294 23904334 24011896 24304636 24782652 25425298 26187270 
1592.503 27003150 27783620 28426798 28839116 28940964 28687770 28078596 
1595.879 27156770 26000152 24699696 23350742 22030400 20792886 19675260 
1599.254 18697014 17865846 17180918 16634859 16215455 15909107 15705373 
1602.629 15598373 15587658 15674662 15859274 16135873 16492316 16909060 
1606.004 17360446 17817892 18246588 18607776 18863502 18975636 18915066 
1609.380 18666816 18233492 17638036 16920876 16137386 15342162 14580735 
1612.755 13882934 13256824 12695544 12183478 11704692 11248739 10815886 
1616.130 10418046 10073877 9801212 9608622 9493055 9442224 9439041 9464303 
1619.988 9498812 9526245 9533865 9516863 9480016 9437856 9409650 9410869 
1623.845 9447812 9515305 9601474 9693793 9785114 9873811 9962458 10054548 
1627.702 10151914 10253035 10355401 10457077 10559049 10663967 10774682 
1631.078 10890456 11006497 11112882 11196954 11247480 11255981 11220585 
1634.453 11148304 11055846 10965038 10896877 10864499 10869323 10904182 
1637.828 10957902 11018800 11075458 11118014 11139431 11137425 11115703 
1641.203 11081813 11045887 11014620 10988826 10961810 10921374 10853322 
1644.579 10745507 10593137 10402673 10192754 9990530 9822359 9707617 9651612 
1648.436 9648833 9686101 9747567 9814599 9864219 9870659 9803346 9638433 
1652.293 9376977 9067293 8796544 8638536 8614133 8691368 8821769 8962119 
1656.151 9086240 9183052 9250809 9293729 9317528 9325889 9318950 9293729 
1660.008 9245867 9172426 9073688 8954002 8821160 8685688 8559012 8450177 
1663.866 8364945 8304554 8265614 8240557 8218574 8187442 8134063 8048219 
1667.723 7925676 7770716 7597030 7423582 7270149 7149510 7065005 7011292 
1671.581 6978799 6956004 6931225 6894192 6836092 6752086 6644509 6525726 
1675.438 6415347 6331926 6285062 6270976 6276658 6284659 6280053 6255715 
1679.295 6212926 6160562 6109415 6065968 6027128 5979557 5902198 5775794 
1683.153 5593035 5371874 5153374 4985491 4895977 4879524 4909281 4954120 
1687.010 4991558 5008886 5003121 4977414 4938168 4892392 4845850 4804271 
1690.868 4772444 4753651 4748593 4753283 4758409 4748962 4709301 4626944 
1694.725 4501948 4350816 4205657 4098810 4044460 4033524 4039176 4030681 
1698.583 3980620 3875667 3724351 3561195 3432664 3370384 3376862 3429559 
1702.440 3500165 3563567 3604994 3618659 3605929 3574291 3535005 3500232 
1706.297 3478721 3474446 3486771 3511856 3544124 3577899 3609070 3635465 
1710.155 3657317 3676731 3696313 3717701 3741262 3765593 3788689 3808844 
1714.012 3825022 3836789 3843107 3841402 3827496 3798281 3754931 3705637 
1717.870 3665236 3649164 3666406 3715796 3787385 3867711 3943069 4003694 
1721.727 4045765 4070848 4084227 4092388 4099947 4108443 4116705 4122158 
1725.584 4123028 4119281 4111755 4101018 4086702 4067069 4041149 4009178 
1729.442 3974534 3941565 3913045 3887101 3855877 3805501 3720207 3590193 
1733.299 3419573 3233163 3068023 2958219 2915687 2928896 2972698 3021542 
1737.157 3056611 3066154 3048369 3008296 2957152 2907815 2869890 2848744 
1741.014 2844241 2853747 2873725 2901743 2935468 2973165 3013167 3054141 
1744.872 3095586 3137903 3181525 3226354 3271287 3313921 3351417 3381937 
1748.729 3405013 3421844 3435537 3449296 3466196 3488608 3518069 3555015 
1752.586 3598746 3646491 3693640 3733609 3758173 3760212 3736249 3688460 
1756.444 3625040 3558690 3500900 3456744 3424415 3395328 3359999 3309814 
1760.301 3241976 3160264 3074396 2996352 2935835 2898041 2881964 2883198 
1764.159 2895473 2913151 2930698 2943274 2946777 2938337 2918155 2889936 
1768.016 2860351 2836004 2820496 2812225 2805021 2790815 2763471 2722825 
1771.874 2676814 2639510 2624275 2637476 2676414 2731694 2792849 2851846 
1775.731 2905780 2955450 3002958 3049804 3094118 3131595 3157761 3170277 
1779.588 3171078 3165838 3162534 3167206 3181058 3200918 3220545 3234766 
1783.446 3241442 3242711 3243212 3248820 3262407 3283773 3309447 3335256 
1787.303 3358229 3376795 3390486 3398200 3396898 3382038 3349013 3295391 
1791.161 3223383 3141841 3063384 3000155 2959287 2940572 2937970 2943307 
1795.018 2949446 2952148 2949512 2940939 2926128 2903978 2873825 2835637 
1798.875 2791882 2746699 2705854 2674614 2655545 2648377 2649711 2656078 
1802.733 2664479 2673281 2682482 2692251 2701986 2710588 2717090 2721258 
1806.590 2723925 2727126 2732461 2740463 2749399 2756368 2758536 2754434 
1810.448 2746198 2737662 2733928 2738929 2753467 2775842 2802720 2830868 
1814.305 2858950 2887634 2919122 2955217 2996419 3041695 3088044 3133030 
1818.163 3174382 3211065 3243045 3270052 3291485 3306309 3313587 3313020 
1822.020 3304973 3290651 3271020 3247384 3221013 3193842 3168875 3149751 
1825.877 3138804 3136568 3139939 3143343 3139838 3124320 3096187 3061415 
1829.735 3031352 3018139 3030785 3070358 3130527 3200084 3268449 3328111 
1833.592 3376695 3415866 3449964 3483264 3518637 3556852 3598145 3643584 
1837.450 3695511 3757638 3832911 3921738 4021451 4126573 4230482 4327054 
1841.307 4413070 4487151 4550898 4607923 4663985 4726351 4802563 4899563 
1845.165 5020350 5163567 5323201 5489471 5651574 5798896 5924601 6025448 
1849.022 6102459 6158714 6197767 6221262 6228757 6218203 6188760 6140734 
1852.879 6077257 6002233 5918791 5827741 5727881 5617437 5495511 5364830 
1856.737 5230399 5099261 4976743 4864915 4761691 4663549 4566200 4468504 
1860.594 4372336 4281744 4200572 4130654 4071149 4018976 3971993 3929361 
1864.452 3892484 3863298 3842505 3827630 3813891 3795407 3768467 3733943 
1868.309 3698151 3670215 3657718 3663633 3684651 3713657 3742966 3767331 
1872.167 3785513 3798917 3810014 3819674 3827630 3831073 3828165 3818069 
1876.024 3802125 3782873 3762351 3740560 3715830 3685252 3646959 3601953 
1879.881 3553512 3506244 3463691 3427188 3394260 3360934 3323270 3279867 
1883.739 3232295 3184129 3138871 3098823 3063451 3030384 2997253 2962990 
1887.596 2928429 2896073 2868756 2847777 2833836 2826699 2826932 2835503 
1891.454 2854114 2883431 2921257 2963090 3002424 3033921 3055276 3068790 
1895.311 3079869 3094985 3118546 3150785 3188468 3227088 3263976 3299732 
1899.168 3337260 3380735 3431629 3488141 3545160 3596107 3636902 3667074 
1903.026 3690298 3711518 3734912 3761181 3788053 3811083 3826460 3833513 
1906.883 3834081 3831240 3827529 3823117 3815696 3803028 3784143 3760814 
1910.741 3737586 3718837 3707341 3702295 3700223 3696581 3688661 3675896 
1914.598 3660191 3643417 3625976 3605161 3577498 3539882 3492683 3440880 
1918.456 3392123 3352119 3322602 3298863 3273123 3237136 3187033 3124787 
1922.313 3058212 2997286 2949546 2917688 2898842 2887601 2880029 2875893 
1926.170 2878528 2891803 2917321 2951614 2986844 3014402 3028382 3028215 
1930.028 3018873 3007062 2998854 2995785 2994817 2990213 2978069 2957719 
1933.885 2932132 2906147 2882931 2862719 2842707 2819562 2792549 2765205 
1937.743 2743898 2734294 2738529 2751900 2765805 2770940 2762037 2741363 
1941.600 2717890 2703820 2708288 2733294 2773008 2817494 2856949 2887167 
1945.458 2908982 2927362 2947010 2968761 2989879 3005460 3011866 3008363 
1949.315 2998654 2986877 2976334 2967260 2956384 2940472 2919323 2896773 
1953.172 2879963 2875827 2886900 2908548 2932632 2947544 2946677 2929630 
1957.030 2902744 2875493 2855548 2845575 2842007 2837838 2828233 2811758 
1960.887 2793550 2781478 2781511 2796418 2823664 2858616 2897441 2938137 
1964.745 2980805 3025813 3070425 3108501 3132663 3137702 3123485 3096788 
1968.602 3068156 3045799 3033921 3029283 3023978 3010865 2987444 2957419 
1972.459 2929930 2914052 2913952 2928062 2950513 2976468 3006361 3047401 
1976.317 3109536 3200517 3317427 3447593 3569647 3664835 3720074 3734310 
1980.174 3715395 3675495 3624773 3569614 3510821 3448428 3383741 3321367 
1984.032 3267281 3226621 3199983 3183194 3168808 3150485 3127023 3102894 
1987.889 3086176 3084674 3100859 3131361 3167573 3200851 3225853 3243045 
1991.747 3257800 3276395 3301668 3332118 3362203 3386112 3400838 3407284 
1995.604 3409655 3412360 3417703 3423480 3426353 3424382 3418838 3415098 
1999.461 3420007 3438509 3469169 3505910 3538312 3556819 3557921 3543957 
2003.319 3522478 3502002 3487606 3479189 3472876 3463792 3450065 3434000 
2007.176 3421009 3414297 3414597 3416434 3411859 3395696 3367378 3332318 
2011.034 3300900 3282638 3281603 3296593 3320532 3345140 3365041 3379333 
2014.891 3389384 3398668 3408720 3418672 3426787 3433733 3442550 3458849 
2018.749 3487205 3528458 3577498 3625441 3662597 3684250 3692404 3694409 
2022.606 3700323 3715963 3740593 3766261 3783809 3785313 3769403 3742031 
2026.463 3711084 3684651 3664702 3648195 3629651 3606130 3579269 3554881 
2030.321 3541051 3542822 3559491 3584748 3611509 3635699 3659489 3690332 
2034.178 3736583 3802125 3883423 3969886 4049811 4113528 4159723 4193512 
2038.036 4223757 4257183 4295631 4335354 4369859 4394393 4409455 4419664 
2041.893 4432149 4452603 4480756 4511155 4536835 4551768 4554547 4548487 
2045.750 4540116 4534491 4534491 4537906 4540217 4537840 4527761 4509314 
2049.608 4482229 4445673 4397204 4335688 4262771 4184680 4111855 4057002 
2053.465 4029009 4030916 4056400 4092288 4124666 4142161 4140555 4123563 
2057.323 4098676 4073323 4052085 4035296 4021084 4008309 3999279 3998377 
2061.180 4011352 4041283 4086568 4140723 4195119 4242293 4278163 4303160 
2065.038 4319758 4331204 4338064 4338901 4331639 4316111 4294225 4271738 
2068.895 4253938 4244334 4242528 4244569 4244535 4237877 4223456 4203215 
2072.752 4181000 4160259 4141860 4124332 4105767 4085364 4064293 4046400 
2076.610 4035230 4032086 4035096 4039009 4038340 4029544 4012422 3991020 
2080.467 3970287 3954672 3944975 3939191 3932704 3921972 3905389 3884226 
2084.325 3861794 3841201 3823819 3809512 3796410 3783407 3770005 3757003 
2088.182 3745640 3735681 3724886 3710382 3689028 3659924 3625274 3589826 
2092.040 3559257 3539080 3531831 3537644 3555516 3582576 3616253 3653542 
2095.897 3690465 3721177 3740460 3743301 3728696 3699789 3664167 3630420 
2099.754 3606297 3595071 3594937 3601820 3610172 3617456 3625140 3637737 
2103.612 3659690 3693640 3738421 3789491 3841402 3890110 3934477 3976006 
2107.469 4017204 4058908 4099747 4136776 4166615 4188059 4203047 4215560 
2111.327 4230583 4251227 4277528 4307042 4336525 4363333 4387397 4410258 
2115.184 4433254 4456486 4478179 4494449 4502383 4501178 4493311 4483903 
2119.042 4478647 4480823 4490900 4506033 4521969 4534859 4543699 4549525 
2122.899 4554581 4560574 4567740 4574605 4578958 4579426 4576111 4569983 
2126.756 4561914 4551165 4535261 4510017 4472487 4422342 4362663 4299278 
2130.614 4238580 4185617 4142262 4107607 4079344 4055229 4034561 4018007 
2134.471 4005366 3994698 3982459 3964235 3937319 3903383 3868346 3839931 
2138.329 3825557 3827630 3842873 3864201 3882955 3893186 3894189 3889842 
2142.186 3886232 3887368 3894222 3903583 3909835 3908163 3895860 3874029 
2146.043 3844979 3811284 3774884 3737118 3698720 3663866 3637202 3622568 
2149.901 3621365 3629417 3637871 3635565 3613847 3568912 3504374 3427956 
2153.758 3347878 3269952 3196445 3127423 3064853 3018039 3001357 3034722 
2157.616 3131895 3294523 3507213 3740761 3962263 4144135 4273780 4353359 
2161.473 4395430 4417153 4432986 4452636 4481024 4518822 4564559 4615023 
2165.331 4664387 4704411 4727155 4725011 4695770 4643790 4578823 4513833 
2169.188 4459499 4421304 4398476 4384385 4370930 4352857 4329029 4303897 
2173.045 4282614 4270233 4268024 4273679 4283183 4292586 4300349 4307042 
2176.903 4313367 4319424 4323540 4323239 4316278 4303227 4287767 4274382 
2180.760 4268292 4272341 4285491 4304030 4324176 4343084 4359551 4375315 
2184.618 4390845 4406543 4421304 4433020 4440183 4443296 4444903 4448485 
2188.475 4456486 4470579 4489661 4512628 4538509 4567003 4599719 4637460 
2192.333 4678855 4721695 4761457 4793919 4817404 4833084 4843136 4851144 
2196.190 4858247 4862637 4860961 4849770 4827958 4798006 4766214 4738477 
2200.047 4720523 4714024 4717240 4726284 4737405 4748459 4759581 4771908 
2203.905 4785778 4800720 4814322 4824306 4830069 4833419 4837373 4845515 
2207.762 4859152 4876475 4892660 4903149 4904020 4895374 4879859 4862335 
2211.620 4847458 4837808 4833553 4833084 4835597 4840858 4850641 4866523 
2215.477 4889376 4918396 4950903 4983715 5014584 5042607 5068620 5092690 
2219.334 5114616 5131514 5139628 5135705 5118304 5089170 5052664 5014383 
2223.192 4978821 4948792 4924864 4905896 4889979 4877112 4866825 4858951 
2227.049 4852819 4846888 4838344 4825881 4809732 4791741 4775627 4764204 
2230.907 4758877 4759112 4762194 4765309 4766917 4767219 4767788 4769765 
2234.764 4774388 4780820 4787822 4794522 4801490 4810838 4825646 4847291 
2238.622 4875771 4907505 4937464 4961259 4976241 4982139 4981938 4979257 
2242.479 4976777 4976006 4976810 4978587 4981100 4984955 4990921 4999669 
2246.336 5010260 5020450 5027757 5030808 5029936 5028763 5031143 5040931 
2250.194 5059938 5087226 5119779 5154213 5187442 5218292 5246597 5272086 
2254.051 5293785 5309416 5316526 5313541 5301064 5281745 5259508 5238246 
2257.909 5220204 5205482 5192002 5178288 5163131 5147406 5132754 5121188 
2261.766 5113912 5110861 5110995 5113342 5118002 5126250 5139628 5159376 
2265.624 5184893 5214101 5243813 5270710 5293148 5310556 5323503 5333096 
2269.481 5339168 5341918 5340979 5337222 5333063 5331117 5334270 5343629 
2273.338 5357752 5373384 5386601 5394754 5397303 5396565 5395659 5397639 
2277.196 5403979 5413675 5424478 5434309 5442126 5448434 5454675 5462224 
2281.053 5470949 5479941 5487357 5492055 5495175 5499303 5507222 5521450 
2284.911 5541988 5566554 5591424 5612738 5628245 5638416 5644961 5650634 
2288.768 5657281 5665706 5675106 5684572 5693972 5703977 5716399 5733588 
2292.625 5756252 5784255 5815685 5848327 5880400 5910964 5940288 5968942 
2296.483 5997328 6024809 6050512 6073628 6093588 6111364 6128401 6145943 
2300.340 6165234 6185869 6206674 6226270 6243412 6257329 6268287 6276759 
2304.198 6282910 6286978 6289096 6289096 6287751 6286137 6285263 6285835 
2308.055 6287281 6288423 6287953 6285062 6280187 6275279 6272926 6275918 
2311.913 6285465 6301400 6321807 6344131 6365616 6384546 6400148 6412556 
2315.770 6422645 6431119 6438517 6446151 6454659 6465522 6479950 6498852 
2319.627 6522362 6550247 6581329 6613726 6645249 6672940 6692860 6701037 
2323.485 6693769 6668600 6625837 6568546 6502887 6436096 6376207 6329102 
2327.342 6297702 6281566 6277363 6280893 6287751 6294676 6300829 6305938 
2331.200 6310578 6315755 6321773 6329371 6339188 6352133 6368978 6390061 
2335.057 6414708 6441308 6468179 6493773 6517586 6539954 6561986 6584659 
2338.915 6608275 6632297 6655310 6676776 6696090 6713285 6729034 6743134 
2342.772 6754542 6761239 6760869 6752321 6736504 6717323 6700397 6693264 
2346.629 6702416 6732533 6785639 6861068 6955870 7065274 7183431 7303776 
2350.487 7419166 7524170 7614227 7688316 7747678 7796219 7838996 7879887 
2354.344 7921931 7966172 8012543 8060910 8111647 8165732 8223740 8286384 
2358.202 8353123 8422575 8493525 8565332 8637961 8712123 8787753 8864038 
2362.059 8938679 9008157 9069730 9121565 9163626 9198213 9227726 9254262 
2365.917 9279343 9302192 9321420 9335097 9341293 9338855 9327379 9306999 
2369.774 9278565 9243803 9205321 9166334 9129991 9099334 9076056 9061136 
2373.631 9054437 9055621 9065534 9085767 9118588 9166267 9229993 9309640 
2377.489 9404030 9510496 9627152 9752886 9887607 10031829 10185901 10349055 
2381.346 10519195 10693138 10866979 11036914 11199912 11353243 11494891 
2384.721 11622597 11734035 11827420 11901380 11955531 11990920 12009347 
2388.097 12012924 12003148 11981552 11948924 11905876 11853401 11792896 
2391.472 11725456 11652037 11573184 11488562 11398107 11302229 11202530 
2394.847 11102106 11004356 10913015 10831138 10760417 10701763 10655477 
2398.222 10621623 10600878 10593985 10601828 10624272 10660910 10710491 
2401.598 10771762 10843470 10925247 11016489 11117266 11226908 11344808 
2404.973 11470735 11604561 11747208 11900188 12065249 12243594 12435413 
2408.348 12639733 12855002 13079427 13311792 13550913 13795911 14045361 
2411.723 14296563 14546163 14789667 15022640 15241428 15442885 15624409 
2415.099 15783949 15919281 16028596 16110944 16166378 16196160 16203417 
2418.474 16191689 16164314 16123770 16071744 16008897 15935985 15853602 
2421.849 15763780 15668306 15569662 15470249 15372266 15278184 15190367 
2425.224 15111830 15045690 14994309 14959635 14942420 14942831 14960870 
2428.600 14996435 15050801 15125724 15222657 15342676 15485460 15649449 
2431.975 15832538 16032102 16245998 16472561 16710296 16957910 17214182 
2435.350 17478332 17750442 18032464 18327492 18638800 18969820 19322016 
2438.725 19694710 20085908 20493680 20916612 21355758 21813846 22294286 
2442.101 22799948 23331758 23888058 24465190 25059062 25665840 26283466 
2445.476 26911380 27550408 28201480 28864788 29539538 30223190 30912474 
2448.851 31602674 32289118 32967176 33632832 34283416 34917376 35533708 
2452.226 36131796 36709940 37264984 37792148 38285144 38737180 39142116 
2455.602 39494260 39788844 40021668 40187888 40282508 40300724 40238156 
2458.977 40091796 39860784 39545576 39147956 38670096 38114480 37483892 
2462.352 36781984 36014100 35187380 34310772 33394854 32450688 31488694 
2465.727 30519474 29552200 28596030 27659970 26752634 25882004 25055588 
2469.103 24278322 23553582 22882648 22265548 21701220 21188972 20727684 
2472.478 20315976 19950972 19628770 19343460 19088422 18857134 18644196 
2475.853 18445778 18259476 18084310 17919124 17763284 17615918 17475676 
2479.228 17341858 17213838 17090854 16972486 16857630 16745145 16634274 
2482.604 16524497 16416434 16311152 16210295 16115207 16026808 15945405 
2485.979 15870718 15802607 15741242 15686857 15639590 15599610 15565781 
2489.354 15536625 15510629 15486387 15463622 15442506 15424139 15409685 
2492.729 15400038 15395300 15395198 15399248 15406630 15416620 15428567 
2496.104 15441339 15453459 15463931 15471348 15475502 15476738 15475639 
2499.480 15473167 15469493 15464343 15456858 15446421 15432722 15416277 
2502.855 15398287 15380299 15363684 15348821 15336052 15325205 15316109 
2506.230 15309176 15304851 15303479 15304714 15307769 15310824 15311441 
2509.605 15307769 15297644 15279453 15252067 15214146 15165456 15105792 
2512.981 15035983 14958161 14875311 14790421 14706336 14624769 14546060 
2516.356 14469832 14394886 14320979 14248146 14177654 14110253 14047072 
2519.731 13988281 13933294 13881429 13832340 13785890 13742968 13704667 
2523.106 13672010 13645921 13626775 13614979 13611081 13615252 13627253 
2526.482 13646537 13671326 13699126 13727647 13754733 13779802 13803368 
2529.857 13827312 13853069 13881942 13914033 13948726 13984688 14021337 
2533.232 14058263 14095912 14135000 14175736 14218153 14261568 14305466 
2536.607 14350191 14396290 14445580 14499842 14560108 14626550 14698350 
2539.983 14773418 14849836 14925856 15000380 15072619 15142056 15209273 
2543.358 15274306 15337939 15401034 15464583 15529241 15595386 15662398 
2546.733 15729286 15794430 15857039 15916808 15973901 16029146 16083539 
2550.108 16137112 16189730 16241010 16290408 16337676 16382748 16425967 
2553.484 16467091 16505808 16541226 16572343 16598918 16621089 16639473 
2556.859 16654931 16667532 16676726 16681133 16678860 16669082 16651144 
2560.234 16625805 16594373 16557919 16516821 16470842 16418844 16360143 
2563.609 16294708 16223641 16149458 16074907 16002983 15935918 15874807 
2566.985 15820270 15772233 15730282 15694244 15663499 15638011 15617333 
2570.360 15601190 15589925 15583674 15583125 15588585 15600194 15617333 
2573.735 15639521 15665971 15696544 15731415 15771201 15816042 15865769 
2577.110 15919248 15974760 16030796 16086495 16141891 16198223 16256731 
2580.486 16318273 16383093 16450124 16518096 16586352 16654689 16724139 
2583.861 16796252 16872268 16952468 17036128 17121836 17207634 17291928 
2587.236 17374516 17455324 17535354 17614712 17693598 17771808 17848550 
2590.611 17923232 17995440 18064966 18131462 18195170 18255918 18314288 
2593.987 18371456 18428978 18488892 18553240 18622716 18697222 18775682 
2597.362 18856788 18939086 19022748 19108330 19197222 19290978 19390368 
2600.737 19495016 19604332 19717178 19833176 19952290 20075220 20202872 
2604.112 20335874 20473778 20616138 20761570 20909206 21058214 21208700 
2607.488 21360664 21514668 21670568 21828166 21986480 22144402 22300006 
2610.863 22451412 22596170 22731510 22854952 22963998 23057072 23133318 
2614.238 23192838 23236354 23265018 23280016 23282462 23273548 23254602 
2617.613 23226950 23192104 23151980 23108158 23062068 23015040 22968228 
2620.989 22922466 22878770 22837770 22800298 22766672 22737342 22712170 
2624.364 22691780 22676420 22666820 22664028 22668564 22681376 22702358 
2627.739 22731442 22768418 22812800 22864172 22922290 22986182 23055220 
2631.114 23128218 23204268 23282638 23363364 23446870 23534170 23626172 
2634.490 23723482 23826274 23933638 24044954 24159030 24274958 24392250 
2637.865 24510378 24629204 24748520 24867904 24987462 25106558 25225162 
2641.240 25342920 25459236 25573720 25685562 25794408 25900432 26003986 
2644.615 26106156 26208036 26310464 26414292 26519166 26625544 26733288 
2647.990 26842820 26954990 27070750 27191196 27316830 27447544 27583064 
2651.366 27722868 27866352 28013386 28164110 28318950 28478096 28641792 
2654.741 28809834 28982264 29158728 29339344 29524148 29713038 29906024 
2658.116 30102930 30303514 30507638 30715022 30925780 31139594 31356468 
2661.491 31575486 31795718 32016058 32235656 32453474 32669258 32883036 
2664.867 33095100 33306160 33516780 33728080 33940628 34155464 34373064 
2668.242 34594144 34818460 35045764 35275704 35507708 35741420 35976480 
2671.617 36212856 36450300 36688268 36926152 37163008 37398224 37630896 
2674.992 37860292 38086232 38307944 38524628 38735332 38939332 39136388 
2678.368 39326932 39512516 39695528 39878908 40066032 40259932 40463808 
2681.743 40680296 40911896 41160880 41428744 41716256 42023916 42350572 
2685.118 42695092 43055988 43431976 43822144 44226012 44643336 45073956 
2688.493 45517300 45972620 46438596 46914120 47397960 47889368 48387704 
2691.869 48892696 49404472 49923580 50450832 50987288 51533816 52091116 
2695.244 52659376 53237976 53825820 54421748 55024212 55632372 56245680 
2698.619 56864204 57487728 58116400 58749880 59387708 60028760 60672356 
2701.994 61316568 61959552 62598520 63230000 63850188 64455500 65042152 
2705.370 65607048 66147252 66659780 67141464 67588608 67996992 68362600 
2708.745 68681000 68949072 69164472 69325904 69433504 69488712 69493968 
2712.120 69452280 69366712 69239896 69072976 68866136 68618368 68328168 
2715.495 67994248 67615856 67193792 66729432 66225208 65683744 65108164 
2718.871 64501784 63868188 63212180 62538864 61854096 61163960 60474004 
2722.246 59789864 59116512 58458800 57821048 57207928 56623116 56070152 
2725.621 55551328 55068104 54621148 54210688 53837148 53501104 53203032 
2728.996 52944124 52724656 52544332 52402404 52297144 52226552 52188700 
2732.372 52181564 52203568 52253532 52330372 52432836 52560040 52710552 
2735.747 52882744 53074328 53282176 53503124 53732964 53967204 54202280 
2739.122 54434632 54661880 54882296 55094584 55297604 55490068 55670564 
2742.497 55838244 55992912 56135228 56267180 56391060 56509544 56625228 
2745.873 56739736 56854724 56970916 57089180 57210044 57333896 57461104 
2749.248 57591496 57724800 57860452 57998232 58138368 58281424 58428816 
2752.623 58582472 58744800 58918340 59106112 59311208 59536500 59784120 
2755.998 60055964 60352000 60671368 61012092 61371404 61745908 62131936 
2759.374 62525624 62921880 63315092 63698716 64065636 64408884 64722516 
2762.749 65001436 65241948 65441452 65598300 65710576 65777532 65798700 
2766.124 65774640 65707488 65600620 65458364 65285580 65087728 64869956 
2769.499 64637228 64394972 64148016 63900812 63657940 63422368 63196420 
2772.875 62981820 62779276 62589220 62412752 62249932 62101124 61965744 
2776.250 61842288 61727612 61617744 61507480 61390908 61261852 61114220 
2779.625 60942012 60740452 60506076 60237564 59935404 59602936 59245008 
2783.000 58867796 58477908 58081512 57684420 57290716 56904168 56526716 
2786.375 56159924 55804072 55459044 55124116 54798912 54482672 54175476 
2789.751 53877356 53589072 53311320 53044636 52789228 52545528 52312844 
2793.126 52091116 51879652 51677440 51483300 51295552 51111872 50929688 
2796.501 50746200 50558804 50365204 50163176 49951536 49729448 49496332 
2799.876 49252728 48999096 48736456 48465160 48185740 47897508 47599408 
2803.252 47289988 46968016 46632964 46285456 45927060 45560572 45189904 
2806.627 44818456 44450368 44089456 43738844 43401548 43080212 42776188 
2810.002 42491008 42225080 41978436 41751380 41543724 41355816 41187948 
2813.377 41040288 40912512 40804180 40714248 40641508 40585156 40544776 
2816.753 40520732 40514036 40526260 40558780 40612984 40690268 40791404 
2820.128 40917248 41068112 41244200 41445000 41669568 41916104 42182576 
2823.503 42466676 42766240 43079256 43403816 43737448 44077536 44420200 
2826.878 44760748 45094140 45414580 45716184 45993984 46243288 46460060 
2830.254 46641632 46786416 46894112 46965948 47004456 47013428 46997184 
2833.629 46960928 46910540 46851484 46789664 46730472 46678488 46637316 
2837.004 46609428 46596000 46598364 46617584 46656756 46720216 46813908 
2840.379 46945092 47121660 47350844 47640748 47999152 48434820 48958224 
2843.755 49581672 50317804 51179492 52175736 53308808 54570536 55938900 
2847.130 57377492 58830876 60231208 61501980 62560328 63332840 63761384 
2850.505 63809044 63467728 62756576 61720472 60418256 58921036 57303608 
2853.880 55632556 53970540 52369920 50868476 49494884 48265752 47185780 
2857.256 46251544 45451624 44770484 44189404 43689632 43254188 42867492 
2860.631 42517244 42193676 41889144 41598892 41319736 41051140 40793660 
2864.006 40549324 40321300 40112512 39926416 39766728 39636464 39538568 
2867.381 39475464 39447924 39455616 39496620 39567460 39663616 39780056 
2870.757 39911344 40051684 40195448 40337008 40471116 40593960 40703696 
2874.132 40800940 40889324 40974484 41063560 41163284 41279396 41416028 
2877.507 41575048 41757108 41961908 42188784 42436604 42704344 42990284 
2880.882 43292808 43609468 43938272 44277012 44623616 44975936 45331228 
2884.258 45686072 46036384 46377688 46706160 47018708 47313856 47591684 
2887.633 47854184 48104296 48345556 48582056 48817868 49056924 49303280 
2891.008 49561620 49837056 50135916 50466240 50837076 51259608 51745404 
2894.383 52305480 52949180 53681896 54503372 55405140 56370124 57371024 
2897.759 58369992 59323628 60184392 60905300 61449876 61793428 61929064 
2901.134 61867352 61635424 61272228 60819568 60322112 59819596 59344176 
2904.509 58923388 58578000 58323492 58172044 58132496 58210308 58409220 
2907.884 58731408 59178896 59754424 60461820 61305044 62287104 63408220 
2911.260 64662912 66038384 67514744 69062376 70642432 72212072 73720056 
2914.635 75114272 76347240 77376352 78172280 78721080 79024128 79096984 
2918.010 78964512 78657736 78206400 77635424 76964552 76204944 75362624 
2921.385 74439096 73435080 72352480 71197216 69979696 68715504 67424880 
2924.760 66128620 64848332 63603000 62407168 61271504 60202588 59203276 
2928.136 58274720 57416292 56626208 55901928 55239544 54634904 54083188 
2931.511 53580112 53122216 52706660 52331456 51994892 51694716 51428168 
2934.886 51191868 50981960 50794728 50626860 50474832 50335740 50206056 
2938.261 50082404 49961904 49842672 49724320 49608640 49498856 49399052 
2941.637 49312596 49241740 49186040 49142552 49105076 49065864 49014972 
2945.012 48941572 48835776 48689492 48498428 48263048 47990120 47691740 
2948.387 47383068 47081852 46803836 46560632 46358776 46198912 46076800 
2951.762 45984704 45913324 45853408 45795892 45733228 45658616 45566352 
2955.138 45451736 45311404 45143324 44947124 44723724 44475880 44206352 
2958.513 43919136 43617856 43305916 42986660 42663216 42338372 42014936 
2961.888 41696196 41384972 41084756 40798316 40528480 40277492 40047320 
2965.263 39839100 39654104 39493136 39356896 39245104 39157308 39091716 
2968.639 39045276 39014320 38994420 38981084 38970900 38961036 38949804 
2972.014 38936648 38921388 38904536 38887216 38870764 38856672 38845800 
2975.389 38837536 38828804 38813044 38779820 38716316 38608636 38443132 
2978.764 38210096 37904476 37527280 37085052 36589416 36055928 35500912 
2982.140 34941436 34393400 33869440 33379898 32931290 32526638 32166500 
2985.515 31849482 31574346 31340230 31148066 30999720 30897174 30839330 
2988.890 30820834 30828588 30843102 30838796 30786438 30660260 30440852 
2992.265 30119798 29701650 29203982 28654426 28083014 27520824 26992678 
2995.641 26513814 26090886 25722086 25400602 25116810 24861904 24628960 
2999.016 24413032 24211158 24021702 23843178 23673968 23512552 23357314 
3002.391 23207062 23060810 22918344 22779380 22644268 22513698 22388472 
3005.766 22269734 22158872 22056544 21963548 21879874 21804892 21737656 
3009.142 21676942 21621566 21570306 21522292 21476474 21431740 21387604 
3012.517 21343576 21299760 21256820 21215692 21177458 21143190 21113796 
3015.892 21090004 21072508 21061832 21058388 21062250 21072752 21088264 
3019.267 21106702 21125416 21141904 21153904 21160202 21159818 21152444 
3022.643 21137590 21115118 21084474 21045798 20999822 20948288 20893942 
3026.018 20839536 20788054 20741968 20702594 20670378 20644700 20624478 
3029.393 20607766 20592374 20575768 20555790 20530362 20498786 20460996 
3032.768 20417930 20371604 20324068 20276744 20230746 20186628 20144526 
3036.144 20104684 20068036 20035488 20008496 19988232 19975222 19969670 
3039.519 19971094 19978690 19991842 20009812 20032158 20058390 20087818 
3042.894 20119778 20153238 20187528 20221650 20254908 20286744 20316394 
3046.269 20343754 20368894 20392336 20415256 20439010 20464504 20491944 
3049.645 20520774 20549468 20575836 20598246 20615270 20626736 20632748 
3053.020 20633998 20631010 20623818 20612142 20596266 20576498 20554192 
3056.395 20531022 20509000 20489304 20473048 20460126 20450020 20442416 
3059.770 20436824 20433108 20430988 20430016 20429460 20428662 20427202 
3063.146 20425572 20424910 20427134 20434080 20446894 20465616 20488818 
3066.521 20514558 20540714 20565656 20588900 20611066 20633234 20657138 
3069.896 20683792 20713818 20747494 20784474 20824102 20865610 20908268 
3073.271 20951592 20995372 21039502 21084578 21131294 21180240 21231594 
3076.646 21285248 21339990 21394634 21447858 21498826 21547292 21593778 
3080.022 21638944 21683352 21727380 21770854 21813464 21854820 21894580 
3083.397 21932496 21968496 22002410 22034270 22064354 22093220 22121982 
3086.772 22152212 22185372 22222268 22263316 22307786 22354668 22402706 
3090.147 22451344 22500160 22549610 22599764 22650970 22702846 22754834 
3093.523 22806582 22858374 22910764 22965502 23023636 23085968 23152436 
3096.898 23221674 23291866 23361232 23428650 23493630 23556170 23617428 
3100.273 23678096 23739020 23800966 23864078 23928842 23995088 24062288 
3103.648 24130026 24197460 24263710 24328710 24392354 24455094 24517810 
3107.024 24580778 24643862 24706606 24768164 24827872 24885834 24942714 
3110.399 25000236 25059730 25122602 25189626 25260912 25336142 25414864 
3113.774 25496410 25580080 25664610 25748982 25831224 25909718 25983970 
3117.149 26054048 26121288 26187904 26255868 26326342 26399502 26474190 
3120.525 26548576 26621386 26691780 26760174 26827700 26895728 26965460 
3123.900 27036932 27109930 27183330 27256600 27329002 27400674 27472568 
3127.275 27545078 27618868 27694438 27771148 27848688 27926276 28002924 
3130.650 28078064 28151240 28222800 28293524 28364682 28437764 28513972 
3134.026 28594262 28678176 28765294 28854236 28943726 29032918 29121206 
3137.401 29208342 29294360 29378872 29461378 29541242 29618458 29692780 
3140.776 29765198 29836846 29908720 29981458 30055310 30129564 30203796 
3144.151 30277472 30350628 30424078 30498930 30576422 30657664 30743010 
3147.527 30832072 30924214 31018226 31112860 31207128 31300414 31392158 
3150.902 31482886 31573098 31663720 31755968 31850300 31947080 32045878 
3154.277 32145876 32245864 32345086 32442796 32538638 32632784 32725416 
3157.652 32816600 32906592 32995634 33084158 33173096 33263196 33355422 
3161.028 33450392 33548172 33648372 33750604 33854112 33958576 34063712 
3164.403 34169768 34276676 34384644 34493508 34602752 34712104 34820864 
3167.778 34928184 35033192 35134496 35230748 35320448 35403016 35477940 
3171.153 35546400 35609408 35668792 35725880 35781104 35834464 35884988 
3174.529 35931344 35972232 36006896 36035304 36058344 36078036 36096436 
3177.904 36116168 36139680 36168452 36202556 36241204 36282156 36322716 
3181.279 36360940 36395132 36425040 36451776 36477036 36502768 36530668 
3184.654 36561120 36594352 36629932 36667068 36705464 36744516 36784328 
3188.030 36824756 36865984 36907716 36950356 36993648 37037600 37082128 
3191.405 37126880 37171092 37214192 37256104 37296796 37336872 37377172 
3194.780 37418052 37459440 37500512 37539704 37576228 37609400 37639564 
3198.155 37668040 37696228 37725104 37754992 37785176 37814276 37841456 
3201.531 37866112 37888780 37910548 37933000 37956976 37982760 38010496 
3204.906 38038996 38067784 38096140 38123416 38149460 38173372 38194796 
3208.281 38213536 38229892 38245016 38260500 38277836 38297848 38320536 
3211.656 38344424 38368096 38390136 38409936 38428216 38446644 38466700 
3215.031 38489252 38514020 38539688 38564636 38587524 38607480 38624936 
3218.407 38640868 38656260 38671800 38687880 38704468 38721496 38739352 
3221.782 38758376 38779460 38802972 38828844 38856816 38886276 38917004 
3225.157 38948968 38982424 39017584 39054088 39091392 39128228 39163364 
3228.532 39195964 39225956 39254208 39282100 39310532 39340716 39373148 
3231.908 39407540 39443932 39481632 39520244 39559292 39598128 39636028 
3235.283 39672872 39708488 39743636 39779472 39816804 39856280 39897504 
3238.658 39939424 39980868 40020580 40058768 40096192 40134496 40175240 
3242.033 40218820 40264840 40311372 40356240 40397368 40434280 40467192 
3245.409 40497596 40527060 40556960 40587884 40619716 40652500 40686376 
3248.784 40722184 40760868 40803380 40849900 40899044 40949436 40998480 
3252.159 41043964 41084644 41120156 41150864 41178292 41203684 41228280 
3255.534 41252944 41278232 41304140 41330488 41356616 41382020 41405748 
3258.910 41427252 41445876 41461808 41475260 41487036 41497972 41508948 
3262.285 41520396 41532972 41546024 41558860 41570344 41578400 41581644 
3265.660 41578948 41569576 41554592 41535888 41516056 41497608 41482480 
3269.035 41471140 41462576 41455064 41446316 41434432 41418580 41398896 
3272.411 41376372 41352244 41327536 41303008 41279032 41255420 41232252 
3275.786 41209444 41187400 41166348 41146276 41127040 41108428 41090360 
3279.161 41072336 41054340 41036352 41018252 41000084 40981840 40963812 
3282.536 40946264 40930064 40915792 40903992 40895184 40888520 40883316 
3285.912 40878476 40872760 40865588 40856412 40845312 40832900 40819756 
3289.287 40806692 40794752 40784452 40776736 40772188 40771388 40774772 
3292.662 40782524 40794788 40812040 40833884 40860492 40891216 40925256 
3296.037 40961448 40998368 41035188 41071388 41106900 41142812 41180008 
3299.413 41219500 41262016 41307748 41356288 41407204 41459840 41514012 
3302.788 41569544 41626572 41685580 41747112 41811684 41879616 41951032 
3306.163 42025848 42103056 42181664 42260504 42338444 42415560 42492176 
3309.538 42569540 42649364 42732528 42819736 42910872 43004916 43100736 
3312.914 43197712 43295296 43393488 43492328 43591224 43689592 43786372 
3316.289 43880640 43972296 44062352 44152356 44244392 44340016 44439616 
3319.664 44542216 44646236 44748920 44848548 44943856 45034776 45122040 
3323.039 45207116 45290808 45374076 45456776 45538236 45617688 45693916 
3326.415 45766292 45834588 45899472 45962088 46024080 46086968 46151412 
3329.790 46217192 46283352 46347564 46407476 46460720 46506044 46542816 
3333.165 46571100 46591500 46604520 46610684 46610428 46604152 46592644 
3336.540 46576856 46557568 46535660 46510876 46482776 46450140 46411828 
3339.916 46366884 46315088 46256220 46190512 46118140 46039036 45953468 
3343.291 45861396 45762868 45658468 45548172 45431760 45308536 45177516 
3346.666 45037536 44888628 44731328 44567584 44399756 44230232 44061104 
3350.041 43892960 43725796 43558624 43390672 43221360 43050756 42879124 
3353.417 42707012 42534676 42362700 42191008 42020156 41851304 41685508 
3356.792 41523492 41366420 41214104 41066360 40922344 40781980 40645224 
3360.167 40513020 40386276 40265460 40150780 40041252 39935424 39832020 
3363.542 39729656 39628076 39527976 39430180 39335640 39245140 39158976 
3366.917 39077108 38999748 38926572 38857576 38792612 38730988 38671400 
3370.293 38611968 38550480 38484908 38413920 38336896 38254420 38167336 
3373.668 38076464 37982468 37885128 37783764 37676932 37563296 37441672 
3377.043 37311848 37174052 37029048 36877992 36721872 36561192 36396036 
3380.418 36225968 36049632 35865844 35673464 35471072 35258348 35035024 
3383.794 34801588 34559160 34309196 34053356 33793724 33531706 33269058 
3387.169 33006430 32744710 32484040 32224596 31966160 31708236 31450252 
3390.544 31191640 30931900 30671248 30410716 30151512 29895872 29645418 
3393.919 29400854 29162166 28927648 28695096 28461962 28226936 27989460 
3397.295 27750946 27513446 27279392 27050438 26827524 26609620 26395772 
3400.670 26184068 25973030 25761884 25550138 25338074 25126254 24914886 
3404.045 24704150 24494426 24285926 24079100 23874158 23671380 23470930 
3407.420 23272534 23075590 22879958 22685288 22491680 22299486 22109222 
3410.796 21921552 21736576 21554846 21376430 21201288 21029764 20861888 
3414.171 20697762 20537830 20382124 20230676 20082856 19938136 19795026 
3417.546 19652414 19508842 19363208 19215368 19065988 18916796 18770042 
3420.921 18628286 18493628 18366996 18248212 18136092 18029148 17925062 
3424.297 17822726 17721138 17619542 17517658 17415210 17311926 17207634 
3427.672 17102536 16996984 16891698 16787400 16684368 16582463 16481062 
3431.047 16379135 16275994 16171502 16065864 15960047 15855081 15751755 
3434.422 15651029 15552903 15457717 15365641 15276673 15190607 15107164 
3437.798 15025350 14943654 14860910 14775886 14688342 14598862 14508784 
3441.173 14419581 14332931 14249722 14169712 14092181 14015725 13938358 
3444.548 13858817 13775663 13688252 13596756 13502716 13407910 13315755 
3447.923 13228915 13149640 13078983 13015850 12957710 12901318 12843433 
3451.299 12781971 12716390 12647340 12576629 12505691 12435446 12365384 
3454.674 12294549 12221953 12147086 12070699 11994190 11919022 11846522 
3458.049 11776997 11709287 11641656 11572164 11499314 11422701 11342802 
3461.424 11260673 11178425 11097857 11020397 10947674 10880093 10818094 
3464.800 10761096 10708012 10656903 10606038 10553822 10499235 10442347 
3468.175 10384042 10325438 10267657 10211342 10156256 10101821 10046850 
3471.550 9990869 9933472 9875099 9816191 9757631 9699688 9642735 9586637 
3475.407 9531359 9476765 9423058 9370374 9318882 9268546 9218892 9169583 
3479.265 9120144 9070474 9020844 8971894 8924914 8881556 8842632 8809089 
3483.122 8780821 8756952 8735280 8713915 8690320 8662703 8630525 8594058 
3486.980 8555160 8516029 8479436 8447507 8421494 8401427 8386158 8374201 
3490.837 8363526 8352684 8340794 8327858 8314010 8300872 8289288 8280474 
3494.695 8275543 8274935 8278954 8287701 8301109 8319245 8341639 8367512 
3498.552 8395921 8425616 8454772 8481632 8505520 8525929 8544210 8562459 
3502.409 8583547 8610314 8645768 8690895 8746167 8810982 8883382 8961172 
3506.267 9042325 9124171 9205016 9283100 9358153 9430847 9503248 9577762 
3510.124 9657676 9744992 9840289 9942558 10049902 10159750 10269964 10379222 
3513.982 10487286 10594427 10700677 10805491 10907886 11006089 11098741 
3517.357 11185224 11265604 11340931 11411884 11478595 11539973 11594350 
3520.732 11639478 11672968 11693697 11701084 11695365 11677291 11647408 
3524.107 11606024 11552904 11488087 11411101 11322464 11222523 11112167 
3527.483 10992598 10864703 10729340 10587602 10440107 10287166 10129801 
3530.858 9968492 9804262 9637857 9469992 9301211 9131683 8961578 8790188 
3534.715 8618188 8445717 8273922 8103883 7936745 7772842 7612305 7454457 
3538.573 7298587 7144693 6993345 6845854 6704267 6570161 6444133 6325572 
3542.430 6212153 6101047 5988728 5872441 5750376 5622807 5491719 5359899 
3546.288 5231606 5110995 5000641 4901976 4814154 4734357 4658391 4582071 
3550.145 4501614 4415045 4322536 4226334 4131089 4040647 3959086 3888070 
3554.002 3827329 3774951 3728061 3683448 3638940 3592799 3544459 3493551 
3557.860 3440546 3385577 3329113 3271654 3213869 3156860 3101426 3048169 
3561.717 2997286 2948445 2900276 2850645 2797218 2737362 2668913 2590809 
3565.575 2503987 2411751 2319835 2234832 2163466 2109457 2073267 2052226 
3569.432 2041274 2034416 2026393 2013710 1994204 1967709 1935524 1899314 
3573.290 1861178 1822812 1785281 1749184 1714388 1680292 1646266 1611611 
3577.147 1576193 1539814 1502807 1466201 1430662 1397354 1366973 1340649 
3581.004 1318780 1301631 1289235 1280694 1274513 1268465 1258828 1242080 
3584.862 1214568 1173767 1118885 1052617 980382 909487 848430 803713 778153 
3589.201 771116 778452 794352 812410 827083 833690 829307 812410 783232 
3593.541 743965 698131 649880 604354 565369 535776 516701 507081 504692 
3597.881 506351 508772 509204 506450 500313 492286 484590 479482 478686 
3602.220 482931 492253 505654 521677 538529 553525 563677 565734 555947 
3606.560 531729 491921 438253 375040 308952 247084 194606 153238 121386 
3610.899 95138 70017 42678 12823 -17395 -43370 -60995 -67521 -62950 -50427 
3615.721 -35253 -23358 -20145 -29521 -52448 -86901 -127646 -166665 -196804 
3620.061 -211807 -209323 -190876 -161067 -125526 -89982 -58179 -32006 -11331 
3624.400 4738 16269 21637 16004 -7289 -55330 -133079 -238300 -359256 -475875 
3629.222 -565825 -613474 -616948 -585613 -535811 -482461 -436785 -404576 
3633.080 -386038 -376901 -371472 -364222 -352535 -336643 -319526 -304891 
3636.937 -295620 -293137 -296249 -303004 -311050 -318864 -326049 -333432 
3640.794 -341345 -349589 -356806 -360911 -359719 -352833 -341775 -330386 
3644.652 -324062 -328366 -347834 -384648 -438076 -504537 -578201 -652879 
3648.509 -722185 -780598 -821774 -840856 -833051 -796672 -734225 -653243 
3652.367 -564270 -479152 -409674 -364851 -349522 -363758 -401399 -451779 
3656.224 -500565 -535976 -551066 -544911 -521845 -488617 -452110 -417652 
3660.082 -388521 -366241 -350449 -339424 -331214 -323499 -314725 -304163 
3663.939 -291779 -277938 -262938 -246579 -229127 -210449 -191472 -173852 
3667.796 -157755 -141194 -115224 -64242 33300 199048 444986 770486 1161275 
3672.136 1598707 2061381 2529615 2984875 3400705 3742365 3969652 4044895 
3675.993 3950258 3696247 3314255 2843808 2323433 1789440 1273815 807165 
3679.851 415567 113565 -97535 -230419 -305090 -343530 -362500 -371935 
3683.708 -375279 -373988 -369651 -367466 -375378 -402756 -457075 -541006 
3687.566 -650761 -774645 -897170 -1003199 -1082034 -1129989 -1148165 
3690.941 -1141556 -1115382 -1075159 -1026768 -975628 -926697 -883779 -848793 
3694.798 -821410 -799153 -778978 -757710 -733861 -708291 -683944 -665186 
3698.656 -656816 -662241 -683381 -718877 -764458 -812878 -855605 -884308 
3702.513 -894261 -884407 -857721 -820286 -778713 -739551 -707100 -684043 
3706.371 -670843 -666774 -670744 -681826 -699393 -723376 -753675 -790057 
3710.228 -831265 -874388 -915554 -949709 -971231 -975826 -961478 -928978 
3714.085 -882324 -827462 -771271 -720531 -680272 -653176 -639016 -635410 
3717.943 -638553 -645368 -654566 -666608 -683613 -707133 -736905 -770047 
3721.800 -801501 -825974 -839765 -842377 -836755 -828388 -822535 -822667 
3725.658 -828289 -836127 -839897 -833415 -813209 -779540 -737169 -693240 
3729.515 -656452 -635145 -634814 -657941 -701609 -759827 -823891 -886920 
3733.373 -945113 -998505 -1049081 -1097667 -1141424 -1173776 -1186894 
3736.748 -1174503 -1136136 -1076977 -1005381 -930268 -858515 -794589 -740179 
3740.605 -696515 -665748 -653176 -666377 -713915 -800476 -920216 -1052221 
3744.463 -1165647 -1229452 -1230576 -1177146 -1091883 -1000058 -922366 
3747.838 -873098 -857887 -875148 -916646 -970867 -1026934 -1076415 -1114159 
3751.695 -1136830 -1140862 -1123446 -1084348 -1026868 -958338 -888639 
3755.071 -827165 -780995 -753972 -745439 -752120 -768592 -790057 -812481 
3758.928 -833084 -848991 -856597 -851736 -831629 -796970 -752153 -705016 
3762.785 -664590 -639082 -632002 -642325 -663432 -686623 -703362 -709747 
3766.643 -707100 -701510 -700584 -709251 -729727 -758504 -788635 -811555 
3770.500 -820484 -812514 -789164 -754865 -715172 -675342 -639413 -609503 
3774.358 -586076 -568704 -556229 -548121 -544316 -545838 -554640 -571914 
3778.215 -597194 -627635 -657742 -680669 -690924 -686226 -668527 -643615 
3782.073 -618602 -600503 -593521 -598584 -612746 -631307 -648942 -661778 
3785.930 -668593 -670347 -669189 -667502 -666840 -668130 -671108 -675805 
3789.787 -682025 -689303 -697276 -704719 -710541 -714179 -715668 -716561 
3793.645 -719340 -726055 -737897 -753708 -769617 -780334 -780499 -767666 
3797.502 -744049 -716396 -693802 -687153 -705182 -752385 -826073 -913438 
3801.360 -996290 -1053576 -1071821 -1050105 -998736 -934831 -876140 -838475 
3805.217 -831232 -855406 -903056 -958007 -1001149 -1016653 -998571 -950833 
3809.074 -884076 -809537 -736045 -668891 -609238 -556494 -510163 -471605 
3812.932 -445027 -437248 -454526 -500697 -573668 -663267 -752319 -823163 
3816.789 -864037 -874321 -863574 -847007 -841914 -861723 -912975 -992257 
3820.647 -1086529 -1172950 -1228924 -1241214 -1209165 -1143902 -1061310 
3824.022 -977248 -903684 -846147 -805536 -777423 -755626 -733299 -706538 
3827.879 -674945 -641299 -609900 -585415 -570723 -567050 -573304 -586837 
3831.737 -604010 -621745 -637064 -649041 -658470 -667535 -680371 -701047 
3835.594 -733696 -780367 -839500 -905470 -969644 -1021744 -1053741 -1062699 
3839.452 -1050898 -1024554 -991166 -957346 -927127 -901700 -879811 -858812 
3843.309 -835664 -808446 -776034 -739154 -699492 -659429 -621381 -587632 
3847.167 -559240 -536605 -518701 -505066 -495468 -492291 -499936 -527140 
3851.024 -583959 -680172 -819823 -995893 -1186035 -1354558 -1467410 -1505912 
3854.881 -1473354 -1387753 -1272535 -1147670 -1026306 -916216 -821476 
3858.257 -742594 -680007 -633292 -601430 -583595 -578069 -582701 -595606 
3862.114 -614929 -640108 -670181 -703594 -736607 -763068 -776398 -771602 
3865.971 -748647 -712823 -674581 -647023 -641431 -665417 -718314 -791017 
3869.829 -865856 -924349 -954932 -955759 -935128 -904610 -875512 -854282 
3873.686 -841517 -832225 -818996 -795614 -759496 -713154 -663300 -618437 
3877.544 -586275 -572543 -578929 -603448 -639115 -675971 -704255 -715999 
3881.401 -709052 -686789 -657841 -633855 -625153 -640670 -682654 -746729 
3885.259 -819393 -882753 -920812 -924085 -893897 -840492 -778581 -722747 
3889.116 -684308 -669156 -676765 -700021 -727973 -749276 -755560 -743785 
3892.973 -716561 -679114 -637924 -598021 -563112 -534950 -514564 -502352 
3896.831 -498579 -503544 -517344 -539219 -567877 -600867 -635807 -670512 
3900.688 -703825 -735846 -766938 -798160 -828851 -857258 -879811 -891979 
3904.546 -889631 -870155 -833878 -783641 -724666 -663002 -604573 -553912 
3908.403 -514101 -485705 -468229 -459226 -456181 -456082 -456843 -456645 
3912.260 -454725 -450918 -446318 -442577 -442114 -447476 -460782 -482230 
3916.118 -510229 -541106 -569796 -591338 -603018 -603647 -594713 -578697 
3919.975 -558611 -536837 -515193 -495071 -477795 -464886 -458200 -459028 
3923.833 -467501 -481733 -498215 -512810 -521812 -523732 -519165 -511089 
3927.690 -502783 -497454 -496627 -500333 -507283 -515590 -523732 -530714 
3931.548 -535976 -539484 -540675 -538557 -532601 -522673 -509699 -495468 
3935.405 -482362 -472002 -465350 -461709 -459590 -457406 -453964 -449263 
3939.262 -444861 -443041 -446152 -455916 -472267 -493681 -517113 -538491 
3943.120 -554541 -562450 -561424 -552159 -537465 -521250 -507052 -498943 
3946.977 -498910 -507118 -521845 -539683 -556659 -569531 -576149 -576050 
3950.835 -570458 -560597 -548221 -534156 -519264 -503610 -487889 -472631 
3954.692 -458730 -447178 -438241 -431886 -427285 -423908 -421326 -419771 
3958.550 -419605 -421856 -427020 -434832 -444663 -455188 -464986 -472664 
3962.407 -477397 -478821 -477232 -472995 -466640 -458928 -450488 -441816 
3966.264 -433177 -424835 -416295 -407158 -396963 -385277 -371836 -357402 
3970.122 -342537 -328267 -315785 -306315 -300752 -299362 -302441 -309394 
3973.979 -318897 -329492 -338928 -345847 -348893 -347768 -342967 -335551 
3977.837 -326446 -316943 -307308 -298302 -289991 -282938 -277508 -273932 
3981.694 -272011 -270985 -269859 -267541 -263898 -259660 -256315 -255818 
3985.552 -259494 -267475 -278534 -290223 -300057 -306116 -307639 -305454 
3989.409 -301249 -297176 -294229 -292839 -292475 -292044 -291283 -290091 
3993.266 -288932 -289296 -292044 -297806 -306646 -317970 -331015 -345020 
3997.124 -358627 -370942 -381172 -388422 -392295 -393354 -392560 -391567 
##END=
