
##TITLE=1675_3_e
##JCAMP-DX=5.01  $$ Nicolet v. 1
##DATATYPE=INFRARED SPECTRUM
##ORIGIN=UniL
##OWNER=Nicolet
##LONGDATE=2011/09/16
##TIME=12:09:51
##SPECTROMETER/DATA SYSTEM=Nicolet iS5
##DATA PROCESSING=
Ratio against background
%Transmittance->Absorbance
Truncated
ElementMultiply or ElementDivide
##COMMENTS=
Number of sample scans: 32
Collection length: 51.17 sec
Sample gain: 2.0
Background collected on: Ven Sep 16 11:51:09 2011 (GMT+02:00);
Number of background scans: 32
Background gain: 2.0
Sample spacing:  1.000
Number of scan points: 12415
Resolution points: 8192
Number of FFT points: 65536
Apodization: N-B fort;
Phase correction: Mertz;
Laser frequency: 15798.0 cm-1
Number of rejected sample scans: 0
Number of rejected background scans: 0
Bench serial number: ASB1000141;
##RESOLUTION=4.000
##XUNITS=1/CM
##YUNITS=ABSORBANCE
##FIRSTX=649.893372
##LASTX=4000.122314
##FIRSTY=0.078700
##MAXX=4000.122314
##MINX=649.893372
##MAXY=0.269370
##MINY=-0.001434
##XFACTOR=1.000000
##YFACTOR=1.000000E-009
##NPOINTS=6950
##DELTAX=0.482117
##ZPD=6100
##XYDATA=(X++(Y..Y))
649.893 78699832 78534448 78494112 78584160 78785592 79060616 79368344 
653.268 79683944 80008376 80365968 80786672 81289728 81872184 82509568 
656.643 83170768 83837408 84515728 85236928 86043816 86968120 88021936 
660.018 89194200 90464720 91820408 93267616 94826824 96517136 98334960 
663.393 100244472 102178888 104065032 105842992 107466376 108908776 
666.285 110142904 111130240 111822248 112186056 112235872 112032328 
669.178 111652240 111145128 110519368 109754680 108825760 107724728 
672.071 106474120 105128144 103752088 102408936 101133960 99929928 98777320 
675.446 97651608 96538488 95439616 94368008 93338232 92357440 91423776 
678.820 90531200 89678576 88874104 88135000 87478640 86913240 86430480 
682.195 86005488 85606648 85201768 84768264 84298104 83791552 83252768 
685.570 82682368 82077224 81432792 80751880 80048248 79347744 78682088 
688.945 78082360 77568392 77145560 76805392 76530688 76300400 76093400 
692.320 75892064 75680168 75442280 75166080 74843432 74474608 74070696 
695.694 73654320 73256192 72907336 72638256 72473008 72428072 72515256 
699.069 72740736 73105688 73605176 74225632 74944176 75726712 76534760 
702.444 77327648 78068840 78733760 79309680 79795696 80198832 80532056 
705.819 80811064 81054344 81284064 81525568 81803296 82140072 82551000 
709.194 83041864 83610520 84250632 84958248 85736200 86595792 87552320 
712.569 88617752 89787392 91031656 92287360 93469904 94479448 95221144 
715.943 95632424 95693344 95439288 94952032 94357096 93800032 93414312 
719.318 93316912 93581320 94230216 95233976 96510768 97937392 99346304 
722.693 100556144 101393960 101711696 101431000 100557520 99193264 97511312 
726.068 95728320 94061768 92668840 91637680 90977480 90638224 90536136 
729.443 90584136 90717096 90890912 91082160 91277424 91463848 91627488 
732.817 91758648 91856352 91933120 92010472 92113200 92257856 92448936 
736.192 92678808 92934744 93205360 93485560 93775528 94076296 94382544 
739.567 94682168 94957552 95192560 95381040 95529480 95655008 95776400 
742.942 95908448 96056040 96215952 96383296 96557400 96744336 96955528 
746.317 97200072 97477928 97778288 98082800 98373400 98639280 98881608 
749.692 99109880 99334848 99560360 99780272 99980896 100150200 100284456 
753.066 100392904 100493752 100607600 100747104 100913232 101096480 
755.959 101284376 101469200 101650936 101837136 102035112 102247392 
758.852 102468552 102688808 102900024 103102304 103304176 103518464 
761.744 103753224 104006968 104268280 104523088 104764920 105003480 
764.637 105264208 105583272 105994208 106516416 107153480 107895080 
767.530 108725648 109630648 110600872 111632992 112731880 113919344 
770.423 115248160 116823760 118794336 121331024 124573616 128546744 
773.315 133087624 137787952 142064560 145201584 146533968 145668752 
776.208 142568400 137601664 131392808 124708224 118233976 112431088 
779.101 107540608 103568128 100370536 97729736 95441224 93357368 91390152 
782.475 89509288 87715952 86026360 84460232 83041256 81798168 80760304 
785.850 79955552 79402520 79106128 79060736 79257456 79693296 80377128 
789.225 81330808 82581336 84157192 86080456 88368160 91038320 94114600 
792.600 97626592 101603288 106055488 110955584 116212504 121669832 127097144 
795.975 132187840 136608752 139999872 142013632 142386320 140956832 
798.867 137719968 132830024 126594928 119428704 111763824 104042384 96640384 
802.242 89830256 83801320 78637880 74339688 70846808 68065048 65892556 
805.617 64231640 63008988 62173576 61690184 61532444 61667388 62042912 
808.992 62588304 63208340 63792772 64239972 64459428 64388900 64001516 
812.367 63299224 62310012 61076616 59656756 58113404 56510072 54912376 
815.742 53377368 51949556 50660740 49525336 48544260 47708900 47007632 
819.116 46430008 45969564 45624168 45394196 45279924 45281764 45401188 
822.491 45643596 46019696 46547240 47248244 48142312 49241556 50541760 
825.866 52017564 53614300 55249400 56817296 58185568 59219604 59798948 
829.241 59832112 59285036 58187352 56633496 54758768 52723492 50689524 
832.616 48784500 47103676 45699252 44581904 43731404 43104360 42647392 
835.990 42299036 42000520 41704180 41374328 40994912 40569220 40115856 
839.365 39661620 39232628 38849352 38521660 38250152 38030712 37858380 
842.740 37730816 37648384 37612108 37620672 37669016 37749392 37853172 
846.115 37973392 38107500 38255112 38417356 38593608 38781196 38976624 
849.490 39178120 39388132 39614464 39868304 40162084 40505492 40903488 
852.865 41357092 41864732 42425460 43040584 43712860 44446040 45243040 
856.239 46105424 47035176 48036900 49120180 50301140 51601644 53045048 
859.614 54656844 56460828 58476848 60721360 63201480 65909288 68810768 
862.989 71839656 74893936 77829440 80485280 82695560 84306304 85210760 
866.364 85355840 84755624 83488264 81693064 79556424 77273248 75045816 
869.739 73053304 71427520 70261424 69598072 69434320 69727528 70401408 
873.113 71356792 72466312 73590336 74587432 75314344 75656696 75538712 
876.488 74931656 73859576 72391032 70629376 68686440 66677740 64710408 
879.863 62868492 61221336 59820664 58697992 57871504 57342172 57095756 
883.238 57101384 57315556 57688208 58162912 58687180 59218348 59724656 
886.613 60193760 60632540 61069792 61549052 62122420 62841996 63745148 
889.987 64849108 66147180 67612688 69204648 70877744 72594552 74324984 
893.362 76048744 77752672 79423000 81042040 82584344 84011336 85270752 
896.737 86298096 87011408 87324864 87160008 86454696 85184952 83371424 
900.112 81084296 78429456 75540408 72565224 69636688 66873768 64370340 
903.487 62186000 60355276 58887944 57774376 56991088 56505960 56286116 
906.862 56299884 56523092 56940884 57546136 58337436 59314928 60478196 
910.236 61824484 63348940 65043540 66896452 68887184 70980424 73127488 
913.611 75264024 77317240 79224496 80940352 82450720 83776040 84970216 
916.986 86113096 87292128 88602104 90127616 91930584 94047080 96472288 
920.361 99157416 102000288 104861384 107583568 110009016 112028128 113599648 
923.736 114770672 115669384 116496248 117501200 118926520 120997208 
926.628 123882032 127659632 132302848 137649600 143413328 149144352 
929.521 154271536 158189200 160271632 160025328 157186688 151764256 
932.414 144069584 134648416 124227112 113538792 103236928 93856456 85725912 
935.789 79011368 73743928 69858184 67241328 65764500 65312036 65771832 
939.163 67024028 68931760 71302160 73886560 76408000 78558464 80064424 
942.538 80737352 80489264 79359600 77493288 75121248 72497792 69858064 
945.913 67399376 65243760 63449324 62021584 60931604 60133284 59575912 
949.288 59215692 59012916 58933140 58947184 59028100 59153076 59305776 
952.663 59475172 59656376 59848688 60053604 60272812 60507368 60758324 
956.037 61026620 61314432 61624880 61961120 62325120 62716640 63133924 
959.412 63573160 64031236 64505816 64996816 65505288 66032476 66578508 
962.787 67142040 67720680 68311680 68913664 69527096 70154048 70797352 
966.162 71459160 72140120 72839424 73555952 74288688 75038136 75806080 
969.537 76594832 77405608 78239008 79094128 79970208 80867464 81787848 
972.912 82734120 83709504 84716432 85755576 86827320 87932344 89073536 
976.286 90256360 91487984 92775120 94123328 95535600 97013408 98559408 
979.661 100179656 101884184 103687848 105605624 107650640 109831864 
982.554 112152088 114607792 117188320 119875488 122636688 125419456 
985.447 128152712 130739224 133064616 135017664 136494528 137421648 
988.339 137767984 137545664 136810464 135650432 134186312 132551688 
991.232 130880464 129306304 127937720 126855416 126111848 125726400 
994.125 125695512 125999304 126612800 127510832 128671168 130076688 
997.017 131710576 133555088 135592432 137802976 140167344 142667280 
999.910 145279216 147971248 150699856 153402576 156006112 158435264 
1002.803 160618256 162504560 164069536 165317824 166281136 167015440 
1005.695 167599808 168122416 168680368 169371568 170276384 171457408 
1008.588 172950752 174765296 176889664 179299872 181971264 184880992 
1011.481 188011664 191349376 194876736 198572848 202414048 206374352 
1014.374 210430272 214558256 218724592 222876976 226933664 230773264 
1017.266 234254416 237225584 239548944 241135152 241953904 242046496 
1020.159 241516512 240530656 239301072 238049024 237008192 236385360 
1023.052 236331008 236941232 238238640 240183136 242679712 245602992 
1025.945 248818480 252181536 255556400 258812464 261812928 264433264 
1028.838 266562112 268114384 269049312 269370272 269122912 268376416 
1031.731 267216384 265732800 264006256 262114880 260123824 258074640 
1034.624 255978224 253801856 251472288 248874944 245879840 242368320 
1037.517 238242544 233450432 227985584 221882528 215209856 208063968 
1040.410 200569392 192861440 185087360 177396000 169912032 162739488 
1043.303 155953920 149597712 143694960 138255328 133279968 128767696 
1046.196 124714192 121111696 117947872 115205992 112866480 110907240 
1049.089 109306416 108042544 107092168 106431360 106033584 105869544 
1051.982 105911320 106132184 106507480 107015432 107631536 108323720 
1054.875 109052200 109763040 110391776 110873920 111144832 111150400 
1057.768 110855832 110244408 109323464 108123664 106702472 105139088 
1060.661 103526544 101972584 100579616 99437528 98621736 98181240 98141400 
1064.037 98505280 99255760 100357632 101757136 103389760 105175888 107025600 
1067.412 108853040 110573776 112116520 113430496 114479552 115242848 
1070.305 115710816 115880816 115756448 115347496 114672024 113755696 
1073.198 112630432 111337552 109923864 108443224 106960872 105545120 
1076.091 104268112 103200208 102396224 101893864 101708056 101830568 
1078.984 102232424 102868272 103684608 104616456 105591424 106535520 
1081.877 107367600 108013776 108419872 108559904 108450368 108151088 
1084.770 107767400 107430904 107285048 107478480 108134080 109344952 
1087.663 111163064 113587640 116559040 119949896 123583376 127224448 
1090.556 130604608 133472440 135599536 136825312 137080096 136382672 
1093.449 134836576 132600872 129881592 126891496 123820376 120834936 
1096.343 118048872 115524144 113276496 111279064 109474960 107783880 
1099.236 106121320 104402552 102550440 100510200 98249656 95766656 93089040 
1102.611 90274512 87402736 84559368 81834296 79307096 77037856 75072912 
1105.986 73440384 72153928 71217680 70628168 70377048 70451088 70833392 
1109.361 71502600 72430920 73585784 74927520 76405752 77963720 79532864 
1112.737 81034104 82388992 83519464 84358168 84859984 85000600 84780272 
1116.112 84219088 83354720 82235640 80914400 79448352 77891320 76289488 
1119.487 74683240 73102040 71566624 70092720 68691640 67372832 66144436 
1122.862 65010556 63969956 63014692 62131556 61304776 60521844 59779368 
1126.238 59086600 58466420 57949952 57574356 57372612 57367580 57569172 
1129.613 57971464 58555060 59286252 60122132 61013008 61900900 62729276 
1132.988 63447216 64014948 64414224 64650684 64755136 64775056 64770056 
1136.363 64801252 64916932 65150736 65514536 65997496 66567384 67172944 
1139.739 67754288 68242120 68570328 68684688 68542864 68121712 67415672 
1143.114 66434196 65198436 63737632 62089580 60295008 58398076 56445356 
1146.489 54479104 52537792 50653704 48848864 47137912 45528448 44022820 
1149.864 42621476 41324328 40132136 39046436 38068652 37199864 36439992 
1153.240 35788444 35244476 34807728 34478728 34257852 34145068 34139372 
1156.615 34239028 34442356 34748748 35158636 35674292 36297684 37029984 
1159.990 37870380 38815580 39859876 40995204 42210840 43491336 44815300 
1163.365 46156200 47479156 48745316 49915776 50950772 51815920 52483644 
1166.740 52932184 53149292 53131804 52886676 52429956 51785384 50983080 
1170.116 50053324 49026880 47932804 46796008 45639956 44487076 43357388 
1173.491 42271312 41247404 40300504 39442516 38680924 38019176 37458216 
1176.866 36997800 36637472 36377440 36218440 36161684 36208968 36362564 
1180.241 36626004 37004436 37503328 38128048 38882720 39768940 40786964 
1183.617 41936324 43218280 44636836 46198692 47911124 49779828 51804460 
1186.992 53976696 56275820 58667800 61105944 63524836 65847284 67989672 
1190.367 69863128 71393616 72529784 73251216 73572752 73540496 73225288 
1193.742 72703400 72050376 71329656 70582200 69829392 69074104 68306328 
1197.118 67509528 66667384 65768748 64807788 63784600 62702364 61564284 
1200.493 60372028 59125208 57823240 56468412 55068896 53641480 52209584 
1203.868 50801916 49449732 48179112 47010472 45955532 45016804 44189548 
1207.243 43464532 42830996 42277812 41794716 41373164 41005360 40684844 
1210.619 40407404 40171748 39980324 39838484 39754348 39736736 39793816 
1213.994 39932304 40157392 40472936 40881716 41385408 41983876 42674404 
1217.369 43451788 44308824 45237596 46231752 47286848 48400408 49571572 
1220.744 50799864 52085024 53428104 54833008 56308480 57867608 59528216 
1224.120 61309124 63226588 65292312 67510104 69874296 72367896 74962456 
1227.495 77614976 80263992 82836680 85245312 87393216 89190496 90553160 
1230.870 91414688 91736216 91508760 90761656 89560552 88013696 86261152 
1234.245 84455032 82763472 81342640 80325184 79827424 79935000 80708664 
1237.621 82191352 84406904 87362544 91044728 95416584 100408064 105906504 
1240.996 111769136 117808480 123799272 129507480 134675696 139052992 
1243.889 142430432 144644112 145609904 145330800 143896256 141466128 
1246.782 138241664 134464752 130379168 126212864 122178056 118430824 
1249.675 115063456 112093920 109461616 107037984 104643856 102099784 
1252.568 99247104 95985104 92293800 88231608 83924584 79528600 75217208 
1255.943 71144600 67419536 64108996 61228620 58753144 56625908 54773880 
1259.319 53120568 51588328 50112972 48645908 47154012 45622728 44052012 
1262.694 42453264 40843492 39242888 37671548 36146520 34683356 33295390 
1266.069 31992734 30783522 29671990 28658036 27737454 26903448 26149086 
1269.444 25468302 24857658 24315394 23839818 23428126 23075414 22775296 
1272.820 22521656 22309670 22136488 22000318 21899074 21828654 21783048 
1276.195 21755142 21738072 21727658 21722398 21723268 21732326 21751034 
1279.570 21780226 21819384 21867712 21923610 21983554 22040160 22081470 
1282.945 22091616 22052572 21950234 21778240 21541546 21256054 20945820 
1286.321 20639870 20363896 20139250 19981432 19899700 19900914 19990000 
1289.696 20170556 20444290 20809154 21259464 21784338 22369180 22996802 
1293.071 23645102 24287852 24896604 25438296 25883410 26209442 26405278 
1296.446 26474966 26436088 26318490 26154294 25975914 25811038 25679268 
1299.822 25594560 25564862 25593118 25676842 25807242 25970076 26145358 
1303.197 26310782 26446370 26535156 26565660 26532056 26432250 26267520 
1306.572 26042122 25764416 25447256 25107190 24764444 24437814 24142532 
1309.947 23888790 23680512 23518532 23402666 23334588 23317702 23356162 
1313.323 23452324 23605988 23813776 24071850 24377458 24730700 25134258 
1316.698 25591046 26101970 26664474 27272230 27918078 28595642 29301096 
1320.073 30032054 30785476 31554140 32325096 33079368 33793724 34446228 
1323.448 35018216 35499008 35888480 36199348 36457904 36700276 36973808 
1326.823 37327340 37800788 38419712 39183452 40064036 41006272 41940956 
1330.199 42799732 43524152 44082264 44469788 44709624 44842520 44920336 
1333.574 44998316 45124612 45340644 45677716 46153548 46773612 47529648 
1336.949 48404112 49371172 50402972 51475284 52566660 53660488 54743244 
1340.324 55802488 56825832 57801632 58716692 59556492 60302432 60927716 
1343.700 61400068 61681476 61732348 61521488 61028756 60249556 59194236 
1347.075 57886688 56361260 54657072 52820324 50901856 48953884 47035620 
1350.450 45208328 43529028 42052752 40821688 39861764 39184212 38785256 
1353.825 38650976 38758552 39079612 39577552 40203956 40903992 41615304 
1357.201 42274380 42828952 43237792 43476688 43538768 43432196 43179704 
1360.576 42814616 42386480 41958256 41599516 41385044 41376440 41609868 
1363.951 42093312 42807268 43716196 44775480 45941828 47171520 48413448 
1367.326 49610720 50695924 51592952 52233652 52562360 52545568 52177452 
1370.702 51477852 50491024 49276592 47914600 46499812 45129172 43904912 
1374.077 42912004 42202660 41792564 41660488 41764656 42057280 42503248 
1377.452 43086576 43810380 44693168 45763420 47056480 48607476 50448932 
1380.827 52599496 55048056 57732368 60520244 63226356 65608784 67412800 
1384.203 68423800 68474304 67486728 65487952 62633768 59198108 55522184 
1387.578 51971624 48826764 46241664 44248432 42785692 41747516 41015960 
1390.953 40490756 40090964 39753836 39435948 39106472 38747472 38355248 
1394.328 37938860 37515756 37103384 36712928 36345988 35996676 35657640 
1397.704 35325700 35005464 34709804 34455340 34255592 34117220 34038016 
1401.079 34009852 34023144 34071416 34153348 34274452 34445264 34679944 
1404.454 34993004 35393672 35884196 36458012 37102408 37801372 38540380 
1407.829 39309592 40103536 40920668 41760900 42622788 43503276 44397628 
1411.205 45300224 46204996 47103492 47982056 48820356 49592816 50271340 
1414.580 50835548 51277056 51603624 51835856 52004604 52146220 52296960 
1417.955 52496880 52786988 53201268 53762252 54469900 55300656 56215588 
1421.330 57171944 58135224 59082080 60008824 60930156 61875032 62875500 
1424.706 63954292 65117864 66355400 67647264 68973432 70322160 71687208 
1428.081 73062480 74435400 75779416 77054432 78218024 79234040 80087016 
1431.456 80786600 81366048 81872616 82354784 82859656 83429880 84110496 
1434.831 84963200 86068216 87516856 89390488 91715880 94450824 97496840 
1438.207 100732984 104037624 107285424 110350504 113075696 115279312 
1441.100 116794928 117477880 117246648 116094304 114080072 111312800 
1443.993 107921752 104053744 99846232 95414808 90869224 86311184 81853416 
1447.368 77641048 73830984 70565800 67940344 65974080 64623996 63811920 
1450.743 63462740 63519040 63943424 64709328 65780388 67102908 68618408 
1454.118 70264272 71992928 73782992 75630280 77541816 79514160 81526368 
1457.494 83532960 85481688 87337744 89084272 90720696 92254784 93700040 
1460.869 95069840 96371632 97603896 98747120 99759888 100590896 101189376 
1464.244 101532032 101639208 101577000 101429528 101261536 101104384 
1467.137 100950688 100770840 100525864 100178616 99691856 99015016 98074992 
1470.512 96773192 94999576 92680984 89833144 86595544 83192280 79853832 
1473.888 76734176 73883616 71284632 68905352 66740796 64828328 63233904 
1477.263 62014208 61200544 60785004 60735612 61017928 61615796 62538436 
1480.638 63815108 65477236 67540600 69995704 72811760 75950624 79378928 
1484.013 83082384 87059144 91304200 95795200 100462552 105168920 109720344 
1487.389 113852720 117257800 119633160 120703016 120289736 118371904 
1490.282 115113032 110837096 105931112 100768584 95612144 90593032 85753960 
1493.657 81071992 76510568 72065640 67779232 63746340 60095116 56939372 
1497.032 54342472 52301184 50767200 49670004 48943832 48541372 48428040 
1500.407 48576272 48960264 49549956 50311888 51212108 52208168 53250224 
1503.783 54277136 55196536 55885460 56190848 55948472 55050616 53510548 
1507.158 51475468 49149232 46697672 44203820 41687952 39148752 36597452 
1510.533 34064604 31608980 29300846 27196170 25331822 23714348 22326204 
1513.908 21138460 20120404 19246020 18493802 17847928 17297858 16837548 
1517.284 16465025 16178621 15971255 15828174 15725954 15636293 15538307 
1520.659 15429392 15334610 15297404 15360080 15539029 15819238 16164692 
1524.034 16536063 16906922 17267724 17629342 18014402 18447402 18941232 
1527.409 19492970 20088442 20710794 21349144 22000528 22669020 23361580 
1530.785 24083722 24839168 25631466 26466268 27352150 28297378 29301556 
1534.160 30348354 31407758 32442440 33418686 34305572 35078380 35720304 
1537.535 36218692 36571032 36784724 36881708 36889608 36834060 36735176 
1540.910 36604484 36449000 36271600 36069612 35831012 35535972 35166144 
1544.286 34712568 34185936 33615040 33036854 32480396 31952966 31440884 
1547.661 30917668 30359510 29758634 29132402 28517438 27956984 27477900 
1551.036 27080872 26742802 26432250 26124666 25812974 25509868 25239174 
1554.411 25020662 24855026 24719934 24573312 24366278 24049540 23586010 
1557.787 22967038 22236008 21497258 20876492 20458808 20247340 20188224 
1561.162 20211064 20257686 20288826 20278376 20215368 20102566 19957426 
1564.537 19806678 19678208 19591092 19547176 19533414 19528356 19514042 
1567.912 19483338 19445150 19421518 19440126 19520556 19664478 19856724 
1571.288 20073208 20291812 20494618 20669266 20806860 20898464 20937820 
1574.663 20926034 20879654 20833070 20831368 20914630 21096404 21362682 
1578.038 21682412 22024440 22366842 22701346 23032718 23373644 23739440 
1581.413 24141130 24582462 25058924 25559452 26067524 26562278 27020182 
1584.789 27412568 27710152 27888118 27930516 27837172 27626248 27336166 
1588.164 27018702 26732934 26539630 26487962 26613742 26936726 27457214 
1591.539 28153820 28978332 29860662 30703644 31395436 31832938 31927500 
1594.914 31629582 30937912 29900876 28605516 27153524 25650866 24182922 
1598.290 22809064 21568740 20481350 19553344 18781946 18157408 17665954 
1601.665 17292964 17027788 16865206 16806240 16854116 17010456 17271104 
1605.040 17624752 18051876 18526132 19017450 19487252 19892764 20189716 
1608.415 20333476 20289314 20038438 19582806 18947148 18176030 17329582 
1611.791 16467160 15636912 14869174 14171423 13535121 12943884 12383418 
1615.166 11847986 11346305 10899832 10535422 10272508 10115319 10050817 
1618.541 10055192 10102431 10165651 10221214 10250593 10241128 10190820 
1621.916 10110164 10021893 9952796 9924048 9942625 10000465 10080490 
1625.292 10165143 10244180 10316582 10388080 10466548 10558167 10664578 
1628.667 10782733 10907443 11034603 11161120 11284104 11398413 11495605 
1632.042 11562942 11587000 11556476 11467402 11326783 11156293 10991986 
1635.417 10873604 10830527 10870241 10977985 11126513 11287878 11440356 
1638.792 11567774 11659014 11709253 11719227 11695910 11650130 11593568 
1642.168 11533372 11469545 11394739 11296855 11164656 10992258 10785450 
1645.543 10562920 10356012 10196858 10107892 10093139 10138348 10218738 
1648.918 10306200 10376610 10406100 10370196 10243570 10004432 9652222 
1652.293 9228504 8834720 8592807 8568508 8738696 9023008 9341089 9634741 
1656.151 9875370 10054785 10175386 10246080 10275800 10271050 10233664 
1659.526 10162666 10057260 9919709 9758139 9587280 9424888 9288991 9191817 
1663.384 9136860 9118114 9122750 9135980 9141191 9122817 9067463 8963439 
1667.241 8804963 8594496 8347009 8087915 7847768 7654424 7522721 7451794 
1671.098 7427256 7429447 7437536 7432952 7402348 7337170 7236861 7110202 
1674.956 6977755 6865276 6792202 6764739 6772783 6797251 6816166 6812800 
1678.813 6779749 6719376 6641280 6556099 6469255 6375938 6261900 6108608 
1682.671 5903777 5654092 5394418 5178355 5053937 5033389 5091752 5185396 
1686.528 5274970 5337759 5365299 5361408 5336048 5301433 5267524 5239923 
1690.385 5220808 5210043 5205516 5202934 5194886 5170475 5115521 5017098 
1694.243 4869371 4682104 4482497 4309418 4193579 4139987 4126138 4113695 
1698.100 4066500 3959220 3790493 3587521 3407016 3307477 3314088 3408386 
1701.958 3545628 3682746 3788154 3848322 3862730 3841703 3802159 3763387 
1705.815 3742064 3746342 3776355 3825858 3886800 3950860 4011753 4066032 
1709.673 4112457 4152264 4187223 4218739 4246442 4268225 4280305 4279167 
1713.530 4262771 4231085 4185550 4128346 4061584 3987074 3909902 3839497 
1717.387 3790861 3780165 3818337 3904185 4025397 4161898 4294092 4406208 
1721.245 4489528 4543431 4573801 4590878 4604173 4620682 4642048 4665994 
1725.102 4688635 4707024 4719920 4727423 4729433 4724174 4708866 4681234 
1728.960 4640675 4589639 4531746 4468738 4397204 4308581 4189464 4029043 
1732.817 3826928 3603156 3398768 3259469 3213602 3255496 3353488 3466196 
1736.675 3559458 3613547 3620864 3586785 3526153 3459951 3407150 3379132 
1740.532 3378030 3398568 3433099 3474713 3519806 3565805 3610774 3652305 
1744.389 3687993 3716030 3735647 3747545 3752993 3752425 3745974 3733341 
1748.247 3714727 3691936 3668678 3650802 3644787 3655647 3685486 3732639 
1752.104 3791897 3855810 3915586 3963165 3990284 3990050 3959287 3899337 
1755.962 3818838 3730968 3651002 3590160 3550137 3523848 3498361 3461053 
1759.819 3402575 3321968 3225886 3128425 3044465 2984575 2951814 2941372 
1763.677 2944608 2951847 2956051 2952681 2939338 2915753 2883065 2844241 
1767.534 2803587 2764705 2729827 2696785 2659679 2611308 2546312 2466130 
1771.391 2382299 2313139 2281162 2300448 2370638 2477893 2602708 2727126 
1775.249 2839539 2936769 3020841 3095720 3163535 3222314 3266980 3292320 
1779.106 3296593 3283539 3261906 3242911 3234833 3240207 3255129 3272088 
1782.964 3284541 3289415 3288914 3288347 3294189 3309314 3332619 3359498 
1786.821 3384175 3402375 3411091 3408887 3393659 3362136 3310683 3236969 
1790.678 3143843 3040260 2942507 2869089 2832535 2835603 2869389 2918656 
1794.536 2967127 3002391 3018406 3013868 2990213 2949979 2895506 2829200 
1798.393 2754068 2675414 2600275 2536514 2490357 2464564 2457433 2463864 
1802.251 2478660 2498055 2520283 2545046 2571510 2597342 2618442 2630676 
1806.108 2631509 2621309 2603242 2582676 2564310 2551412 2544379 2542580 
1809.966 2545512 2553845 2570410 2597575 2636043 2683149 2733161 2779544 
1813.823 2816827 2843241 2860417 2872991 2886867 2905780 2931765 2964291 
1817.680 3000756 3039059 3077332 3114441 3148649 3177820 3198348 3207227 
1821.538 3201586 3180824 3146146 3100125 3047268 2992782 2942340 2901377 
1825.395 2873592 2859817 2856949 2858316 2855715 2841240 2810457 2765238 
1829.253 2715023 2674147 2656245 2669680 2712622 2775709 2845475 2910283 
1833.110 2964291 3007662 3045166 3082839 3124854 3171445 3219744 3266446 
1836.968 3310549 3355157 3407050 3472542 3555650 3654444 3762384 3868948 
1840.825 3964302 4041684 4098910 4139586 4171533 4207196 4259927 4340909 
1844.682 4457222 4608459 4787822 4983078 5180400 5366138 5529236 5663860 
1848.540 5769447 5849738 5910696 5957016 5990408 6009019 6009120 5987787 
1852.397 5944655 5882953 5807895 5724121 5633850 5535880 5427666 5306799 
1856.255 5173795 5032953 4890918 4753484 4624165 4502517 4385757 4270601 
1860.112 4156312 4044728 3940127 3846383 3765192 3695144 3632959 3575026 
1863.969 3519539 3466530 3416968 3370851 3326175 3279500 3227689 3170945 
1867.827 3115175 3070892 3049503 3057845 3095152 3152488 3216940 3276195 
1871.684 3323671 3357995 3382405 3401373 3417870 3432063 3441682 3443886 
1875.542 3437140 3422512 3402241 3378465 3351217 3318662 3277563 3226487 
1879.399 3166439 3101226 3035789 2973432 2914619 2856548 2795450 2729093 
1883.257 2659679 2593075 2536047 2493323 2464331 2443072 2419648 2385530 
1887.114 2336525 2275466 2211220 2154542 2116016 2100900 2108558 2134329 
1890.971 2172057 2216448 2263242 2309442 2351948 2387229 2413317 2430010 
1894.829 2440573 2450702 2466897 2493423 2530581 2575309 2622475 2667913 
1898.686 2710055 2750033 2790849 2834203 2879329 2923692 2962923 2994617 
1902.544 3019407 3040728 3062884 3089045 3119314 3150785 3178721 3199483 
1906.401 3211032 3214570 3212067 3205224 3193842 3176886 3153456 3124753 
1910.259 3094785 3068189 3049703 3040327 3037324 3035222 3028182 3013234 
1914.116 2990547 2962389 2931165 2897207 2857882 2809657 2750666 2684216 
1917.973 2618542 2564410 2529015 2513385 2509852 2507119 2493789 2463898 
1921.831 2419781 2370771 2328363 2300615 2288357 2284859 2280662 2267473 
1925.688 2243458 2212652 2182447 2159470 2145418 2137027 2128037 2113153 
1929.546 2090646 2062946 2034849 2010282 1989111 1968042 1942580 1910563 
1933.403 1874189 1839915 1813662 1799056 1794298 1792967 1787643 1774801 
1937.260 1756370 1738938 1730056 1733183 1745159 1756869 1757401 1738938 
1941.118 1701148 1651155 1600569 1559167 1531402 1514544 1502308 1488776 
1944.975 1473116 1458854 1452205 1456892 1472485 1493231 1511584 1523455 
1948.833 1529639 1535325 1547695 1570839 1603097 1637851 1666355 1682487 
1952.690 1686146 1681889 1676101 1672575 1670580 1664094 1646798 1615269 
1956.548 1571404 1522723 1478103 1441999 1414108 1388445 1359494 1325659 
1960.405 1293123 1271689 1272353 1298374 1344704 1397354 1441566 1467065 
1964.262 1471986 1462744 1450110 1442231 1441500 1443162 1440735 1430928 
1968.120 1416135 1403670 1401010 1410983 1428601 1444525 1448016 1434884 
1971.977 1408889 1380701 1362585 1362253 1381033 1413210 1453202 1499947 
1975.835 1558003 1635822 1739304 1865171 1998631 2118613 2205858 2249687 
1979.692 2251952 2222243 2174554 2119346 2061281 1999996 1935790 1872426 
1983.550 1818520 1785980 1783718 1813795 1869730 1938985 2009017 2072867 
1987.407 2130034 2185544 2243725 2304612 2361177 2403322 2422480 2417749 
1991.264 2397258 2375269 2365907 2375802 2402222 2433709 2458733 2469929 
1995.122 2467797 2460366 2458133 2467697 2488891 2514584 2535847 2546179 
1998.979 2544746 2537214 2530248 2528682 2530881 2530215 2518317 2489690 
2002.837 2444871 2390161 2333859 2283161 2240827 2205025 2172357 2141122 
2006.694 2112387 2090446 2078494 2076096 2077661 2077262 2069238 2054290 
2010.552 2038277 2029855 2034982 2053525 2077195 2094141 2094841 2076829 
2014.409 2045701 2013544 1993006 1991608 2008983 2038777 2073699 2110090 
2018.266 2149780 2198298 2261044 2338290 2424312 2509019 2582342 2637976 
2022.124 2675514 2698785 2711322 2713889 2703786 2677248 2632943 2576076 
2025.981 2515384 2462932 2427545 2410818 2407520 2409186 2409552 2407320 
2029.839 2407886 2419514 2448203 2493623 2548912 2602908 2647477 2678982 
2033.696 2700486 2719124 2740797 2767639 2797351 2826565 2854280 2885333 
2037.553 2927329 2988111 3070225 3167941 3268583 3358029 3425050 3465962 
2041.411 3485568 3493017 3497426 3503606 3511756 3517969 3519739 3517067 
2045.268 3513893 3514962 3523915 3539481 3558021 3574224 3585416 3591897 
2049.126 3596975 3602187 3606364 3604359 3589425 3557554 3510921 3457145 
2052.983 3409454 3379800 3373456 3386880 3409822 3428356 3431796 3417269 
2056.841 3389985 3359999 3337026 3326275 3327243 3335524 3346342 3357160 
2060.698 3369649 3387581 3412994 3445556 3480792 3513025 3538479 3556618 
2064.555 3571518 3588690 3611843 3640778 3671752 3698218 3715428 3722079 
2068.413 3721377 3717801 3715328 3714894 3713858 3708177 3695612 3676263 
2072.270 3654076 3633092 3616153 3602488 3588356 3568845 3541118 3506244 
2076.128 3468568 3434435 3407617 3388650 3373690 3357662 3336826 3311350 
2079.985 3284641 3262908 3250689 3249621 3257232 3268216 3278665 3286377 
2083.843 3292420 3299565 3309781 3322569 3334722 3341200 3337093 3320432 
2087.700 3292119 3255329 3213702 3170210 3126022 3082371 3040327 3002524 
2091.557 2972631 2953916 2947477 2951614 2962389 2974766 2985476 2993583 
2095.415 2999788 3006094 3013368 3020808 3026380 3028849 3028182 3027448 
2099.272 3030884 3042096 3061983 3088578 3117378 3144177 3167006 3186665 
2103.130 3206459 3229224 3255062 3280968 3302369 3314455 3315791 3309013 
2106.987 3300166 3295658 3300166 3314255 3335457 3359965 3384743 3409521 
2110.844 3435704 3465695 3499597 3535606 3569513 3597410 3617589 3632090 
2114.702 3645455 3662563 3686790 3718169 3753862 3789892 3823117 3853069 
2118.559 3881016 3908832 3936817 3963700 3985803 3999614 4003760 3999279 
2122.417 3989682 3979115 3969853 3961794 3952900 3940295 3922908 3902112 
2126.274 3880682 3861426 3844477 3826794 3802928 3767431 3717099 3652773 
2130.132 3578367 3500098 3423480 3352252 3288213 3232162 3185998 3152888 
2133.989 3135466 3134966 3147949 3166105 3180056 3180591 3163135 3128591 
2137.846 3083106 3032753 2982406 2933233 2883265 2831301 2778710 2730027 
2141.704 2692851 2672814 2671414 2684349 2703753 2720824 2730694 2733128 
2145.561 2731027 2727159 2721558 2708188 2679115 2627942 2554645 2467363 
2149.419 2379667 2305078 2252784 2223342 2208422 2195767 2174488 2137593 
2153.276 2083088 2012778 1928468 1831230 1723835 1613340 1515641 1453634 
2157.134 1454598 1537387 1706038 1941648 2208189 2465364 2679382 2835103 
2160.991 2934134 2990480 3020241 3036156 3044431 3045032 3038759 3028182 
2164.848 3019407 3019440 3034121 3063651 3103362 3146046 3185263 3216573 
2168.706 3239639 3255062 3263809 3265678 3259035 3243378 3220045 3193575 
2172.563 3170344 3155725 3151987 3157227 3167440 3177019 3182326 3182159 
2176.421 3177420 3168308 3155158 3135667 3107400 3071159 3031051 2993950 
2180.278 2967961 2958386 2965225 2984174 3007896 3030751 3050804 3072027 
2184.135 3098523 3135066 3181792 3233865 3284942 3329781 3366577 3398668 
2187.993 3432063 3472275 3521309 3576763 3632291 3681643 3720341 3747612 
2191.850 3765092 3775720 3780500 3779764 3772846 3761047 3748347 3741128 
2195.708 3745339 3764624 3797914 3839095 3878977 3910705 3929294 3934878 
2199.565 3930799 3920869 3907528 3891380 3871555 3848422 3825022 3806738 
2203.423 3799785 3807774 3830638 3862663 3896395 3924212 3941732 3949255 
2207.280 3950526 3950359 3952465 3958885 3967947 3978447 3989081 3999848 
2211.137 4011051 4022956 4034561 4043423 4047771 4047604 4045095 4044895 
2214.995 4050982 4065798 4088675 4115668 4141626 4163236 4179829 4193713 
2218.852 4208300 4226133 4247078 4268627 4286261 4296467 4297973 4291682 
2222.710 4279569 4264110 4245640 4223122 4195152 4161898 4125202 4088809 
2226.567 4056668 4031016 4011686 3996003 3981021 3965305 3950258 3938990 
2230.425 3936048 3944106 3962931 3989081 4017405 4043290 4064092 4079845 
2234.282 4091987 4102790 4113929 4125135 4136608 4148483 4161463 4176618 
2238.139 4194516 4213419 4230349 4241390 4244000 4238345 4228174 4218137 
2241.997 4214155 4218939 4232289 4250658 4269999 4286864 4300416 4312497 
2245.854 4325649 4341813 4361391 4381841 4400819 4416384 4428902 4440049 
2249.712 4452837 4469173 4489092 4510988 4533052 4553811 4573767 4594428 
2253.569 4617567 4643723 4671721 4698081 4719384 4732280 4735596 4729868 
2257.427 4717072 4698951 4677482 4654205 4631365 4611406 4597877 4593222 
2261.284 4598112 4610602 4626040 4638766 4644292 4641177 4631533 4620481 
2265.141 4613716 4615659 4628418 4651090 4681166 4715967 4753249 4791138 
2268.999 4828762 4863508 4892627 4913001 4923423 4924294 4918597 4910789 
2272.856 4905092 4903986 4907136 4912632 4917625 4920205 4920172 4918731 
2276.714 4917726 4918664 4922216 4928248 4936358 4947317 4962667 4983748 
2280.571 5011501 5044820 5080253 5113610 5141036 5160315 5171816 5178020 
2284.428 5181775 5186034 5191935 5199312 5207830 5217085 5227146 5239185 
2288.286 5253572 5270241 5287513 5303948 5317969 5329474 5340376 5352921 
2292.143 5369828 5392405 5419949 5450179 5480377 5507860 5531182 5550378 
2296.001 5566588 5580919 5594512 5607904 5621599 5636133 5651742 5669063 
2299.858 5687258 5705454 5721602 5733723 5740538 5742016 5739330 5734159 
2303.716 5727981 5721401 5713411 5702902 5688601 5670540 5649762 5627976 
2307.573 5607233 5588303 5570817 5553801 5535847 5516249 5495544 5474639 
2311.430 5454809 5437026 5420989 5406127 5391801 5377611 5363891 5350908 
2315.288 5338933 5326690 5312501 5294423 5270979 5242371 5210479 5178053 
2319.145 5148445 5123433 5103821 5088835 5076766 5065502 5053099 5037814 
2323.003 5016964 4988239 4949161 4897921 4834893 4762596 4685085 4607689 
2326.860 4535563 4471115 4415614 4367784 4325983 4289039 4257250 4231955 
2330.718 4215359 4208568 4211512 4222118 4237843 4255376 4272709 4288838 
2334.575 4303294 4316144 4327422 4336826 4344825 4352255 4360521 4370763 
2338.432 4384285 4400551 4418358 4435932 4451832 4465223 4476974 4488222 
2342.290 4500509 4515106 4533922 4559972 4597509 4652933 4732749 4841561 
2346.147 4979424 5140835 5315688 5490041 5650634 5785934 5887588 5951507 
2350.005 5977642 5969210 5932159 5874489 5805544 5733420 5665975 5608340 
2353.862 5563501 5531887 5512121 5502255 5500242 5504269 5513833 5528934 
2357.719 5550378 5578234 5612972 5654763 5703507 5759744 5824316 5897798 
2361.577 5980329 6071646 6170611 6275683 6384949 6496598 6608814 6719746 
2365.434 6826735 6927589 7019812 7101816 7172617 7232515 7282616 7324365 
2369.292 7359176 7388732 7414852 7439997 7467570 7501179 7544399 7599829 
2373.149 7668419 7750781 7846486 7955170 8077147 8213543 8364844 8531471 
2377.007 8712496 8905770 9108842 9319457 9535593 9756749 9982935 10213818 
2380.864 10448525 10685632 10922598 11156531 11384637 11603981 11811111 
2384.239 12002534 12174142 12321579 12441994 12533792 12597776 12636867 
2387.615 12655186 12656755 12644270 12618857 12580176 12527722 12460849 
2390.990 12380521 12288686 12188385 12082316 11973208 11863003 11753371 
2394.365 11645808 11541947 11443179 11350624 11264550 11185224 11112711 
2397.740 11048062 10993346 10951956 10928136 10924976 10944072 10985020 
2401.115 11045309 11121380 11209670 11307670 11414027 11528779 11652173 
2404.491 11784725 11926718 12078228 12239300 12410454 12591807 12783712 
2407.866 12986079 13198617 13421169 13654024 13897816 14153246 14420711 
2411.241 14698419 14982923 15268574 15548232 15814118 16060054 16281052 
2414.616 16473733 16636649 16769320 16871648 16944614 16989644 17009044 
2417.992 17005908 16983340 16944130 16890424 16823668 16744800 16654896 
2421.367 16555751 16449401 16338330 16224880 16110737 15997723 15887387 
2424.742 15781922 15684865 15600366 15532641 15485288 15460463 15458334 
2428.117 15477940 15517909 15577114 15655769 15754640 15874945 16017593 
2431.493 16183056 16370431 16578091 16804450 17047602 17305444 17576274 
2434.868 17858458 18151260 18454768 18770528 19101406 19450624 19821452 
2438.243 20215612 20633374 21073274 21533330 22012240 22509826 23027442 
2441.618 23567262 24131604 24721616 25337372 25977954 26641326 27325648 
2444.994 28029076 28750212 29486946 30236830 30997194 31764488 32535244 
2448.369 33305980 34073064 34832960 35581824 36316088 37032728 37729768 
2451.744 38406244 39062316 39697416 40309848 40895984 41449412 41961688 
2455.119 42423668 42825732 43158812 43416228 43591956 43681788 43682996 
2458.495 43593496 43411872 43137880 42770992 42311196 41759480 41117824 
2461.870 40389948 39581580 38700344 37755608 36757640 35717316 34644844 
2465.245 33550498 32444940 31337988 30240064 29162132 28113874 27105064 
2468.620 26144124 25236962 24388288 23600494 22874160 22208354 21601404 
2471.996 21050632 20552560 20103294 19697970 19331508 18999244 18696114 
2475.371 18418158 18161934 17924544 17703468 17496028 17300306 17114082 
2478.746 16936276 16765324 16600432 16440935 16285935 16135048 15988408 
2482.121 15846524 15710803 15582816 15463897 15354484 15254401 15162711 
2485.497 15078279 15000758 14930794 14869517 14818328 14777703 14747023 
2488.872 14723782 14705342 14688958 14673536 14659518 14648483 14642417 
2492.247 14643137 14650848 14665379 14685806 14711101 14741092 14775989 
2495.622 14815619 14859471 14906207 14953428 14999111 15041746 15080578 
2498.998 15116050 15148746 15179181 15207008 15231957 15253302 15270771 
2502.373 15284842 15296614 15307083 15316830 15325857 15333649 15339999 
2505.748 15345079 15349644 15355343 15363307 15374051 15387164 15401205 
2509.123 15413942 15423761 15428877 15427675 15418886 15400622 15371065 
2512.499 15328500 15272247 15202479 15120991 15030187 14932303 14829608 
2515.874 14723577 14614762 14504707 14395399 14289612 14191108 14102791 
2519.249 14026231 13961830 13908285 13863366 13824883 13791158 13761094 
2522.624 13734111 13709249 13685961 13663462 13641784 13621816 13605884 
2526.000 13596243 13595287 13604106 13622603 13648760 13680524 13715917 
2529.375 13753536 13792287 13832066 13872055 13911603 13949854 13986433 
2532.750 14021885 14057750 14095877 14137842 14184363 14234965 14288242 
2536.125 14343136 14398927 14456199 14516458 14581318 14652116 14729096 
2539.500 14811437 14898011 14987450 15078828 15171392 15264764 15357608 
2542.876 15448549 15536007 15619188 15698023 15774088 15848964 15924437 
2546.251 16001059 16078724 16155716 16230382 16301692 16369639 16435085 
2549.626 16499165 16562842 16625874 16687984 16747866 16804656 16858112 
2553.001 16908474 16956052 17000912 17042676 17080618 17114290 17143552 
2556.377 17168750 17190810 17210012 17225698 17236246 17239280 17232730 
2559.752 17214976 17186122 17147240 17100744 17048774 16992918 16934140 
2563.127 16872958 16809270 16743354 16675761 16606698 16536888 16466711 
2566.502 16396478 16327355 16260892 16199015 16144024 16098049 16061636 
2569.878 16034886 16016942 16006352 16002502 16004978 16014019 16029490 
2573.253 16051527 16079102 16110908 16145503 16182473 16221613 16263954 
2576.628 16310189 16361209 16416779 16476037 16537646 16600605 16663883 
2580.003 16727755 16792498 16859318 16929178 17003118 17081892 17165958 
2583.379 17255278 17349030 17445840 17543706 17640626 17735082 17826730 
2586.754 17916326 18004972 18094154 18184322 18274648 18363264 18448024 
2590.129 18527306 18600894 18670034 18737142 18804954 18875578 18949608 
2593.504 19026418 19104626 19182018 19257138 19329672 19400000 19469372 
2596.880 19539724 19613170 19691486 19776334 19868344 19967554 20073452 
2600.255 20184754 20300284 20419526 20542626 20670032 20803140 20942690 
2603.630 21088404 21239596 21394600 21551990 21711218 21872068 22035768 
2607.005 22203228 22374936 22550098 22727146 22903358 23076604 23244744 
2610.381 23406724 23561594 23708330 23845630 23971486 24083304 24179172 
2613.756 24257474 24318058 24361654 24389444 24403324 24404760 24394878 
2617.131 24374690 24345322 24307650 24263150 24213190 24159170 24102672 
2620.506 24044988 23987630 23932240 23880040 23832362 23789662 23752424 
2623.882 23720612 23693982 23672988 23657942 23649896 23649686 23658432 
2627.257 23676558 23704584 23742694 23790572 23848430 23915678 23991552 
2630.632 24074862 24163690 24256352 24351244 24447594 24545436 24645546 
2634.007 24748836 24856360 24968158 25084688 25205006 25328906 25456144 
2637.383 25586512 25719836 25855840 25993644 26132196 26270264 26406546 
2640.758 26540580 26671942 26800598 26926856 27050578 27172290 27291882 
2644.133 27409850 27526862 27643586 27760730 27878612 27997658 28118044 
2647.508 28240232 28364718 28492494 28624130 28760302 28900696 29045174 
2650.884 29192890 29343774 29498118 29657232 29822474 29995412 30176622 
2654.259 30366226 30562772 30764742 30970578 31179286 31390518 31604882 
2657.634 31822812 32045380 32272596 32504678 32740780 32980546 33222950 
2661.009 33467714 33714292 33961804 34209632 34457060 34702840 34946752 
2664.385 35188244 35427388 35664980 35901832 36138920 36377516 36618216 
2667.760 36861616 37107460 37355396 37605132 37856460 38109344 38364692 
2671.135 38622904 38885004 39151072 39420748 39692912 39965868 40237652 
2674.510 40506292 40770220 41027940 41278196 41520176 41753348 41977528 
2677.885 42193236 42402116 42606344 42809056 43013804 43223772 43442484 
2681.261 43672772 43917264 44178252 44457456 44756636 45076788 45418548 
2684.636 45781680 46165820 46570072 46993416 47434876 47892992 48366372 
2688.011 48853240 49351904 49861216 50379976 50908152 51446036 51993884 
2691.386 52552488 53121656 53701244 54290768 54890076 55498728 56117056 
2694.762 56744944 57382668 58029932 58686688 59352800 60028376 60713468 
2698.137 61408196 62112024 62823920 63542016 64264140 64988004 65712152 
2701.512 66435776 67158360 67879328 68597296 69309928 70013448 70703576 
2704.887 71374832 72022536 72641240 73225912 73771288 74272096 74723424 
2708.263 75121280 75462696 75746312 75972216 76141008 76253752 76311456 
2711.638 76315048 76265400 76163552 76010648 75807504 75554680 75252232 
2715.013 74899608 74495888 74040912 73535112 72980120 72378704 71734928 
2718.388 71053080 70337744 69593944 68827272 68042912 67246784 66445120 
2721.764 65643548 64848104 64064368 63297532 62552408 61833920 61146260 
2725.139 60493316 59878396 59303800 58770936 58281008 57834372 57431492 
2728.514 57072740 56758464 56488636 56262956 56080556 55939652 55838508 
2731.889 55775056 55747484 55754112 55793292 55863376 55962644 56089152 
2735.265 56240932 56416000 56612204 56827532 57059628 57305420 57561340 
2738.640 57823548 58087080 58347480 58600676 58842868 59071072 59283292 
2742.015 59478512 59656340 59817660 59964240 60098692 60223940 60343244 
2745.390 60459192 60573840 60688820 60805316 60924096 61045764 61170712 
2748.766 61299132 61430752 61564932 61701108 61839500 61980880 62127468 
2752.141 62282096 62448332 62629828 62830240 63051932 63297532 63568360 
2755.516 63865924 64191304 64545220 64927360 65336452 65770208 66225052 
2758.891 66695824 67177160 67662512 68145160 68618288 69074848 69507920 
2762.267 69911032 70277984 70602824 70880824 71107488 71279632 71395216 
2765.642 71453960 71457200 71407912 71310400 71169696 70991424 70781600 
2769.017 70546264 70291424 70023888 69749120 69473128 69200568 68935288 
2772.392 68680032 68436952 68207184 67991840 67791704 67606880 67436912 
2775.768 67280248 67134776 66996960 66863140 66728780 66588744 66437596 
2779.143 66268972 66076032 65852992 65594332 65297552 64962336 64591432 
2782.518 64190536 63766488 63326976 62879404 62429852 61983672 61544548 
2785.893 61115900 60699716 60297748 59910380 59537868 59179196 58833724 
2789.269 58500388 58178596 57868440 57569892 57283004 57007900 56744304 
2792.644 56491092 56248020 56014284 55788996 55571700 55361324 55156280 
2796.019 54954528 54753356 54549804 54340520 54122744 53893712 53651564 
2799.394 53394716 53121956 52832784 52526908 52204540 51866024 51512360 
2802.770 51143856 50761468 50365800 49957672 49538632 49110088 48674596 
2806.145 48234980 47794740 47357864 46928108 46509324 46105056 45718356 
2809.520 45351788 45007396 44687108 44391940 44122900 43880312 43664680 
2812.895 43475628 43312976 43176048 43063412 42974184 42906848 42859996 
2816.271 42832496 42823868 42834328 42864204 42915296 42989256 43088076 
2819.646 43213196 43365772 43546240 43753792 43987256 44244724 44524188 
2823.021 44823232 45140200 45473148 45820596 46180856 46551556 46929768 
2826.396 47311680 47692108 48065804 48426524 48767596 49083304 49367868 
2829.771 49616144 49825128 49993172 50120556 50209368 50263192 50286664 
2833.147 50284248 50260924 50221348 50170464 50113636 50056452 50004808 
2836.522 49964360 49939788 49934660 49951572 49992240 50058720 50153804 
2839.897 50281568 50447924 50660404 50926892 51257184 51661464 52150476 
2843.272 52736664 53433496 54253972 55210456 56311240 57557108 58938076 
2846.648 60429792 61992764 63567592 65081836 66454120 67596152 68430360 
2850.023 68894752 68950280 68588912 67831136 66725416 65335104 63736820 
2853.398 62010728 60228164 58455236 56746496 55140816 53666748 52340164 
2856.773 51165732 50139708 49251168 48485460 47824740 47251236 46748408 
2860.149 46300640 45894724 45520092 45168180 44832748 44510680 44200848 
2863.524 43904472 43624412 43364492 43128508 42920528 42744232 42602544 
2866.899 42498024 42432512 42406536 42419212 42467952 42548852 42656416 
2870.274 42784484 42926524 43075856 43226008 43371300 43506536 43628844 
2873.650 43737084 43833172 43921264 44008228 44101780 44209028 44336340 
2877.025 44487776 44665772 44870992 45103256 45362160 45646728 45955604 
2880.400 46287296 46639164 47007964 47390936 47784792 48186184 48592428 
2883.775 49000100 49405140 49803908 50192000 50565768 50922984 51262480 
2887.151 51584592 51891076 52184440 52467528 52743772 53017456 53292888 
2890.526 53575728 53872480 54189856 54535564 54917864 55345288 55827692 
2893.901 56375556 56999664 57709852 58513164 59411000 60396204 61451824 
2897.276 62549040 63646308 64696096 65645552 66442608 67046880 67431264 
2900.652 67587752 67528136 67282456 66893868 66409180 65878480 65346272 
2904.027 64847916 64412884 64062408 63811420 63671208 63649768 63752748 
2907.402 63984616 64348668 64847916 65485908 66266848 67194568 68272056 
2910.777 69499136 70870336 72372096 73983944 75674368 77402208 79121392 
2914.153 80777616 82314928 83683152 84836784 85743792 86388480 86770712 
2917.528 86905144 86816640 86536664 86096328 85522280 84835856 84050176 
2920.903 83172216 82204728 81149200 80008288 78788416 77500384 76159840 
2924.278 74786592 73401112 72024760 70676672 69372008 68122992 66937892 
2927.654 65821676 64777172 63804976 62904380 62073376 61309204 60607896 
2931.029 59965152 59376088 58836380 58341604 57887976 57472452 57092428 
2934.404 56746040 56431436 56147444 55891980 55663104 55457464 55270888 
2937.779 55098688 54935648 54777828 54622728 54470312 54322384 54182908 
2941.155 54056280 53946380 53855152 53782388 53724228 53674136 53623184 
2944.530 53560472 53473932 53352868 53188684 52976468 52717512 52418588 
2947.905 52092944 51756564 51428132 51124620 50858828 50638140 50463596 
2951.280 50330900 50231056 50152836 50084560 50014956 49934248 49835348 
2954.656 49712616 49562360 49382864 49173608 48934708 48667404 48373184 
2958.031 48054072 47712744 47352804 46977912 46592608 46201972 45810248 
2961.406 45422192 45041720 44672016 44316124 43976400 43654784 43353032 
2964.781 43072600 42814468 42579844 42369680 42184912 42026068 41893448 
2968.156 41785924 41701116 41635140 41583068 41538988 41497972 41456160 
2971.532 41411360 41363504 41314164 41265624 41220592 41181280 41148496 
2974.907 41121760 41098192 41072404 41036572 40979364 40887940 40748788 
2978.282 40548484 40277088 39928924 39503696 39006964 38449504 37847024 
2981.657 37216428 36576728 35946388 35340864 34773768 34254408 33787920 
2985.033 33376318 33018726 32712982 32457150 32250966 32095178 31990982 
2988.408 31937346 31927894 31948398 31977430 31985990 31941232 31813968 
2991.783 31582222 31236678 30782704 30240206 29640204 29016374 28402636 
2995.158 27826574 27305254 26846486 26449612 26108408 25813572 25555726 
2998.534 25326658 25119548 24928924 24750766 24581796 24419516 24262834 
3001.909 24111392 23965326 23825188 23691078 23562572 23438826 23319206 
3005.284 23203112 23091386 22985484 22886734 22796562 22715624 22643256 
3008.659 22578054 22518412 22462788 22410102 22360248 22313228 22269174 
3012.035 22228022 22189348 22152666 22117728 22084712 22054070 22027054 
3015.410 22004642 21987980 21977838 21974840 21979092 21990384 22008162 
3018.785 22030854 22056894 22083806 22108874 22129932 22144786 22152178 
3022.160 22151446 22141996 22123690 22096532 22060972 22017712 21968252 
3025.536 21914932 21860290 21806808 21756642 21710974 21670292 21634452 
3028.911 21602868 21574730 21549136 21525216 21501678 21476962 21449494 
3032.286 21417818 21380990 21338808 21291930 21241718 21190086 21139224 
3035.661 21091464 21049032 21014358 20989320 20975376 20973114 20982156 
3039.037 21000690 21026010 21055362 21085762 21115396 21143400 21170466 
3042.412 21198052 21227906 21261622 21300038 21342810 21388892 21435882 
3045.787 21481940 21525146 21564598 21600254 21633338 21665066 21697074 
3049.162 21730098 21763922 21797158 21827888 21853810 21872974 21884336 
3052.538 21887192 21882208 21870606 21853322 21832312 21809002 21784720 
3055.913 21760856 21738944 21719368 21702754 21689170 21678616 21670848 
3059.288 21665798 21663602 21663986 21666668 21670778 21675132 21678544 
3062.663 21680112 21679694 21677988 21676630 21677604 21682828 21693662 
3066.039 21710624 21733232 21760508 21791094 21823776 21857296 21890920 
3069.414 21924340 21957344 21990072 22023080 22056614 22091058 22126864 
3072.789 22164276 22203506 22244728 22288532 22335272 22385506 22439444 
3076.164 22496880 22556974 22618648 22680294 22740868 22799564 22856070 
3079.540 22910730 22963998 23016612 23068916 23121298 23173510 23224820 
3082.915 23274458 23320640 23362106 23397388 23426412 23449948 23470792 
3086.290 23492162 23518044 23551274 23593112 23642932 23698602 23757148 
3089.665 23815632 23872478 23927476 23981222 24034798 24088696 24142882 
3093.041 24196724 24249696 24301448 24352996 24405778 24461720 24522298 
3096.416 24587932 24657926 24731086 24805490 24879624 24952506 25023436 
3099.791 25092306 25159256 25224424 25288340 25351422 25414476 25478208 
3103.166 25542864 25608302 25674242 25739842 25804816 25869098 25932862 
3106.542 25997126 26062176 26128362 26195330 26262556 26329474 26395982 
3109.917 26462676 26530190 26599546 26671168 26745198 26821356 26899076 
3113.292 26977906 27057808 27138674 27219876 27301128 27381334 27459404 
3116.667 27534804 27607392 27677946 27747874 27818908 27892356 27968964 
3120.042 28048976 28131938 28217354 28304450 28392732 28481172 28568852 
3123.418 28654568 28737504 28816986 28893402 28967634 29040888 29114474 
3126.793 29189204 29265366 29342818 29421382 29500776 29581178 29662944 
3130.168 29746178 29830354 29914650 29997970 30079420 30158864 30236440 
3133.543 30313390 30390922 30469748 30550578 30633558 30718152 30804578 
3136.919 30892550 30982178 31072854 31163658 31253130 31339872 31423074 
3140.294 31502802 31579904 31656236 31733368 31812474 31893448 31976004 
3143.669 32058864 32141558 32224200 32307680 32393030 32481146 32571960 
3147.044 32664932 32759000 32853302 32947302 33041466 33136904 33234182 
3150.420 33333958 33435754 33538866 33641932 33744124 33844868 33944424 
3153.795 34043140 34141880 34241176 34341756 34443972 34547896 34653604 
3157.170 34760704 34868400 34975728 35081864 35185944 35288248 35389428 
3160.545 35490880 35594016 35699940 35809024 35920692 36034148 36148212 
3163.921 36262308 36375928 36489220 36602284 36714912 36826236 36935384 
3167.296 37041136 37142832 37240328 37333876 37424008 37511420 37595884 
3170.671 37677152 37754452 37826636 37893372 37954588 38010820 38062720 
3174.046 38111264 38156772 38199136 38237884 38272224 38301972 38327268 
3177.422 38349492 38370160 38391480 38415256 38442516 38473144 38506416 
3180.797 38540924 38575360 38608852 38641412 38673464 38706248 38740296 
3184.172 38775872 38812720 38850328 38887616 38924580 38961004 38997576 
3187.547 39034764 39072976 39112272 39152160 39191864 39230780 39268532 
3190.923 39304912 39340280 39375104 39409968 39445272 39481196 39517668 
3194.298 39554104 39590148 39624920 39658172 39689576 39719304 39748100 
3197.673 39776748 39806312 39836924 39868664 39900588 39932012 39961800 
3201.048 39989920 40016692 40042672 40069012 40096376 40124684 40153576 
3204.424 40182288 40210096 40236956 40262444 40286688 40309520 40330828 
3207.799 40349880 40367004 40382532 40397804 40414348 40433696 40456572 
3211.174 40482396 40509676 40536336 40560236 40580244 40596360 40609708 
3214.549 40621936 40634340 40647880 40662652 40678404 40695144 40712648 
3217.925 40730952 40750420 40770984 40792204 40813972 40835884 40858236 
3221.300 40881640 40906800 40934248 40963560 40993640 41022732 41049132 
3224.675 41071824 41090980 41108064 41125036 41143688 41165472 41190716 
3228.050 41218916 41248972 41280200 41312192 41344700 41378228 41412928 
3231.426 41448360 41484740 41520976 41556960 41592328 41627044 41661256 
3234.801 41695136 41728840 41762360 41796032 41829960 41864296 41899616 
3238.176 41936032 41973916 42013296 42054540 42097580 42142596 42189148 
3241.551 42236512 42283476 42328548 42370844 42409568 42445372 42479132 
3244.927 42512860 42547868 42585144 42624728 42665852 42707412 42748544 
3248.302 42789128 42829460 42870128 42911676 42954032 42996172 43037584 
3251.677 43077024 43113948 43148856 43182376 43215504 43249248 43283840 
3255.052 43318836 43353436 43386460 43416924 43444024 43467424 43486760 
3258.427 43502328 43514376 43523424 43530344 43536060 43541260 43546824 
3261.803 43553236 43560344 43567888 43574996 43580672 43583972 43583896 
3265.178 43580160 43572688 43561920 43548732 43534264 43519648 43505624 
3268.553 43492216 43479616 43466544 43451824 43434136 43412460 43386388 
3271.928 43355924 43322132 43286620 43250932 43217004 43186328 43159616 
3275.304 43136632 43116104 43096236 43074832 43050132 43021488 42989144 
3278.679 42954616 42919796 42886880 42856852 42830704 42807740 42787044 
3282.054 42767704 42748908 42730372 42711984 42693740 42675428 42656380 
3285.429 42636316 42614600 42591212 42566540 42541292 42516296 42492324 
3288.805 42469560 42448184 42428164 42409388 42392180 42377276 42365364 
3292.180 42357512 42354552 42357148 42365476 42379684 42398828 42422064 
3295.555 42447600 42473980 42499340 42522944 42544140 42563548 42581964 
3298.930 42600712 42621108 42643916 42669580 42698384 42729972 42764192 
3302.306 42800792 42839552 42880148 42922244 42965516 43009856 43055292 
3305.681 43102128 43150684 43201340 43254152 43308988 43365408 43423480 
3309.056 43482988 43544156 43607488 43673364 43741772 43812540 43885116 
3312.431 43958544 44032284 44105556 44178324 44250520 44322508 44394656 
3315.807 44467440 44541112 44615792 44691148 44766628 44841232 44913980 
3319.182 44983764 45050692 45114724 45176856 45237816 45298532 45359144 
3322.557 45419104 45477600 45533928 45587508 45638628 45688064 45736320 
3325.932 45784220 45831532 45878192 45923708 45967908 46011224 46053776 
3329.308 46096256 46137888 46177836 46213984 46244244 46266876 46280584 
3332.683 46285192 46281140 46269196 46250216 46225448 46196296 46164496 
3336.058 46131956 46100600 46071420 46043900 46016084 45985292 45948456 
3339.433 45903232 45848988 45786096 45716184 45640988 45561416 45477340 
3342.809 45388348 45293164 45191268 45082708 44968216 44848768 44725304 
3346.184 44598428 44468796 44336928 44204148 44071780 43941424 43814040 
3349.559 43689520 43566788 43443288 43317044 43186404 43050828 42910796 
3352.934 42767776 42623412 42479132 42336072 42195540 42058520 41926288 
3356.310 41800556 41682444 41572824 41471868 41378992 41292844 41212136 
3359.685 41135200 41060752 40987484 40914116 40839632 40763416 40685356 
3363.060 40606112 40527244 40450064 40376312 40306760 40242012 40181928 
3366.435 40126792 40076680 40031808 39991876 39956276 39923260 39890640 
3369.811 39855624 39816404 39771412 39720940 39665612 39606116 39543108 
3373.186 39476480 39405616 39329868 39249020 39163436 39073484 38979920 
3376.561 38882108 38779060 38668684 38548848 38417648 38274324 38118712 
3379.936 37951660 37773608 37585300 37386848 37178240 36959988 36733048 
3383.312 36499128 36260292 36018168 35774052 35527920 35279264 35027124 
3386.687 34770572 34509116 34243292 33973908 33702512 33430674 33159826 
3390.062 32890934 32625068 32362222 32102528 31845416 31590450 31337098 
3393.437 31085206 30834456 30585346 30338014 30092630 29848986 29607144 
3396.813 29366960 29128788 28893438 28662144 28435890 28215340 27999886 
3400.188 27788282 27578334 27368136 27155746 26940746 26723422 26504760 
3403.563 26285998 26068016 25851408 25636034 25422100 25209220 24998130 
3406.938 24789456 24583900 24381944 24183658 23988750 23796450 23606478 
3410.313 23418262 23232054 23048196 22867070 22689406 22515340 22345076 
3413.689 22178502 22015238 21854890 21696900 21540396 21385028 21230376 
3417.064 21076682 20924124 20773562 20625554 20480482 20338478 20199330 
3420.439 20062832 19928944 19797904 19670234 19546480 19427062 19311520 
3423.814 19199436 19089634 18981000 18872810 18764680 18656578 18548884 
3427.190 18441838 18335544 18230000 18124968 18020306 17916084 17812542 
3430.565 17709750 17607810 17506756 17406692 17307306 17208770 17111118 
3433.940 17014522 16919360 16825182 16731991 16639473 16547559 16455974 
3437.315 16365614 16276648 16189454 16104100 16019829 15935883 15851231 
3440.691 15764879 15676688 15587281 15497341 15407797 15319542 15232574 
3444.066 15146139 15059377 14970747 14879735 14786273 14691632 14597697 
3447.441 14507106 14422459 14345123 14275572 14212744 14154170 14097144 
3450.816 14038892 13977228 13911022 13840345 13765882 13688765 13610124 
3454.192 13530916 13451893 13373841 13297237 13223073 13151791 13083593 
3457.567 13017557 12952385 12886197 12816983 12743311 12664772 12582291 
3460.942 12497541 12412330 12328977 12248570 12172199 12099726 12031216 
3464.317 11966464 11904820 11846182 11789832 11734920 11680321 11624741 
3467.693 11566991 11506016 11441071 11371916 11299100 11223508 11146536 
3471.068 11070461 10997355 10929427 10868236 10814459 10767720 10726283 
3474.443 10687839 10649603 10609129 10564787 10516140 10463017 10407050 
3477.818 10349089 10290694 10232850 10176200 10121356 10068757 10018842 
3481.194 9972121 9929065 9890013 9854694 9822292 9791485 9760207 9726490 
3485.051 9688676 9645649 9597646 9545923 9492953 9441514 9394888 9355816 
3488.908 9326126 9306424 9296100 9293662 9296709 9302395 9308049 9311366 
3492.766 9310893 9306356 9298537 9289126 9280257 9273826 9271151 9272506 
3496.623 9277651 9285945 9296573 9309504 9324806 9343155 9364890 9390046 
3500.481 9418318 9448455 9479712 9511884 9545381 9581793 9623425 9672515 
3504.338 9730726 9798331 9874421 9956762 10042612 10129496 10215379 10300126 
3508.196 10384517 10471163 10562920 10662133 10770640 10887568 11010949 
3511.571 11137017 11261864 11382494 11497103 11605888 11710138 11812065 
3514.946 11912925 12013537 12113081 12210570 12304298 12393408 12477762 
3518.321 12558041 12634650 12707588 12775897 12837596 12890191 12931049 
3521.697 12958120 12970034 12966210 12946922 12912173 12862374 12797464 
3525.072 12717858 12623530 12515206 12393816 12261317 12120134 11973004 
3528.447 11822892 11672050 11521498 11371508 11220754 11067810 10910502 
3531.822 10747511 10577722 10400739 10216668 10025929 9829375 9628913 
3535.198 9426817 9226440 9031398 8845371 8670647 8508257 8357243 8215670 
3539.055 8080320 7948758 7818416 7687608 7555322 7420515 7282447 7140483 
3542.912 6994120 6843935 6691480 6538474 6388413 6243950 6108138 5982614 
3546.770 5868511 5765418 5671379 5583235 5497021 5407972 5312199 5206992 
3550.627 5092020 4969973 4846084 4727188 4619644 4527963 4453674 4394593 
3554.485 4346866 4305570 4266351 4226200 4183710 4138515 4090348 4038774 
3558.342 3983295 3923108 3857815 3788622 3717668 3647761 3581841 3522144 
3562.199 3468601 3419740 3371886 3320632 3261339 3190170 3105197 3007529 
3566.057 2901510 2794317 2695218 2613108 2553778 2518684 2504353 2504820 
3569.914 2511752 2517051 2515284 2503020 2479993 2447970 2410718 2371937 
3573.772 2334692 2300515 2269371 2239795 2210221 2179084 2145917 2111189 
3577.629 2075630 2040308 2005888 1972701 1940516 1909232 1879114 1850862 
3581.487 1825574 1803980 1786113 1770143 1752810 1729324 1694296 1643073 
3585.344 1573233 1485950 1386684 1285978 1195297 1126526 1087162 1078625 
3589.201 1095698 1128785 1166757 1198852 1216794 1215963 1195363 1157588 
3593.059 1108122 1054278 1003429 961420 932132 916127 911910 915198 921307 
3597.398 925491 922901 910815 888237 856298 818253 779315 745890 723022 
3601.738 714460 720998 741144 770519 803547 834785 858589 870375 866689 
3606.078 845574 806601 751267 683396 608468 532790 462631 401339 350102 
3610.417 306995 269463 235414 204717 179756 164541 163116 177336 204982 
3614.757 239890 273375 294827 294727 266777 208595 123706 21007 -84483 
3619.096 -175839 -238035 -261150 -242903 -188822 -109891 -18488 73696 157017 
3623.436 225867 276923 308753 319496 306365 263893 186651 70945 -80806 
3627.776 -256050 -428973 -565958 -638255 -632664 -557751 -436983 -299594 
3631.633 -169480 -62850 12359 56066 73563 73431 63423 49041 32472 13154 
3636.455 -10006 -37539 -67621 -96541 -119266 -131522 -130694 -115953 -88790 
3640.794 -52249 -9575 35488 78534 114990 139483 145880 128711 83174 7190 
3645.616 -98728 -229458 -375809 -525684 -665219 -780731 -861293 -899320 
3649.474 -891152 -836854 -741734 -615227 -471340 -326611 -197831 -99092 
3653.331 -40951 -28925 -61691 -130462 -219888 -309129 -376537 -406993 
3657.188 -394513 -343828 -265521 -173090 -79878 4439 72337 119994 146178 
3661.528 153073 144786 126689 104517 83141 65411 52951 45594 42281 41021 
3666.350 39497 35554 27634 16799 9178 19085 67201 179159 376101 665178 
3671.172 1036741 1467764 1932628 2406553 2870824 3311317 3710583 4044159 
3675.029 4280874 4386828 4340173 4140188 3806036 3368748 2862785 2325565 
3678.886 1792667 1299205 876218 541416 297081 130932 22564 -50261 -104624 
3683.226 -148978 -186438 -217371 -243930 -271879 -309891 -366539 -447542 
3687.083 -551794 -670611 -788900 -889995 -961181 -997579 -1001678 -980389 
3690.941 -941476 -891285 -834110 -774347 -715635 -661778 -615955 -579458 
3694.798 -551728 -530019 -510792 -490570 -467766 -443107 -420068 -403881 
3698.656 -400174 -413448 -445722 -495998 -558247 -623300 -680073 -717686 
3702.513 -729892 -715403 -679345 -629918 -577275 -530847 -496891 -478787 
3706.371 -476504 -488187 -510262 -539683 -573469 -609702 -646526 -683514 
3710.228 -718711 -750962 -778151 -797400 -805999 -801170 -780962 -745339 
3714.085 -696085 -637362 -574098 -512248 -457009 -411958 -378854 -357799 
3717.943 -347768 -347966 -358892 -382132 -418877 -469123 -529457 -593323 
3721.800 -651853 -697011 -723276 -730190 -721622 -704289 -684440 -666211 
3725.658 -650133 -633061 -611455 -582503 -546632 -508243 -474849 -454361 
3729.515 -454526 -480178 -532402 -607385 -696250 -788172 -871643 -939228 
3733.373 -988488 -1022537 -1045246 -1059294 -1063888 -1054501 -1026041 
3736.748 -976422 -908776 -831067 -754402 -688476 -640571 -613937 -608676 
3740.605 -623135 -656584 -709978 -786155 -886060 -1005348 -1126685 -1220928 
3744.463 -1256710 -1215146 -1103682 -951758 -798888 -680272 -620190 -633325 
3748.320 -719538 -865062 -1041742 -1215047 -1351354 -1427319 -1434453 
3751.695 -1376457 -1265068 -1115349 -944650 -770709 -608974 -473624 -374650 
3755.553 -317672 -302905 -325618 -376670 -443934 -515590 -581378 -632796 
3759.410 -664094 -670049 -647949 -598055 -525982 -441220 -356409 -284031 
3763.268 -234260 -211906 -215615 -238201 -270223 -302408 -330088 -354025 
3767.125 -379483 -411793 -453533 -501988 -548783 -582867 -593091 -573105 
3770.982 -523500 -450852 -364983 -277044 -196738 -131422 -85477 -61127 
3774.840 -58080 -74743 -107738 -153780 -209058 -268965 -328432 -380477 
3778.697 -417387 -431820 -419108 -379517 -319162 -249692 -184219 -134801 
3782.555 -110156 -112939 -140333 -184153 -234658 -281912 -318996 -343166 
3786.412 -355018 -356707 -350350 -337935 -320619 -299759 -277342 -255984 
3790.270 -238135 -225451 -218265 -215516 -215980 -218993 -225186 -236777 
3794.127 -256183 -284759 -321016 -360613 -396665 -422154 -433673 -432581 
3797.984 -426225 -424670 -439366 -478920 -546268 -635443 -730521 -810563 
3801.842 -855010 -853488 -810497 -741734 -668527 -610165 -581378 -587797 
3805.699 -625021 -677790 -723938 -741635 -716197 -647287 -545838 -429039 
3809.557 -312374 -207800 -122015 -56688 -11497 13684 17561 -3412 -53375 
3813.896 -134238 -242639 -367003 -488650 -584223 -635972 -639281 -604110 
3817.754 -550074 -500102 -474584 -487062 -541403 -630116 -735151 -830339 
3821.611 -891285 -904908 -872569 -807553 -726518 -646096 -577043 -523831 
3825.469 -485241 -455254 -426126 -391434 -348330 -298733 -248268 -203792 
3829.326 -171169 -153979 -152555 -164379 -185312 -211012 -238102 -265256 
3833.183 -292408 -321215 -354025 -392461 -438407 -492655 -554376 -620091 
3837.041 -683580 -736971 -771701 -781921 -766442 -729694 -679709 -626179 
3840.898 -578367 -542297 -519793 -509071 -504702 -498943 -484017 -454096 
3844.756 -406827 -343364 -268137 -187730 -109394 -39394 16964 55635 73862 
3849.095 68095 34096 -33696 -141989 -296282 -497487 -736541 -989116 -1217062 
3853.435 -1375004 -1432042 -1383889 -1252943 -1072780 -875578 -684969 
3856.810 -514035 -370048 -256448 -174216 -123969 -104525 -113535 -145930 
3860.667 -194420 -250818 -306679 -355217 -392626 -416659 -426457 -420962 
3864.525 -399081 -360646 -308600 -251116 -199785 -168685 -171501 -216808 
3868.382 -305818 -428675 -565230 -688840 -775405 -813605 -806528 -767732 
3872.240 -712327 -652912 -595275 -538557 -478125 -409409 -331512 -248632 
3876.097 -169248 -103730 -61856 -50526 -71795 -122678 -194420 -273733 
3879.955 -344192 -391534 -406596 -388488 -344060 -286415 -230684 -190412 
3883.812 -175376 -189121 -227273 -277938 -324989 -354389 -358627 -339789 
3887.669 -306845 -272872 -249096 -243069 -256547 -285256 -319559 -346675 
3891.527 -355780 -340385 -300156 -240817 -170308 -97933 -31277 23260 60970 
3895.866 79296 76513 53117 10934 -45755 -111150 -178357 -240056 -290918 
3900.206 -328366 -352999 -367930 -377563 -385840 -395142 -404941 -412488 
3904.063 -413415 -403517 -380146 -343331 -295554 -240817 -183689 -128176 
3907.921 -77327 -32205 6991 41386 72171 100672 127220 151813 173657 191590 
3912.743 204253 210021 207170 194407 170441 135373 90697 39696 -12425 -60100 
3917.564 -97800 -122048 -131422 -126652 -109792 -84019 -53276 -20973 9012 
3921.904 32969 48047 52785 47384 34361 18555 5632 662 6461 22564 45727 70581 
3927.690 91923 105644 109820 104384 91393 73431 53216 33102 15540 2319 -4506 
3932.994 -3379 6361 23360 45329 68592 89404 105080 114095 116548 113797 
3937.816 107466 99247 89703 79131 67399 54707 42181 31246 23592 20742 23492 
3943.120 31412 43606 58253 73464 87217 96994 100838 97093 85162 66372 43672 
3948.424 21371 4307 -3611 -198 14247 37443 66240 96629 125364 149791 168022 
3953.728 178529 180386 173458 158741 138224 115686 95569 81948 78070 85295 
3958.550 103059 128943 159470 190993 219900 243736 260379 269131 269861 
3962.889 263396 251626 236674 221027 207203 196661 190463 188706 190894 
3967.229 196463 204783 215292 227359 240155 252720 263893 272646 278017 
3971.568 279774 278415 274768 269927 265418 262832 264224 270656 283487 
3975.908 302884 327985 356635 385884 412549 433609 447108 452448 449828 
3980.248 440243 425284 406612 386083 365456 347118 333191 325498 324967 
3984.587 331168 342708 356768 370662 381871 388504 389897 386680 379252 
3988.927 369170 357265 345062 333688 324602 318700 316843 318634 323475 
3993.266 329742 335379 339093 339657 336905 331201 323575 315086 306995 
3997.606 299900 294363 290052 286836 283487 279442 273906 
##END=
