
##TITLE=1675_1_e
##JCAMP-DX=5.01  $$ Nicolet v. 1
##DATATYPE=INFRARED SPECTRUM
##ORIGIN=UniL
##OWNER=Nicolet
##LONGDATE=2011/09/16
##TIME=11:27:13
##SPECTROMETER/DATA SYSTEM=Nicolet iS5
##DATA PROCESSING=
Ratio against background
%Transmittance->Absorbance
Truncated
ElementMultiply or ElementDivide
##COMMENTS=
Number of sample scans: 32
Collection length: 51.15 sec
Sample gain: 2.0
Background collected on: Ven Sep 16 11:19:38 2011 (GMT+02:00);
Number of background scans: 32
Background gain: 2.0
Sample spacing:  1.000
Number of scan points: 12415
Resolution points: 8192
Number of FFT points: 65536
Apodization: N-B fort;
Phase correction: Mertz;
Laser frequency: 15798.0 cm-1
Number of rejected sample scans: 0
Number of rejected background scans: 0
Bench serial number: ASB1000141;
##RESOLUTION=4.000
##XUNITS=1/CM
##YUNITS=ABSORBANCE
##FIRSTX=649.893372
##LASTX=4000.122314
##FIRSTY=0.075446
##MAXX=4000.122314
##MINX=649.893372
##MAXY=0.246320
##MINY=-0.003817
##XFACTOR=1.000000
##YFACTOR=1.000000E-009
##NPOINTS=6950
##DELTAX=0.482117
##ZPD=6100
##XYDATA=(X++(Y..Y))
649.893 75445512 75068776 74766912 74567760 74473312 74466672 74521976 
653.268 74622336 74766672 74969224 75249752 75621400 76082976 76620288 
656.643 77213440 77847240 78519760 79238808 80016848 80860992 81770168 
660.018 82738096 83761696 84848784 86019504 87296544 88696584 90217984 
663.393 91841120 93535616 95275528 97049280 98846744 100648712 102395096 
666.767 103952624 105134736 105759960 105760008 105228368 104361384 
669.660 103344736 102277208 101180928 100030120 98795488 97470624 96085800 
673.035 94693376 93354408 92108360 90963056 89900600 88892400 87918184 
676.410 86973632 86068944 85218744 84430320 83697368 83002432 82325224 
679.785 81652352 80981072 80317296 79667264 79032272 78405360 77775536 
683.159 77134520 76483072 75832000 75198616 74598096 74036952 73511256 
686.534 73010856 72526176 72053712 71599400 71173016 70783160 70429264 
689.909 70100192 69775768 69436344 69067776 68666448 68239520 67799336 
693.284 67359792 66931092 66520692 66136108 65786788 65486372 65250880 
696.659 65094112 65024912 65044692 65148316 65326864 65572136 65878360 
700.034 66241912 66659660 67125840 67629680 68157952 68696880 69235888 
703.408 69771488 70305488 70842016 71383192 71924768 72456568 72965072 
706.783 73437912 73868768 74258968 74616384 74952408 75278440 75606928 
710.158 75952512 76335784 76787440 77344752 78045600 78919088 79970568 
713.533 81172328 82455960 83725496 84864784 85758688 86324808 86523032 
716.908 86370080 85934600 85332856 84708544 84199624 83935400 84006920 
720.282 84456968 85278944 86411720 87749008 89135856 90395592 91352576 
723.657 91847512 91783528 91142448 89998584 88500208 86844640 85239144 
727.032 83840824 82746672 81981496 81512448 81274424 81196288 81225128 
730.407 81325696 81479880 81676984 81902384 82137192 82362752 82564544 
733.782 82739616 82894584 83041136 83188552 83339904 83492080 83641048 
737.156 83786936 83937008 84102056 84292072 84508688 84744144 84982944 
740.531 85208864 85414248 85601240 85781136 85966264 86164248 86373152 
743.906 86584016 86786288 86975704 87156560 87340376 87538544 87755696 
747.281 87986056 88217000 88435056 88632376 88811496 88981856 89154208 
750.656 89332728 89512704 89683224 89834824 89965968 90085984 90210800 
754.031 90356056 90527848 90720000 90916448 91099736 91260048 91398904 
757.405 91526888 91657072 91798224 91950072 92106848 92262408 92417616 
760.780 92581360 92766960 92983872 93232096 93500352 93773960 94042064 
764.155 94308224 94590376 94918016 95319960 95814208 96405048 97084288 
767.530 97838888 98656328 99528520 100452952 101435056 102495360 103683344 
770.905 105096624 106871024 109163552 112102240 115709648 119837544 
773.797 124113952 128007784 130867200 132085336 131300536 128471776 
776.690 123926856 118228752 112074960 106095344 100718184 96172128 92469840 
780.065 89484808 87019704 84887664 82952776 81133416 79400888 77755920 
783.440 76211928 74785760 73495672 72363952 71413072 70664424 70132360 
786.815 69821408 69728808 69851256 70191752 70764560 71593968 72707080 
790.189 74129176 75877616 77963280 80396752 83193688 86375896 89965440 
793.564 93968912 98359680 103054368 107913208 112731320 117238400 121142968 
796.939 124132344 125906232 126238344 124992552 122166384 117895840 
799.832 112450408 106192056 99499816 92761712 86307184 80372952 75119632 
803.206 70612688 66842616 63746756 61235640 59217060 57608592 56353864 
806.581 55419896 54789180 54450032 54381940 54543076 54871656 55281164 
809.956 55670940 55947416 56028232 55856936 55408904 54686496 53714704 
813.331 52532664 51192312 49750440 48263384 46788296 45373636 44055824 
816.706 42859776 41795956 40864348 40058916 39372676 38801304 38344532 
820.081 38004600 37784272 37684268 37703060 37838060 38089344 38462028 
823.455 38967780 39623464 40445260 41444056 42617200 43943444 45375804 
826.830 46841664 48247424 49475280 50405428 50930768 50971116 50497988 
830.205 49539856 48183628 46551740 44788224 43037108 41410992 39991624 
833.580 38820832 37902664 37212240 36703808 36323728 36012156 35714296 
836.955 35388312 35006260 34560060 34060448 33532530 33007898 32516032 
840.329 32080018 31710946 31410110 31171954 30989116 30855054 30765098 
843.704 30715804 30703678 30723592 30770468 30839544 30928662 31038154 
847.079 31169852 31325024 31502872 31699792 31911168 32133996 32368292 
850.454 32618030 32889790 33190478 33524904 33895200 34301916 34745660 
853.829 35229348 35758620 36340764 36983152 37691784 38470936 39324576 
857.204 40259244 41284136 42413552 43663984 45051868 46594048 48305412 
860.578 50199660 52289820 54583464 57077052 59744196 62528796 65340764 
863.953 68049072 70505848 72558056 74063392 74923152 75088952 74574688 
867.328 73453176 71853368 69946304 67910128 65928304 64162344 62729620 
870.703 61712416 61147632 61031616 61325724 61962000 62852448 63882740 
874.078 64927324 65856768 66538876 66866576 66767296 66212236 65221736 
877.452 63858248 62218004 60405916 58530072 56690764 54965580 53417420 
880.827 52091412 51014416 50201260 49652880 49358328 49293736 49424632 
884.202 49710460 50103672 50557912 51033384 51497924 51935888 52349920 
887.577 52761996 53209396 53737952 54394256 55211848 56207552 57376884 
890.952 58698980 60141200 61668188 63250504 64864688 66493816 68124928 
894.327 69742424 71325904 72848592 74271624 75543952 76604280 77373976 
897.701 77770584 77717128 77151936 76048592 74423448 72339448 69894456 
901.076 67212512 64432100 61678192 59063780 56679816 54586356 52821000 
904.451 51398592 50314492 49549992 49075884 48860212 48870816 49081928 
907.826 49477508 50049756 50797784 51723420 52828224 54110848 55566880 
911.201 57187100 58957924 60857308 62849888 64889156 66915780 68864152 
914.575 70678144 72317848 73771528 75057320 76223504 77340832 78486728 
917.950 79745168 81190616 82876256 84830856 87045040 89468488 92002736 
921.325 94516840 96867432 98915104 100568048 101800360 102668528 103301776 
924.700 103892392 104673160 105864888 107666640 110221136 113586480 
927.593 117722872 122471008 127564344 132598760 137070944 140455520 
930.485 142214816 141927584 139367648 134539184 127703872 119325592 
933.378 110030192 100457672 91187608 82703056 75308976 69167656 64320192 
936.753 60718616 58269300 56861752 56394948 56769676 57879268 59600392 
940.128 61759356 64130232 66460648 68468256 69900104 70579048 70417464 
943.502 69443648 67783072 65641700 63249932 60824028 58548160 56538980 
946.877 54854664 53504776 52465472 51696284 51151160 50789624 50575296 
950.252 50475952 50465048 50517860 50613492 50736628 50876860 51029624 
953.627 51194440 51373308 51568960 51783404 52018052 52273788 52551288 
957.002 52851012 53173108 53516620 53879496 54259268 54653800 55062048 
960.377 55485324 55925972 56387064 56870440 57375936 57901152 58442728 
963.751 58997240 59563408 60142112 60735992 61347704 61978548 62627688 
967.126 63292400 63969880 64658216 65357976 66071868 66803312 67555392 
970.501 68329368 69125464 69943496 70784416 71651448 72548816 73481112 
973.876 74451256 75459192 76503104 77579912 78688792 79831216 81011984 
977.251 82237160 83512712 84843632 86232864 87684776 89205800 90805920 
980.625 92499072 94300192 96222280 98274376 100459296 102773048 105203712 
984.000 107731904 110324496 112929688 115480264 117884968 120037656 
986.893 121835952 123184152 124014752 124298840 124047768 123313264 
989.786 122177528 120754160 119169272 117549880 116022632 114690624 
992.678 113630512 112891744 112492992 112430616 112685960 113235336 
995.571 114054176 115120984 116418480 117929704 119637264 121524496 
998.464 123573728 125768408 128092768 130526288 133039416 135591056 
1001.356 138121776 140561232 142838128 144884480 146652432 148118576 
1004.249 149286336 150183968 150861520 151390256 151850592 152332320 
1007.142 152927632 153713696 154752272 156081296 157712512 159638512 
1010.035 161839120 164292160 166976880 169876064 172975280 176255904 
1012.927 179694944 183266480 186942304 190697520 194508960 198346160 
1015.820 202164640 205894048 209429312 212646512 215411344 217599504 
1018.713 219129216 219969264 220152544 219767568 218960304 217919456 
1021.605 216843728 215944848 215412736 215387152 215959504 217154704 
1024.498 218939936 221232080 223919488 226881536 229987520 233115088 
1027.391 236145648 238954784 241428080 243462624 244977360 245930512 
1030.284 246319968 246180848 245571264 244564944 243240912 241672512 
1033.177 239932320 238083168 236167360 234200048 232156848 229975472 
1036.070 227555968 224783136 221551232 217772080 213398160 208421840 
1038.963 202871792 196806704 190310176 183491536 176471152 169380768 
1041.856 162354432 155504704 148924944 142682096 136813376 131339592 
1044.750 126270024 121607920 117356648 113518312 110091832 107072280 
1047.643 104449456 102209032 100333456 98804184 97602736 96708064 96097744 
1051.018 95746752 95625608 95705360 95957712 96355416 96874728 97489792 
1054.393 98168696 98872952 99551600 100144392 100591400 100832936 100820112 
1057.768 100522064 99925176 99038240 97891096 96537952 95052680 93521520 
1061.144 92044512 90717512 89624528 88837144 88402360 88345296 88669808 
1064.519 89360608 90384784 91691896 93221008 94896288 96631608 98344432 
1067.894 99953160 101388352 102600672 103555688 104235048 104631976 
1070.787 104747424 104588720 104168456 103505976 102626272 101559288 
1073.680 100342232 99017144 97632312 96247008 94924240 93730744 92732704 
1077.055 91981936 91514288 91343704 91462056 91840840 92435488 93194360 
1080.431 94054984 94949552 95809784 96562120 97140232 97496136 97607752 
1083.806 97490824 97200408 96833192 96509440 96361040 96525456 97117272 
1087.181 98224648 99898440 102140904 104899440 108058176 111453984 114868736 
1090.556 118052136 120768952 122804408 124006152 124306512 123719304 
1093.449 122337696 120306736 117815864 115061080 112218536 109443456 
1096.343 106843520 104478576 102366240 100485016 98784808 97193112 95632464 
1099.718 94023792 92294328 90391024 88281224 85959880 83449952 80802000 
1103.093 78088864 75389024 72787400 70360536 68168608 66259668 64665296 
1106.468 63402348 62477904 61890352 61631756 61688812 62043864 62675260 
1109.844 63554516 64649032 65919280 67315648 68783128 70255976 71659544 
1113.219 72921528 73970032 74744672 75205552 75332192 75126560 74608280 
1116.594 73812800 72785280 71573808 70230544 68803976 67335496 65861008 
1119.969 64406888 62991856 61630612 60334336 59112336 57972256 56917916 
1123.344 55947604 55053132 54222176 53440392 52697420 51991684 51333812 
1126.720 50746832 50260960 49910644 49726736 49729112 49925848 50310180 
1130.095 50862704 51551164 52334744 53166740 53993016 54760948 55423284 
1133.470 55942592 56301392 56504148 56578612 56568496 56529432 56519208 
1136.845 56584652 56759104 57055248 57463828 57954344 58478324 58978720 
1140.221 59390596 59652960 59717052 59546116 59121148 58438712 57508272 
1143.596 56348468 54984648 53449160 51777696 50009344 48186888 46349484 
1146.971 44533512 42769824 41079144 39475464 37965436 36550740 35230892 
1150.346 34005480 32874744 31840316 30904326 30068592 29334558 28703096 
1153.722 28174856 27750806 27431908 27218536 27110178 27104922 27200156 
1157.097 27393334 27683206 28070784 28558520 29149586 29845756 30646748 
1160.472 31549402 32547138 33630652 34788092 36002936 37253900 38515032 
1163.847 39753400 40932976 42018040 42972940 43767428 44377920 44787088 
1167.223 44985932 44973472 44757112 44351132 43775892 43056572 42218688 
1170.598 41288324 40291088 39249528 38185820 37121500 36075624 35067532 
1173.973 34114284 33229750 32425090 31708166 31083284 30553102 30118662 
1177.348 29780670 29539504 29395854 29350156 29403406 29557272 29814914 
1180.724 30180958 30660508 31258646 31978964 32822534 33789496 34879316 
1184.099 36092832 37433724 38907364 40519240 42272156 44162916 46180044 
1187.474 48300488 50488980 52699780 54871468 56933556 58811796 60429412 
1190.849 61724328 62656240 63212940 63413160 63302980 62949380 62422548 
1194.225 61791364 61112808 60422976 59740284 59065792 58389284 57694108 
1197.600 56963360 56184740 55350448 54458256 53508932 52503500 51442196 
1200.975 50323536 49146560 47913080 46630492 45314012 43985788 42672796 
1204.350 41405128 40208932 39105024 38106776 37218308 36436676 35753652 
1207.726 35159392 34642980 34194788 33807116 33473402 33188294 32948732 
1211.101 32753210 32602676 32500286 32451366 32461830 32537996 32686010 
1214.476 32911200 33218268 33610964 34091380 34659452 35312148 36044268 
1217.851 36848416 37717080 38644020 39624556 40655336 41734016 42857948 
1221.227 44025024 45234620 46489928 47799364 49176060 50637656 52202040 
1224.602 53884256 55693840 57632468 59693480 61860056 64106076 66393964 
1227.977 68670792 70874816 72931912 74760728 76285112 77434320 78151936 
1231.352 78405120 78186600 77522168 76469400 75123216 73606672 72053864 
1234.728 70613352 69422928 68599976 68246920 68438584 69226872 70647072 
1238.103 72716168 75435424 78786392 82730032 87197912 92086200 97267392 
1241.478 102578472 107827800 112818960 117338024 121176336 124159600 
1244.371 126148968 127070232 126920296 125767528 123740096 121003024 
1247.264 117758328 114213448 110566000 107003648 103667400 100644536 
1250.157 97957272 95557808 93337280 91140608 88810680 86207608 83242048 
1253.532 79896048 76221128 72329696 68360936 64470492 60797312 57439508 
1256.908 54457580 51865728 49640548 47730312 46067624 44581684 43200824 
1260.283 41865680 40531496 39167644 37761284 36312632 34832532 33336780 
1263.658 31843812 30372444 28938698 27557822 26243478 25007010 23858056 
1267.033 22802324 21841056 20971204 20186246 19479214 18843294 18273852 
1270.409 17768288 17323996 16938032 16606044 16322711 16083470 15885359 
1273.784 15726812 15607064 15524194 15473786 15448892 15441202 15442781 
1277.159 15448618 15456858 15468498 15485597 15510183 15543081 15583811 
1280.534 15631244 15683491 15737049 15785117 15816661 15817314 15770720 
1283.910 15664151 15492293 15260715 14985392 14690158 14403346 14149583 
1287.285 13948931 13814963 13754698 13772381 13870687 14051795 14316870 
1290.660 14665071 15092310 15590372 16147427 16748037 17371550 17992884 
1294.035 18583950 19112970 19550814 19876286 20078622 20161878 20142858 
1297.411 20049230 19910662 19756880 19613380 19498446 19425364 19402462 
1300.786 19433368 19516364 19643436 19800956 19969602 20127588 20256018 
1304.161 20338686 20365318 20330944 20233696 20074666 19856690 19586482 
1307.536 19274734 18936904 18592352 18260616 17958072 17696808 17482678 
1310.912 17317650 17202220 17137588 17126386 17171472 17274344 17433766 
1314.287 17645560 17905310 18209924 18559430 18956564 19404644 19905146 
1317.662 20455578 21049344 21678024 22333948 23011720 23708678 24422672 
1321.037 25149040 25878276 26595354 27279920 27911400 28470842 28944896 
1324.413 29330268 29635626 29883236 30106302 30349312 30659656 31077340 
1327.788 31629582 32319352 33123850 33994444 34868616 35683068 36382484 
1331.163 36934988 37333732 37596968 37759620 37867488 37970752 38113068 
1334.538 38332804 38659088 39108832 39687648 40389152 41197820 42091156 
1337.914 43044356 44035508 45044884 46056796 47057664 48034568 48974840 
1341.289 49866452 50696300 51450736 52112928 52659452 53062644 53289964 
1344.664 53307872 53090124 52620028 51894364 50923132 49727664 48338852 
1348.039 46791064 45124612 43383676 41612936 39863652 38189328 36641180 
1351.415 35270208 34117472 33210650 32564674 32180666 32049518 32152478 
1354.790 32463934 32949160 33561200 34246376 34944200 35592936 36142092 
1358.165 36552040 36799440 36877812 36794676 36570964 36237528 35839648 
1361.540 35435224 35088548 34869872 34838240 35029888 35454784 36096720 
1364.916 36922940 37890808 38957560 40079408 41205580 42281576 43244344 
1368.291 44025500 44565748 44818532 44758436 44384340 43717696 42800136 
1371.666 41685400 40444100 39158832 37914524 36801172 35894708 35243400 
1375.041 34863120 34736832 34828296 35094868 35504832 36043364 36713432 
1378.417 37532660 38528104 39733356 41181280 42901360 44909464 47193796 
1381.792 49695936 52294568 54820192 57051884 58756064 59733820 59826140 
1385.167 58953820 57132488 54497548 51297904 47851080 44503596 41526700 
1388.542 39073880 37183476 35802512 34833392 34165072 33701508 33363614 
1391.917 33088200 32829750 32553494 32237158 31873762 31471166 31049828 
1395.293 30633024 30239602 29877024 29542306 29226768 28923398 28630714 
1398.668 28355840 28111504 27911330 27764474 27673106 27632992 27637228 
1402.043 27679886 27758752 27876776 28041800 28265232 28559226 28932464 
1405.418 29388162 29922494 30526084 31186658 31891878 32632784 33402476 
1408.794 34196436 35010928 35841160 36681956 37528760 38377868 39226136 
1412.169 40068576 40894204 41685400 42418520 43068064 43615916 44055752 
1415.544 44396124 44656776 44864528 45048668 45235868 45454564 45735880 
1418.919 46109040 46599616 47217176 47950492 48771528 49643852 50534348 
1422.295 51417912 52286792 53151352 54037520 54975924 55990348 57088916 
1425.670 58262368 59490520 60750664 62026512 63306084 64578436 65829156 
1429.045 67033304 68157416 69168080 70040424 70770056 71374520 71892000 
1432.420 72370256 72853224 73378824 73975968 74672424 75507328 76538040 
1435.796 77836496 79476120 81492112 83865536 86527000 89378968 92314616 
1439.171 95217848 97969440 100422512 102410320 103782136 104408368 104216632 
1442.546 103200368 101410992 98943480 95910520 92440200 88651960 84646368 
1445.921 80518176 76356448 72263016 68372560 64834216 61787008 59325640 
1449.297 57473660 56193712 55413984 55064456 55093232 55469324 56173728 
1452.672 57178784 58438940 59899880 61497820 63176804 64900428 66643512 
1456.047 68393080 70136800 71863384 73554776 75191048 76762168 78263048 
1459.422 79694768 81063128 82377848 83648640 84878272 86059976 87167256 
1462.798 88150912 88951808 89512416 89805848 89853080 89725464 89515800 
1466.173 89298048 89113320 88962704 88822352 88657528 88431888 88106672 
1469.548 87626992 86914208 85864176 84359296 82317528 79744328 76768696 
1472.923 73607568 70488928 67568864 64901776 62473700 60254084 58236184 
1476.299 56453884 54968180 53832196 53074512 52685972 52633196 52879040 
1479.674 53403408 54210464 55324740 56774740 58576332 60723036 63187920 
1483.049 65936708 68938624 72179904 75658240 79369344 83294144 87371584 
1486.424 91480584 95448984 99042360 101986416 104012360 104875224 104418648 
1489.800 102626560 99649544 95781688 91372280 86756064 82165968 77715304 
1493.175 73435792 69300560 65270448 61335912 57530020 53935388 50666772 
1496.550 47828028 45479108 43620164 42210728 41190280 40503344 40111312 
1499.925 39987740 40112948 40467736 41028848 41768160 42656092 43653760 
1503.301 44713956 45777480 46752100 47512792 47901060 47743588 46923460 
1506.676 45450556 43478668 41224452 38867176 36499128 34142276 31793152 
1510.051 29456272 27153314 24932188 22851564 20958476 19283670 17831496 
1513.426 16586076 15521206 14608765 13824233 13145575 12555790 12043786 
1516.802 11605717 11245236 10968640 10778453 10667566 10617515 10600368 
1520.177 10589537 10569948 10550087 10559220 10633609 10794214 11035963 
1523.552 11334266 11657856 11984005 12303990 12627691 12976895 13376404 
1526.927 13840378 14367897 14945643 15557435 16191998 16846022 17523662 
1530.302 18232384 18977088 19759688 20578130 21428538 22308240 23216534 
1533.678 24152514 25109542 26075404 27031606 27958150 28831680 29629100 
1537.053 30331296 30917952 31374100 31690984 31869448 31917196 31847734 
1540.428 31681254 31440884 31151092 30832428 30494378 30132548 29729856 
1543.803 29267812 28736336 28145406 27524002 26910782 26335812 25806398 
1547.179 25306920 24806086 24274188 23696362 23084640 22474162 21911410 
1550.554 21429930 21037590 20716632 20436442 20170278 19905666 19650056 
1553.929 19425052 19253224 19142854 19081566 19037598 18968680 18824988 
1557.304 18555730 18123346 17524316 16815332 16103825 15500156 15059721 
1560.680 14775715 14606743 14504604 14428658 14346834 14240169 14103270 
1564.055 13945851 13789823 13660351 13577338 13545068 13552964 13580005 
1567.430 13605611 13615492 13608210 13595115 13596278 13630433 13706616 
1570.805 13822352 13967613 14131030 14302624 14473841 14636558 14779382 
1574.181 14889370 14956206 14978635 14971741 14966117 14998322 15091658 
1577.556 15249287 15457373 15696270 15949838 16210055 16479272 16766082 
1580.931 17081824 17434490 17826144 18251356 18699262 19153968 19596430 
1584.306 20004816 20353442 20615826 20769530 20799422 20704364 20499654 
1587.682 20219568 19911216 19629776 19433300 19369062 19472628 19763572 
1591.057 20242410 20888972 21657752 22482920 23274178 23928212 24350332 
1594.432 24458950 24207828 23594758 22662176 21487962 20163928 18786928 
1597.807 17436458 16169162 15024835 14024519 13176928 12480695 11926412 
1601.183 11499008 11181621 10961028 10830119 10788881 10841058 10989845 
1604.558 11233675 11563622 11962752 12406670 12867050 13307828 13688937 
1607.933 13969906 14109910 14076882 13853206 13439419 12857084 12146541 
1611.308 11364569 10568318 9806431 9112057 8496229 7954023 7470300 7028029 
1615.166 6613658 6222035 5858805 5537390 5273225 5077001 4950836 4887734 
1619.023 4875370 4896815 4933744 4968800 4986966 4980430 4950937 4910454 
1622.881 4876442 4865016 4884416 4932002 4998395 5072945 5148915 5224798 
1626.738 5302573 5384824 5472492 5563970 5656676 5749637 5844936 5946569 
1630.595 6058139 6179685 6306342 6427689 6530569 6602186 6632263 6617292 
1634.453 6561415 6479479 6392381 6321773 6283415 6281566 6311855 6363766 
1638.310 6425604 6484961 6530165 6553543 6551828 6528820 6493268 6456441 
1642.168 6426646 6405192 6386093 6356739 6302610 6210539 6074738 5899847 
1646.025 5702936 5508765 5343361 5226073 5164641 5156627 5192103 5258301 
1649.883 5338531 5411058 5450347 5424110 5303713 5082365 4799279 4535964 
1653.740 4368219 4324444 4380268 4490967 4614688 4724944 4809464 4865719 
1657.597 4897485 4910152 4907605 4890348 4855902 4800552 4722063 4621452 
1661.455 4503153 4374344 4244134 4121623 4013860 3925850 3859153 3812086 
1665.312 3779397 3752291 3720174 3670616 3593234 3482529 3341133 3180257 
1669.170 3017405 2870890 2753334 2669113 2614375 2580876 2558111 2534847 
1673.027 2499588 2441639 2352848 2232801 2092310 1952764 1836488 1758599 
1676.885 1719477 1707502 1704574 1693897 1665590 1619393 1563590 1510088 
1680.742 1467930 1436380 1403537 1348393 1249457 1095034 896438 689536 
1684.599 521046 421238 389963 404722 436926 465152 477060 469199 444621 
1688.939 408668 367147 323972 283123 248211 223115 210120 207766 209192 
1693.279 201203 167657 94442 -22563 -170673 -320089 -436586 -501790 -519264 
1697.618 -512182 -510428 -543621 -630182 -768923 -932086 -1075589 -1164358 
1701.476 -1188447 -1163730 -1115580 -1068020 -1037115 -1030801 -1049609 
1704.851 -1087554 -1133988 -1176419 -1205497 -1216335 -1209099 -1187886 
1708.226 -1158244 -1126453 -1096544 -1070863 -1048783 -1028058 -1006174 
1711.601 -981414 -954469 -927160 -902262 -881464 -865195 -852562 -843336 
1715.459 -839434 -845353 -866253 -904445 -954965 -1005083 -1038503 -1043296 
1719.316 -1016752 -965313 -901072 -837417 -784931 -748746 -728800 -720828 
1723.174 -718976 -718149 -716462 -714742 -714841 -718314 -724831 -733663 
1727.031 -743685 -755825 -772065 -794390 -822766 -854414 -884539 -909404 
1730.888 -929441 -951395 -989050 -1059195 -1174304 -1333814 -1516808 
1734.264 -1686821 -1808396 -1865674 -1866598 -1833803 -1792789 -1762628 
1737.639 -1755236 -1773287 -1811399 -1857624 -1898929 -1925781 -1933929 
1741.014 -1925385 -1904504 -1876132 -1843569 -1808000 -1770416 -1730914 
1744.389 -1689560 -1646486 -1601097 -1553325 -1503040 -1451262 -1399148 
1747.765 -1348679 -1301144 -1257569 -1218152 -1182995 -1151999 -1124801 
1751.140 -1100245 -1075787 -1048155 -1014472 -974140 -929673 -886986 -854547 
1754.997 -840591 -850711 -884440 -935227 -990769 -1040156 -1076977 -1102790 
1758.855 -1124999 -1153188 -1195948 -1256346 -1331073 -1410938 -1484548 
1762.230 -1542199 -1579275 -1596409 -1598423 -1590731 -1578384 -1566069 
1765.605 -1557650 -1556627 -1565607 -1584062 -1608920 -1634405 -1654309 
1768.980 -1665829 -1670780 -1675764 -1688570 -1715535 -1755962 -1801302 
1772.356 -1835716 -1844658 -1821594 -1769789 -1700518 -1626482 -1558212 
1775.731 -1500134 -1451889 -1409881 -1370611 -1332889 -1298501 -1270784 
1779.106 -1252117 -1242041 -1236688 -1230543 -1219177 -1201631 -1181178 
1782.481 -1163400 -1153188 -1152528 -1159500 -1168687 -1173941 -1171165 
1785.857 -1159071 -1139606 -1115712 -1089867 -1063558 -1037875 -1014736 
1789.232 -998505 -995166 -1011331 -1051130 -1113531 -1190529 -1269033 
1792.607 -1336292 -1383723 -1410476 -1421705 -1425998 -1429961 -1437821 
1795.982 -1450799 -1468368 -1489931 -1515785 -1546920 -1584623 -1628496 
1799.358 -1676094 -1723257 -1765367 -1798662 -1821594 -1834429 -1838719 
1802.733 -1835353 -1825422 -1808858 -1787212 -1762727 -1738372 -1717647 
1806.108 -1702597 -1693224 -1687844 -1684180 -1680252 -1675929 -1672100 
1809.483 -1669855 -1668568 -1665630 -1656553 -1636979 -1605058 -1562669 
1812.859 -1515092 -1469292 -1430853 -1402252 -1382435 -1366845 -1350297 
1816.234 -1328826 -1300946 -1268174 -1233384 -1200376 -1171198 -1146645 
1819.609 -1126123 -1108871 -1093999 -1081605 -1071920 -1066268 -1066500 
1822.984 -1074267 -1090793 -1116307 -1148430 -1181838 -1209826 -1226082 
1826.360 -1227272 -1214980 -1194792 -1175924 -1167167 -1173908 -1194891 
1829.735 -1222481 -1245245 -1252018 -1238010 -1205068 -1160888 -1114622 
1833.110 -1073110 -1039429 -1012158 -986835 -958371 -923291 -880538 -830670 
1836.968 -775372 -714841 -648115 -573502 -489709 -396764 -297011 -194088 
1840.825 -92102 5334 95171 175977 247681 312931 377063 447374 531961 636109 
1845.647 760428 900754 1049196 1195729 1331376 1450310 1550455 1633129 
1849.504 1701048 1755971 1797159 1821182 1823378 1800386 1751846 1681423 
1853.362 1595115 1499349 1398684 1294851 1187422 1075237 958697 839665 
1857.219 721197 606046 494873 386746 279509 172530 67399 -32370 -122280 
1861.559 -199520 -264726 -321645 -374915 -427748 -479880 -527537 -565693 
1865.416 -590775 -603514 -609040 -615790 -630811 -656551 -688939 -718778 
1869.273 -735681 -733365 -711401 -675706 -635178 -596897 -565494 -541933 
1873.131 -524923 -512645 -504338 -500234 -501525 -508707 -521349 -538491 
1876.988 -559604 -584587 -615095 -652548 -697276 -747192 -798326 -845916 
1880.846 -886523 -920051 -949246 -979099 -1014075 -1055592 -1101799 -1148397 
1884.703 -1190199 -1224232 -1250498 -1271940 -1291663 -1312508 -1334376 
1888.078 -1354822 -1370842 -1379496 -1379958 -1373286 -1361594 -1346631 
1891.454 -1329950 -1311946 -1293315 -1275244 -1259188 -1245972 -1235135 
1894.829 -1224133 -1209661 -1188646 -1160194 -1125363 -1087256 -1048552 
1898.204 -1009877 -969446 -923853 -870155 -808281 -741469 -675673 -617709 
1902.062 -571848 -538491 -514631 -495071 -475511 -453765 -430363 -407291 
1905.919 -386568 -368526 -352469 -337438 -323863 -314096 -311282 -318069 
1909.776 -334160 -356409 -379848 -399181 -412157 -420068 -426589 -435494 
1913.634 -449263 -467203 -486797 -505927 -524857 -546070 -574495 -613474 
1917.491 -662010 -714279 -761150 -794853 -812679 -818897 -821873 -831629 
1921.349 -854480 -890855 -934665 -977281 -1010538 -1031099 -1041445 -1046701 
1925.206 -1052485 -1061310 -1071854 -1080679 -1084678 -1083720 -1080216 
1928.581 -1078200 -1080216 -1085703 -1091487 -1092941 -1086926 -1074135 
1931.957 -1058633 -1045775 -1040090 -1042734 -1051295 -1062599 -1072846 
1935.332 -1080877 -1087851 -1094461 -1100477 -1103253 -1098824 -1084777 
1938.707 -1062368 -1038139 -1020223 -1016785 -1031297 -1060286 -1094825 
1942.082 -1123545 -1137954 -1135641 -1119877 -1096808 -1071590 -1045478 
1945.458 -1015827 -978901 -932748 -880406 -828091 -783939 -753145 -736905 
1949.315 -730818 -728734 -724633 -715668 -701675 -685135 -666575 -645931 
1953.172 -621348 -592396 -562086 -536704 -523831 -529722 -554707 -594448 
1957.030 -638917 -678717 -707861 -726683 -739022 -751095 -765251 -778250 
1960.887 -782748 -770874 -738658 -688112 -627602 -566123 -512347 -470314 
1964.745 -440161 -421525 -414242 -419837 -439565 -471241 -507416 -536605 
1968.602 -547095 -531674 -492126 -439267 -386833 -347668 -326347 -318731 
1972.459 -313566 -300223 -272342 -230849 -181669 -129866 -75671 -13452 65544 
1976.799 165536 280901 395469 487476 538364 539823 497461 425218 341779 
1981.139 261672 190496 127684 68460 9012 -50162 -104359 -148249 -178489 
1985.478 -195844 -204918 -210548 -214589 -214787 -206674 -186405 -154807 
1989.336 -118537 -86670 -68317 -67455 -80905 -100649 -116583 -122744 -117046 
1993.675 -103432 -85477 -66163 -44364 -16964 18621 61269 105644 143626 
1998.015 168287 177667 175612 169182 165536 168187 174684 178364 172728 
2002.354 154398 126325 96033 72171 59811 59777 66372 72602 73298 67863 59313 
2007.658 52852 51824 55701 61467 65345 65742 64152 63920 67698 76049 85659 
2012.962 92089 92984 89537 86587 91989 112106 148432 199214 258920 321917 
2017.784 385884 450558 516270 581593 641584 688109 715090 720235 706793 
2022.124 684823 665742 657645 663020 678418 696538 711406 721164 726142 
2026.463 729860 732880 731652 719704 690897 643707 583949 523700 476530 
2030.803 452979 456893 483495 523800 569881 616929 665078 716683 771880 
2035.143 826785 873197 902049 907826 891789 860846 826187 797207 780411 
2039.482 776328 782170 793688 808327 825789 845873 867254 886809 899725 
2043.822 901584 891756 873827 853675 838304 831698 834121 841358 848164 
2048.161 849924 844014 829540 804775 766569 711174 635478 541051 435267 
2052.501 330405 241912 182341 157547 163911 190927 224806 253383 271684 
2056.841 279575 281200 280338 277984 272248 259948 239326 212507 184927 
2061.180 162917 150786 149327 155492 163845 171204 177601 185921 200374 
2065.520 224110 255107 289356 320060 342177 353982 356801 353850 347980 
2069.859 339922 327520 308554 281697 247581 209921 172994 139251 109422 
2074.199 82014 54674 26574 -927 -25214 -43734 -55794 -64142 -73253 -87531 
2079.021 -108964 -135993 -163883 -187365 -202600 -208793 -208628 -206044 
2082.878 -203660 -203097 -203097 -202633 -201408 -201242 -205117 -216576 
2086.736 -236910 -264825 -297342 -331280 -364851 -398883 -435328 -476239 
2090.593 -520919 -566222 -606558 -636105 -651357 -652184 -641795 -624855 
2094.450 -605268 -585679 -566686 -549379 -534785 -525519 -524096 -530814 
2098.308 -542793 -553979 -556758 -546103 -520885 -485241 -447277 -415269 
2102.165 -394844 -386866 -388124 -393354 -397890 -399479 -398055 -393851 
2106.023 -386469 -373160 -350350 -315288 -268104 -213032 -157291 -107307 
2109.880 -67356 -37539 -14711 6361 28695 53249 77706 98783 114658 125761 
2114.702 135141 146477 162552 183269 207203 231701 255008 277652 301989 
2119.042 329543 360913 393412 422996 445715 459580 466479 471056 479050 
2123.381 493878 515606 540918 564009 579171 582953 574493 555084 526553 
2127.721 490362 446545 395535 338065 276226 213203 152774 97491 48643 6096 
2132.542 -29885 -57781 -75539 -80408 -71994 -53176 -30117 -9741 1789 2054 
2137.364 -6825 -19946 -32867 -43138 -51917 -62850 -78156 -97833 -118239 
2141.704 -133443 -138776 -133244 -121021 -109129 -104359 -109527 -122114 
2145.561 -135099 -140896 -134370 -115788 -90545 -65335 -46318 -35683 -31774 
2149.901 -31840 -32867 -34226 -37472 -45026 -57583 -74710 -95614 -119829 
2154.240 -149176 -186504 -232406 -282442 -323830 -338829 -306315 -213032 
2158.098 -57318 146709 373614 596656 792991 950794 1068029 1147654 1193104 
2162.438 1207657 1194267 1157455 1106262 1053647 1011101 987854 984998 
2166.295 996356 1010736 1016847 1008345 984134 948668 907926 866955 827814 
2170.635 789970 752197 715588 682168 655521 638398 630633 628775 629472 
2174.974 629306 628908 630534 637370 649017 661892 668264 660830 636341 
2179.314 598182 556013 521909 506218 512521 537070 570545 602595 626618 
2183.653 641351 649946 657313 666804 678784 691262 701782 709946 717513 
2187.993 728001 742771 761159 778950 791564 795813 792792 787912 788742 
2192.333 801622 828411 866656 909819 950694 984168 1008843 1025382 1036110 
2196.672 1041158 1038634 1025681 1000341 963014 917655 870009 825888 789207 
2201.012 760628 739451 724184 714924 713696 722060 741045 768328 798501 
2205.351 826320 846570 858223 863237 866689 872466 883688 900522 920842 
2209.691 942791 965040 987389 1010603 1033486 1053448 1066169 1067963 
2213.548 1056769 1035180 1008743 983935 966800 960025 962383 970120 979850 
2217.888 989182 998846 1010769 1026777 1046705 1068162 1086531 1097459 
2221.745 1098256 1088823 1071251 1048731 1024220 1000075 977725 958166 
2225.603 942592 931800 925723 922934 920178 913770 900588 880202 854405 
2229.942 827183 803049 785190 774369 769590 768926 770253 773241 778087 
2234.282 784792 792228 797672 798103 791464 778784 763515 751500 748114 
2238.622 755616 772809 795281 816991 833125 842089 845010 845973 848894 
2242.961 856331 868515 884485 901983 919182 935552 950628 963545 973441 
2247.301 978688 978090 971748 961652 949864 939703 933062 930571 932730 
2251.640 939371 951458 970685 998680 1034947 1077197 1119882 1156657 1181774 
2255.980 1192340 1188685 1174531 1155029 1134432 1115397 1099054 1084903 
2259.837 1072546 1062914 1056337 1053946 1055474 1059626 1064342 1068095 
2263.695 1070553 1072945 1077396 1085202 1096164 1108421 1118619 1124267 
2267.552 1124532 1120945 1116693 1115198 1117922 1124599 1132605 1138850 
2271.410 1141342 1139814 1136060 1132372 1130612 1131044 1132937 1134864 
2275.267 1136193 1137189 1139947 1146358 1157355 1172505 1189682 1206461 
2279.125 1220549 1231514 1239887 1247198 1254974 1264045 1274513 1285845 
2282.982 1297743 1310471 1324463 1340017 1356902 1373853 1389542 1402539 
2286.839 1412512 1420091 1427039 1434386 1443561 1454233 1465802 1477804 
2290.697 1490338 1504569 1522557 1545733 1575428 1610979 1651055 1693364 
2294.554 1736077 1777796 1818154 1857085 1894356 1930265 1964247 1996401 
2298.412 2026793 2056288 2085385 2114651 2143686 2171624 2197499 2220678 
2302.269 2241027 2259679 2277898 2296684 2316404 2336824 2357046 2376335 
2306.126 2394892 2413817 2434542 2458700 2487324 2520383 2556978 2596075 
2309.984 2636343 2676781 2716490 2754868 2790815 2823664 2852846 2878795 
2313.841 2902711 2926795 2953415 2984308 3020474 3061649 3106799 3154624 
2317.699 3204256 3255229 3307711 3361936 3418237 3476450 3535974 3595940 
2321.556 3654009 3707943 3753461 3786215 3802226 3798716 3775820 3736850 
2325.414 3688193 3637804 3593835 3562999 3548701 3551307 3567810 3594135 
2329.271 3625174 3656749 3686121 3711619 3732740 3749584 3763320 3775453 
2333.128 3787953 3803061 3822716 3847486 3877205 3910705 3946714 3983964 
2336.986 4021852 4060580 4099981 4139586 4177956 4213085 4243163 4267355 
2340.843 4285358 4298141 4306774 4310623 4308146 4295564 4268693 4224025 
2344.701 4160861 4081752 3993762 3907361 3834382 3786215 3772846 3800320 
2348.558 3871422 3984532 4134835 4313300 4508175 4707426 4899597 5076263 
2352.416 5234356 5375028 5503095 5623479 5740538 5855816 5969143 6078736 
2356.273 6183920 6283986 6379536 6470937 6558253 6641246 6719982 6794524 
2360.130 6866017 6935332 7002470 7065981 7123271 7171304 7208090 7233458 
2363.988 7250068 7261288 7270216 7277797 7281908 7278775 7263680 7233155 
2367.845 7186732 7126033 7054531 6975499 6891331 6802804 6709785 6612380 
2371.703 6512103 6411346 6314276 6224488 6145305 6078904 6026321 5987586 
2375.560 5962827 5951709 5954060 5969143 5996387 6035057 6085086 6146985 
2379.417 6221799 6310780 6414137 6530973 6658708 6793649 6931494 7068676 
2383.275 7202195 7330026 7450715 7562268 7662214 7747813 7816325 7865818 
2387.132 7896016 7908265 7904756 7888188 7860824 7824185 7778913 7725551 
2390.990 7664001 7594636 7517630 7432918 7340675 7240803 7134218 7022741 
2394.847 6909375 6798361 6694239 6601379 6522934 6460612 6415146 6386261 
2398.705 6373147 6375232 6391742 6421703 6463941 6517115 6579983 6651743 
2402.562 6732062 6821686 6921327 7031732 7153619 7287029 7431739 7587657 
2406.419 7754761 7933066 8122517 8323062 8534276 8755363 8985831 9224747 
2410.277 9470907 9723034 9979037 10235869 10490240 10738068 10975607 
2413.652 11199232 11405591 11591322 11753472 11889360 11997119 12075843 
2417.027 12126336 12150868 12152367 12134377 12100067 12051553 11990953 
2420.403 11919668 11839610 11753030 11661907 11568522 11473968 11378583 
2423.778 11282403 11185871 11090447 10999599 10917705 10849653 10799955 
2427.153 10771795 10766429 10783650 10823088 10883830 10965378 11067606 
2430.528 11190120 11331783 11491013 11666195 11855409 12057753 12272633 
2433.904 12500269 12740684 12993863 13259830 13538915 13832101 14141025 
2437.279 14467983 14814797 15182165 15569800 15975757 16397750 16834312 
2440.654 17285066 17751376 18235600 18740602 19268498 19820690 20397024 
2444.029 20996032 21615542 22252434 22903498 23565266 24234244 24907870 
2447.405 25584438 26262836 26942440 27622152 28300208 28973444 29638146 
2450.780 30290438 30927204 31546268 32146272 32725378 33280756 33808048 
2454.155 34301268 34753092 35157128 35506988 35797440 36024504 36183648 
2457.530 36270412 36280604 36209508 36053984 35812840 35485812 35074612 
2460.906 34581836 34011140 33366408 32652576 31875868 31043102 30162416 
2464.281 29242754 28293064 27322262 26339860 25354548 24375916 23413718 
2467.656 22477514 21576610 20719274 19911598 19157776 18459954 17818478 
2471.031 17233144 16702481 16224673 15796594 15414182 15072344 14764573 
2474.406 14484940 14228425 13990813 13769849 13563801 13371586 13191478 
2477.782 13021859 12860463 12705950 12557393 12414615 12277404 12145212 
2481.157 12016944 11891437 11767601 11645162 11525206 11410081 11302433 
2484.532 11204298 11117029 11040313 10973159 10914273 10862868 10818366 
2487.907 10780491 10748801 10721800 10698027 10675648 10653983 10633779 
2491.283 10617006 10606548 10604884 10613033 10630383 10654832 10683187 
2494.658 10712766 10741669 10768875 10794519 10818841 10842111 10864567 
2498.033 10886276 10907171 10927320 10946859 10965310 10982131 10996302 
2501.408 11006769 11013260 11015945 11016149 11015299 11014925 11016115 
2504.784 11019208 11024339 11030966 11038749 11047926 11058191 11069407 
2508.159 11081032 11091875 11100440 11105335 11104995 11097959 11083105 
2511.534 11058871 11024442 10979004 10922938 10857059 10783412 10704276 
2514.909 10621590 10536745 10450391 10362629 10273730 10184545 10096429 
2518.285 10011450 9931607 9858456 9792299 9733063 9680477 9634164 9594869 
2522.142 9563502 9541012 9527769 9523197 9525398 9532307 9541960 9552663 
2526.000 9564383 9576984 9591211 9607301 9625526 9645548 9667298 9690912 
2529.857 9716765 9744788 9775287 9807990 9842560 9878658 9916691 9956830 
2533.714 10000227 10047461 10098803 10153780 10211817 10272034 10334158 
2537.090 10398193 10464544 10533453 10604646 10677448 10751111 10824276 
2540.465 10897080 10969795 11043202 11118321 11195288 11273799 11352767 
2543.840 11431409 11508603 11584244 11658708 11731924 11803996 11874308 
2547.215 11941976 12006282 12066714 12123916 12178844 12232518 12285585 
2550.591 12338044 12389624 12439334 12486901 12532428 12576152 12618686 
2553.966 12659893 12699263 12735805 12768697 12797054 12820703 12840088 
2557.341 12855173 12866095 12872272 12872715 12866197 12852203 12830327 
2560.716 12800911 12764432 12721542 12672072 12616128 12553812 12485571 
2564.092 12412398 12336203 12258999 12182695 12109266 12039835 11975660 
2567.467 11917625 11867055 11824969 11792419 11769745 11756366 11751396 
2570.842 11753030 11759839 11770529 11784044 11799944 11818057 11838758 
2574.217 11861981 11888610 11919396 11955122 11995994 12042015 12092231 
2577.593 12145144 12198916 12252285 12304195 12355225 12405817 12457610 
2580.968 12511932 12569807 12631853 12698274 12769039 12844013 12922789 
2584.343 13004549 13088818 13174538 13260957 13347394 13433540 13519123 
2587.718 13604106 13688115 13770636 13851086 13928881 14003645 14075307 
2591.094 14144449 14211272 14276395 14340053 14402352 14463667 14524544 
2594.469 14585430 14646941 14709318 14772664 14836807 14901612 14967455 
2597.844 15035366 15106924 15183744 15267476 15358501 15456755 15561282 
2601.219 15671056 15785186 15903231 16025364 16151831 16282668 16417846 
2604.594 16556818 16699037 16844712 16994158 17147826 17305858 17467742 
2607.970 17631758 17795662 17956624 18112082 18260410 18400768 18532908 
2611.345 18656718 18772292 18878934 18975462 19060552 19132742 19190778 
2614.720 19234348 19263198 19277920 19279756 19270126 19250904 19223854 
2618.095 19190432 19151960 19109440 19063770 19015858 18966982 18918908 
2621.471 18873156 18830974 18793226 18759872 18730362 18703968 18680134 
2624.846 18658862 18641222 18628424 18622200 18624100 18635064 18655680 
2628.221 18686016 18725760 18774436 18831146 18894440 18962794 19035002 
2631.596 19109576 19186104 19265000 19346784 19433056 19524716 19622254 
2634.972 19725362 19833452 19945628 20061478 20180414 20302056 20426058 
2638.347 20551622 20677712 20803316 20927566 21050110 21170882 21290294 
2641.722 21408766 21526052 21642080 21756154 21867538 21976060 22082272 
2645.097 22186594 22289928 22393358 22497646 22603498 22712030 22824078 
2648.473 22940490 23062068 23188888 23320568 23456382 23595212 23736150 
2651.848 23878990 24024012 24172166 24324504 24481772 24644916 24813910 
2655.223 24988794 25169228 25355040 25545992 25741810 25942008 26146202 
2658.598 26353626 26564144 26777090 26992610 27210598 27430990 27653190 
2661.974 27877024 28101326 28325458 28548894 28770960 28991542 29210820 
2665.349 29428864 29645986 29862792 30080094 30298432 30518408 30740344 
2668.724 30964100 31189682 31416770 31645510 31876080 32109130 32345336 
2672.099 32584566 32826752 33070606 33314780 33557620 33797556 34033500 
2675.475 34264232 34488700 34705784 34914648 35114592 35306004 35490164 
2678.850 35669548 35847384 36027492 36213144 36407528 36612992 36831464 
2682.225 37064696 37314016 37580708 37865752 38169540 38492152 38833116 
2685.600 39192264 39569056 39963436 40374784 40802688 41245512 41701152 
2688.976 42167244 42641176 43121336 43606388 44096496 44592368 45095168 
2692.351 45606204 46126836 46657900 47200148 47753608 48318040 48892284 
2695.726 49475240 50065336 50661372 51262444 51868264 52478900 53094208 
2699.101 53713992 54337704 54964532 55593580 56224488 56857064 57491096 
2702.477 58125680 58759064 59388052 60008748 60615972 61204664 61770316 
2705.852 62308484 62815152 63286452 63718788 64108416 64452544 64749056 
2709.227 64996852 65195552 65345308 65446572 65499700 65505168 65463408 
2712.602 65375508 65242640 65065520 64845144 64581208 64273744 63921928 
2715.978 63525676 63085528 62603228 62081172 61522444 60930576 60308868 
2719.353 59661396 58992496 58307272 57611052 56910096 56210232 55516576 
2722.728 54834552 54167932 53521080 52897864 52302076 51737452 51207116 
2726.103 50713204 50257276 49839660 49460276 49118844 48815236 48549148 
2729.479 48320632 48129356 47974504 47854852 47769108 47715664 47693292 
2732.854 47701464 47739184 47805652 47899616 48019024 48161416 48323924 
2736.229 48504020 48698576 48905264 49121256 49343740 49569492 49795364 
2739.604 50017932 50234548 50442716 50640412 50826460 50999848 51160216 
2742.979 51308492 51445812 51574112 51695840 51813608 51929092 52044008 
2746.355 52159144 52275020 52391712 52509596 52628892 52749608 52872044 
2749.730 52995708 53120644 53246816 53375048 53507100 53645304 53792816 
2753.105 53952948 54128784 54322908 54537664 54774820 55035720 55321504 
2756.480 55632672 55968752 56328212 56708812 57106672 57517308 57935376 
2759.856 58355288 58770672 59175856 59564360 59930616 60269048 60574940 
2763.231 60843852 61072192 61256776 61394952 61485336 61527100 61520992 
2766.606 61469112 61374760 61242204 61075816 60881016 60663060 60427812 
2769.981 60181388 59929436 59678084 59432084 59195300 58970484 58758604 
2773.357 58560028 58374500 58201632 58040952 57891840 57753600 57625128 
2776.732 57504488 57388836 57274648 57157092 57030612 56888904 56725012 
2780.107 56532868 56307464 56045760 55747668 55416092 55056372 54675220 
2783.482 54280256 53878932 53477080 53079756 52690348 52311196 51943656 
2786.858 51588216 51245032 50913404 50592236 50280824 49978560 49685048 
2790.233 49401020 49127452 48865660 48616480 48380552 48157788 47947088 
2793.608 47746840 47555156 47369396 47187364 47006856 46825868 46642852 
2796.983 46456628 46265696 46068988 45865152 45652504 45429292 45194028 
2800.359 44945364 44682700 44405776 44114944 43810780 43493868 43164408 
2803.734 42823208 42470692 42107948 41736460 41358368 40976704 40594288 
2807.109 40214640 39841208 39476988 39125220 38788876 38470068 38171132 
2810.484 37893444 37638012 37405376 37195636 37008552 36843836 36700492 
2813.860 36578240 36475956 36392720 36327760 36280496 36250888 36239004 
2817.235 36245776 36271888 36318576 36386556 36476788 36589884 36726632 
2820.610 36887372 37072384 37281160 37512684 37764972 38035664 38322204 
2823.985 38622180 38933568 39254928 39584628 39920820 40260512 40599816 
2827.361 40933668 41256516 41562140 41845248 42100756 42324968 42515052 
2830.736 42669652 42788616 42873056 42925248 42949128 42948908 42930036 
2834.111 42898180 42858644 42817320 42778964 42747740 42727228 42719552 
2837.486 42726388 42749056 42789204 42849172 42933180 43046476 43195848 
2840.862 43389392 43635224 43941976 44319280 44776396 45324536 45975972 
2844.237 46742764 47636568 48665476 49830444 51122120 52517524 53979096 
2847.612 55450728 56863824 58142120 59202704 59973216 60395940 60435048 
2850.987 60083132 59359672 58309808 56992792 55479752 53845888 52158248 
2854.363 50479860 48863252 47346816 45959212 44716784 43624668 42678936 
2857.738 41867760 41175488 40582792 40070904 39623176 39224828 38864496 
2861.113 38533352 38224608 37933796 37657924 37395768 37147668 36915400 
2864.488 36701068 36507632 36337632 36193660 36077928 35992644 35939800 
2867.864 35920868 35936528 35986560 36068892 36179652 36313460 36463848 
2871.239 36623372 36784436 36940328 37085196 37215744 37330624 37431956 
2874.614 37524240 37613912 37708664 37815284 37939728 38085872 38255656 
2877.989 38449540 38667020 38907548 39170180 39453876 39757396 40078752 
2881.365 40415220 40764180 41123068 41489004 41860352 42234572 42609268 
2884.740 42981464 43347172 43702196 44042588 44365112 44668124 44951680 
2888.115 45218036 45470608 45714600 45955788 46199980 46453016 46720768 
2891.490 47008628 47322800 47670180 48058884 48498688 49001172 49577292 
2894.865 50238084 50990792 51837052 52770336 53774252 54821432 55871892 
2898.241 56880408 57795684 58567344 59155392 59532700 59690284 59638400 
2901.616 59404884 59030604 58560332 58041480 57516780 57019916 56578992 
2904.991 56213852 55938824 55764924 55699868 55749744 55919264 56212192 
2908.366 56632324 57183472 57870068 58696360 59664932 60775664 62022768 
2911.742 63393036 64866148 66411568 67989904 69556920 71061120 72449992 
2915.117 73676504 74698864 75488368 76031968 76331480 76402936 76270776 
2918.492 75966016 75517696 74950632 74283816 73528016 72688592 71767216 
2921.867 70764560 69683096 68529360 67313560 66051148 64760828 63462436 
2925.243 62176248 60921044 59711692 58560140 57474456 56458940 55515108 
2928.618 54642380 53838612 53100648 52425096 51808380 51246928 50737524 
2931.993 50276772 49860956 49486788 49150380 48847716 48575348 48329740 
2935.368 48108184 47908092 47727092 47562664 47411596 47269928 47133552 
2938.744 46998436 46861892 46722948 46582796 46444828 46313652 46193828 
2942.119 46089068 46000616 45926472 45861248 45796700 45722592 45627108 
2945.494 45500152 45334024 45124760 44874156 44589248 44282184 43967344 
2948.869 43661052 43378184 43129644 42922356 42757904 42633392 42541764 
2952.245 42473764 42419320 42367740 42309552 42236840 42143000 42023588 
2955.620 41876008 41699184 41493268 41259576 41000192 40717708 40415256 
2958.995 40096704 39765636 39426152 39082184 38736852 38393468 38054580 
2962.370 37722684 37400500 37091292 36798248 36525040 36274808 36050100 
2965.746 35852096 35681452 35537232 35418256 35322500 35247892 35191548 
2969.121 35150516 35120988 35098752 35080320 35061968 35041240 35017104 
2972.496 34989952 34961328 34933424 34908828 34889156 34875184 34864916 
2975.871 34853572 34833680 34794120 34722008 34603868 34426540 34180700 
2979.247 33861384 33469680 33012152 32500926 31952110 31382718 30810696 
2982.622 30252390 29720348 29224608 28771632 28364046 28002606 27686280 
2985.997 27414014 27185342 27001000 26862490 26770500 26723316 26714296 
2989.372 26729482 26748722 26746396 26693752 26565764 26344366 26022526 
2992.748 25605842 25112668 24570400 24008778 23457712 22940978 22473326 
2996.123 22061112 21702822 21392442 21121102 20880384 20663430 20465442 
2999.498 20283064 20114192 19956766 19808898 19668326 19532584 19399724 
3002.873 19268602 19138870 19011152 18886894 18768174 18656578 18553378 
3006.249 18458984 18372630 18292894 18218114 18146940 18078784 18014090 
3009.624 17953896 17899268 17851380 17810124 17775054 17744644 17717722 
3012.999 17693356 17671270 17651944 17636070 17624476 17617576 17615298 
3016.374 17617954 17625236 17637210 17654084 17675756 17701708 17730664 
3019.750 17760730 17789620 17815062 17834844 17847030 17850310 17843510 
3023.125 17825936 17797628 17759382 17713272 17662194 17610364 17561644 
3026.500 17519382 17485644 17460982 17444252 17433490 17426076 17419592 
3029.875 17411934 17401450 17387104 17368100 17344098 17315100 17281412 
3033.250 17243728 17203084 17160718 17117944 17076172 17037266 17002704 
3036.626 16974380 16953640 16941788 16938790 16944338 16957256 16976000 
3040.001 16999360 17026064 17056080 17089094 17125386 17164716 17206736 
3043.376 17250624 17295376 17339720 17382758 17423766 17462396 17498718 
3046.751 17533044 17566234 17599080 17632414 17666714 17701882 17737328 
3050.127 17771740 17803636 17831598 17854626 17872164 17884112 17890462 
3053.502 17891534 17887666 17879278 17867366 17853140 17838400 17824728 
3056.877 17813336 17804672 17798596 17794384 17791312 17788930 17787688 
3060.252 17787930 17790380 17794936 17800978 17807814 17814682 17821656 
3063.628 17829630 17840298 17855418 17876204 17902514 17932830 17964980 
3067.003 17996510 18025936 18052704 18077746 18102514 18128492 18156614 
3070.378 18187294 18220258 18254984 18291408 18329772 18370764 18414802 
3073.753 18462442 18513684 18568110 18625242 18684664 18745826 18808448 
3077.129 18872326 18936870 19001252 19064532 19125990 19184858 19240894 
3080.504 19294408 19345918 19395912 19444802 19492728 19539308 19583986 
3083.879 19625964 19664512 19699426 19731014 19760348 19789096 19819580 
3087.254 19853534 19892764 19937962 19988926 20044822 20104058 20165420 
3090.630 20227622 20289868 20351882 20413902 20475896 20538108 20600608 
3094.005 20663638 20727406 20792052 20858030 20925584 20994606 21065102 
3097.380 21136268 21207518 21277906 21346812 21413606 21478564 21542102 
3100.755 21605582 21670220 21737204 21807088 21879700 21953614 22027088 
3104.131 22098170 22165776 22229836 22291496 22352714 22416104 22483026 
3107.506 22554252 22629572 22707282 22785668 22863438 22939512 23013678 
3110.881 23086248 23157782 23228768 23299942 23371792 23444840 23519512 
3114.256 23595876 23673512 23751654 23829072 23904650 23977860 24049016 
3117.632 24119204 24190138 24263360 24339680 24419588 24502068 24586284 
3121.007 24670900 24755150 24838572 24921134 25002588 25082898 25161854 
3124.382 25239280 25315314 25390484 25465666 25541810 25619690 25700008 
3127.757 25782488 25866742 25951680 26036562 26120408 26202580 26282478 
3131.133 26360352 26436406 26511558 26587042 26663840 26742978 26824774 
3134.508 26909088 26995218 27082176 27169468 27256566 27343540 27430462 
3137.883 27517260 27603616 27688750 27771822 27852220 27930162 28006210 
3141.258 28081776 28158310 28237474 28320084 28406314 28495572 28587148 
3144.634 28679558 28771526 28862274 28951200 29038692 29125314 29212488 
3148.009 29301732 29394402 29491202 29591854 29695440 29800294 29904640 
3151.384 30007306 30107298 30204578 30299426 30392096 30482970 30572158 
3154.759 30659690 30745928 30831576 30917810 31005770 31096204 31189718 
3158.135 31286172 31384998 31485666 31587850 31691164 31796142 31903182 
3161.510 32012102 32123256 32236050 32350120 32464936 32579888 32694620 
3164.885 32808382 32921064 33031706 33140156 33246096 33349446 33450068 
3168.260 33548172 33643184 33735064 33823344 33907560 33987780 34063960 
3171.635 34136504 34205616 34271260 34333076 34390316 34442536 34488844 
3175.011 34529132 34563212 34591488 34614668 34633760 34650376 34666160 
3178.386 34683176 34703020 34727284 34756036 34789240 34825604 34863732 
3181.761 34902116 34939780 34976272 35011788 35046732 35081652 35116888 
3185.136 35152348 35188064 35223924 35260004 35296476 35333496 35371312 
3188.512 35410024 35449788 35490556 35532664 35576036 35620412 35665552 
3191.887 35710588 35754696 35796828 35836408 35872900 35906152 35936164 
3195.262 35963124 35987172 36009128 36030048 36051468 36075228 36102988 
3198.637 36135288 36171408 36209832 36248048 36283560 36314972 36342316 
3202.013 36366564 36389728 36413544 36439200 36466948 36496172 36525944 
3205.388 36555532 36584440 36612628 36639920 36666020 36690576 36713144 
3208.763 36734024 36754036 36774444 36796624 36820864 36846904 36873088 
3212.138 36897220 36917672 36933760 36945844 36956056 36966484 36979148 
3215.514 36994664 37012592 37031752 37050804 37068740 37085664 37101976 
3218.889 37118436 37135864 37154632 37174772 37196252 37218992 37243324 
3222.264 37269532 37297696 37327844 37359620 37392484 37425960 37459948 
3225.639 37494408 37529448 37565248 37601376 37637472 37672380 37705660 
3229.015 37736600 37765332 37792116 37817888 37843448 37869908 37898036 
3232.390 37928372 37960988 37995740 38031832 38068360 38104680 38140452 
3235.765 38175980 38212232 38249828 38289524 38331108 38373884 38416524 
3239.140 38458264 38498740 38538496 38578836 38621348 38666440 38713892 
3242.516 38761924 38808444 38851016 38888844 38921788 38951072 38979088 
3245.891 39007432 39037776 39070508 39105968 39143748 39183344 39224792 
3249.266 39267296 39310752 39353956 39396148 39436600 39475464 39513168 
3252.641 39550876 39589604 39629600 39670296 39710192 39747408 39779872 
3256.017 39806636 39827336 39843136 39855264 39865580 39875568 39886244 
3259.392 39897868 39910400 39923112 39934988 39944904 39951520 39954424 
3262.767 39953368 39948864 39942076 39934192 39926272 39918680 39911232 
3266.142 39902916 39893256 39881556 39868012 39853012 39837576 39822472 
3269.518 39807796 39793456 39778640 39762296 39743816 39722868 39699704 
3272.893 39674764 39648732 39622196 39595556 39568768 39541768 39513932 
3276.268 39484788 39453764 39420640 39385552 39349312 39313076 39278036 
3279.643 39245324 39215548 39188348 39163184 39139032 39114924 39090704 
3283.019 39066340 39042812 39021208 39002252 38986480 38973760 38963720 
3286.394 38955060 38946760 38937844 38927116 38914216 38898704 38880912 
3289.769 38861776 38842536 38824496 38809312 38797680 38790148 38786560 
3293.144 38786668 38789964 38796196 38805468 38817752 38833512 38852716 
3296.520 38875332 38901024 38929292 38959952 38992644 39026896 39062244 
3299.895 39097992 39133448 39168040 39201800 39234840 39267808 39302228 
3303.270 39338940 39379388 39424336 39474268 39529352 39589128 39652652 
3306.645 39718656 39785320 39851340 39915412 39977420 40037840 40098232 
3310.021 40160264 40225436 40294544 40367080 40442060 40518220 40593884 
3313.396 40667856 40740160 40810732 40880440 40950016 41020184 41091784 
3316.771 41165104 41240376 41317148 41395176 41473476 41551128 41627084 
3320.146 41700824 41771844 41840140 41905744 41968880 42029464 42087652 
3323.521 42143436 42197548 42250644 42303492 42356492 42409280 42461376 
3326.897 42511508 42559160 42604040 42646768 42688220 42729460 42770736 
3330.272 42811104 42849064 42882600 42910248 42930988 42945144 42953188 
3333.647 42955676 42952276 42942692 42925572 42900516 42868044 42829828 
3337.022 42788288 42745840 42704088 42663436 42623048 42580868 42535152 
3340.398 42484212 42427216 42364124 42294908 42219492 42137996 42049976 
3343.773 41954972 41853020 41743976 41628212 41506244 41378740 41246640 
3347.148 41111488 40974992 40838652 40704280 40572312 40442788 40314356 
3350.523 40185488 40054368 39920132 39782448 39641872 39499412 39356312 
3353.899 39213224 39070908 38929688 38790036 38652712 38518728 38388580 
3357.274 38263180 38142300 38026192 37914452 37807228 37704436 37606540 
3360.649 37513296 37424228 37338100 37253144 37167412 37079672 36989428 
3364.024 36897076 36803876 36711776 36622796 36539172 36462224 36392896 
3367.400 36331364 36276788 36227444 36180948 36135000 36087544 36037352 
3370.775 35984148 35928396 35870776 35811616 35750308 35685804 35616172 
3374.150 35539640 35454752 35360996 35258456 35147716 35029568 34904700 
3377.525 34773728 34637060 34495264 34348640 34197084 34040024 33876356 
3380.901 33704516 33522900 33330806 33127784 32914598 32692370 32462362 
3384.276 32225844 31983246 31735256 31482496 31225784 30966700 30706416 
3387.651 30446432 30187032 29928068 29668514 29407556 29144272 28878706 
3391.026 28611956 28345584 28081564 27821770 27567566 27319334 27076640 
3394.402 26838556 26603560 26370034 26136946 25903880 25670868 25439526 
3397.777 25211644 24988900 24772268 24561670 24355310 24150868 23945262 
3401.152 23736710 23523990 23307388 23088134 22867838 22647584 22428594 
3404.527 22210828 21994428 21779878 21568010 21359898 21156202 20957328 
3407.903 20762682 20570868 20380424 20190202 20000202 19811048 19624194 
3411.278 19440888 19261364 19085444 18912054 18739738 18567902 18396620 
3414.653 18227030 18060820 17899510 17743676 17593214 17446702 17302548 
3418.028 17158856 17015004 16870478 16726378 16584149 16445512 16311770 
3421.404 16183848 16061464 15943514 15828414 15714031 15598786 15481373 
3424.779 15361831 15240982 15120098 15000791 14884089 14770744 14660752 
3428.154 14553255 14448115 14344711 14243078 14143215 14045156 13948521 
3431.529 13852523 13756580 13660111 13563254 13466692 13371756 13279097 
3434.905 13189463 13102477 13017352 12932790 12847938 12762487 12677087 
3438.280 12592660 12510295 12430639 12353078 12277029 12200994 12124155 
3441.655 12045524 11965272 11883740 11801204 11717729 11633045 11546336 
3445.030 11456924 11364739 11270535 11176045 11083547 10995520 10913559 
3448.406 10838442 10769452 10704480 10641623 10578164 10512542 10443671 
3451.781 10371655 10297751 10222707 10148115 10074487 10001821 9929743 
3455.156 9857405 9784504 9710531 9635655 9560319 9484961 9410226 9336553 
3459.013 9264112 9192528 9121599 9051290 8981332 8911655 8842564 8774668 
3462.871 8708337 8643808 8581283 8520590 8461325 8402914 8344746 8286755 
3466.728 8228739 8171100 8113841 8057367 8001371 7945856 7890145 7834104 
3470.586 7777564 7720593 7663192 7605224 7546286 7485975 7423885 7360288 
3474.443 7296565 7234334 7176121 7124012 7078813 7040152 7006006 6973479 
3478.301 6939406 6901330 6858072 6809434 6756864 6702551 6648782 6597813 
3482.158 6551323 6510489 6475982 6447429 6424091 6404385 6386194 6367230 
3486.015 6346518 6322782 6296424 6268691 6240992 6214505 6190306 6168258 
3489.873 6148329 6130182 6113850 6099670 6088749 6081155 6077257 6076115 
3493.730 6076619 6077526 6077997 6077829 6078232 6080416 6085960 6095906 
3497.588 6110524 6129006 6150245 6172930 6196120 6219245 6242740 6267010 
3501.445 6293668 6323891 6359160 6400855 6450220 6507731 6573962 6648614 
3505.302 6730851 6818892 6910756 7003952 7096326 7186361 7273485 7358704 
3509.160 7444109 7532497 7626502 7727744 7835993 7949230 8064522 8178630 
3513.017 8289085 8395110 8497410 8598045 8698838 8800973 8903842 9005654 
3516.875 9103564 9194795 9277888 9352228 9418521 9478019 9530784 9576949 
3520.732 9614719 9642193 9657405 9659234 9648291 9625458 9592565 9550631 
3524.590 9500031 9439922 9368140 9282897 9182984 9068410 8940674 8802190 
3528.447 8656247 8505486 8351738 8196085 8039173 7881305 7722988 7565133 
3532.304 7407875 7250978 7093194 6932033 6765009 6589873 6406335 6215783 
3536.162 6021315 5827238 5637811 5455984 5283690 5121120 4967560 4821894 
3540.019 4682908 4549558 4420568 4295296 4172670 4051785 3931768 3811752 
3543.877 3690499 3566841 3439311 3306977 3169943 3030284 2891470 2757902 
3547.734 2634243 2522716 2423246 2333026 2247422 2161601 2071502 1976363 
3551.592 1877617 1778860 1684384 1597443 1519431 1449612 1386119 1326756 
3555.449 1270226 1215698 1163269 1113171 1064741 1017279 968925 918817 
3559.306 866391 811647 756014 700753 647590 597220 550440 506649 464821 
3563.646 423327 378953 328383 268170 195302 109720 13916 -85874 -180807 
3567.986 -263435 -327605 -371869 -398419 -412422 -419837 -426325 -436421 
3571.843 -452309 -474750 -503279 -536737 -574197 -614565 -657610 -703230 
3575.700 -750665 -799351 -848032 -895418 -940154 -981314 -1018670 -1052551 
3579.558 -1084447 -1115547 -1146943 -1178898 -1210189 -1238836 -1262591 
3582.933 -1279407 -1289053 -1292951 -1294801 -1299823 -1313532 -1340421 
3586.308 -1382072 -1437128 -1500035 -1563494 -1618890 -1660877 -1686755 
3589.684 -1697283 -1696293 -1688669 -1679592 -1673816 -1674839 -1684906 
3593.059 -1704346 -1732234 -1766423 -1803711 -1840764 -1874549 -1902393 
3596.434 -1922779 -1934952 -1939372 -1937690 -1932478 -1926672 -1923406 
3599.809 -1924594 -1931125 -1942110 -1955832 -1969554 -1980471 -1987529 
3603.185 -1990267 -1989080 -1985451 -1981131 -1978162 -1978855 -1986507 
3606.560 -2003921 -2033802 -2077101 -2132366 -2194941 -2258563 -2316408 
3609.935 -2363832 -2399190 -2424134 -2442651 -2459322 -2478069 -2499746 
3613.310 -2522905 -2544317 -2560326 -2568165 -2567441 -2559799 -2548896 
3616.686 -2539277 -2535555 -2541945 -2560161 -2589608 -2626133 -2663413 
3620.061 -2694170 -2713071 -2717582 -2708692 -2690252 -2667365 -2645136 
3623.436 -2625672 -2609436 -2594285 -2577684 -2558580 -2539837 -2527484 
3626.811 -2531701 -2562961 -2627286 -2721962 -2832549 -2937054 -3013827 
3630.187 -3051963 -3053213 -3028207 -2991419 -2955220 -2929023 -2915859 
3633.562 -2914674 -2920795 -2929254 -2935967 -2938962 -2939259 -2938897 
3636.937 -2939719 -2943142 -2948835 -2956306 -2964665 -2973320 -2982402 
3640.312 -2991682 -3000567 -3007312 -3009451 -3004384 -2989971 -2965849 
3643.688 -2934026 -2897756 -2862241 -2832549 -2813423 -2808123 -2818460 
3647.063 -2844762 -2885907 -2940246 -3005963 -3079928 -3157138 -3230518 
3650.438 -3290239 -3327298 -3335748 -3314704 -3268766 -3207002 -3141513 
3653.813 -3084501 -3046534 -3034590 -3049659 -3085686 -3130558 -3170032 
3657.188 -3193023 -3193780 -3173749 -3138947 -3097003 -3055582 -3019849 
3660.564 -2993064 -2975459 -2966212 -2962657 -2962986 -2964731 -2966212 
3663.939 -2964895 -2958182 -2942451 -2914542 -2872116 -2814905 -2745998 
3667.314 -2671317 -2598204 -2532886 -2476388 -2420970 -2349299 -2236313 
3670.689 -2060349 -1807571 -1477217 -1077903 -625153 -138511 359520 833822 
3674.547 1237595 1517569 1624182 1535558 1264644 851517 343835 -214224 
3678.404 -783575 -1330874 -1825554 -2240697 -2561446 -2786428 -2928990 
3681.780 -3010636 -3054858 -3080093 -3096016 -3104767 -3104504 -3093812 
3685.155 -3074796 -3054661 -3042980 -3050087 -3083087 -3142796 -3222822 
3688.530 -3311318 -3394995 -3463470 -3511952 -3540546 -3552246 -3550504 
3691.905 -3538442 -3518887 -3494401 -3467514 -3440920 -3416462 -3395422 
3695.281 -3377439 -3361953 -3347750 -3333611 -3318979 -3304511 -3291325 
3698.656 -3281393 -3277053 -3280210 -3292212 -3312896 -3340483 -3371357 
3702.031 -3400189 -3422479 -3435069 -3436285 -3427673 -3411433 -3390622 
3705.406 -3367477 -3343278 -3319012 -3294646 -3271166 -3249955 -3233313 
3708.781 -3224269 -3225453 -3238740 -3264721 -3302077 -3348308 -3399006 
3712.157 -3448514 -3490687 -3519643 -3531409 -3524212 -3499561 -3461268 
3715.532 -3415082 -3367707 -3324865 -3290766 -3266858 -3252322 -3244463 
3718.907 -3240878 -3239825 -3241634 -3247028 -3256598 -3269226 -3282347 
3722.282 -3292081 -3295271 -3290963 -3280538 -3268930 -3261432 -3262550 
3725.658 -3273698 -3292903 -3313882 -3329041 -3332066 -3319111 -3291423 
3729.033 -3253539 -3213284 -3179406 -3159045 -3156842 -3172926 -3203417 
3732.408 -3241009 -3279519 -3315461 -3350314 -3388321 -3433984 -3488222 
3735.783 -3546461 -3599600 -3636994 -3651812 -3642580 -3613007 -3569137 
3739.159 -3516718 -3459394 -3398085 -3333249 -3266694 -3203812 -3154934 
3742.534 -3134901 -3158059 -3232491 -3350150 -3485296 -3600882 -3667879 
3745.909 -3677276 -3639557 -3574954 -3505379 -3449401 -3418435 -3416200 
3749.284 -3438915 -3478426 -3525132 -3571832 -3615209 -3652831 -3681809 
3752.660 -3697776 -3696429 -3676093 -3639458 -3592634 -3543799 -3500481 
3756.035 -3468237 -3448941 -3441644 -3443320 -3451439 -3464325 -3481023 
3759.410 -3500186 -3518558 -3530325 -3529766 -3513037 -3480760 -3438751 
3762.785 -3396474 -3364222 -3349788 -3355443 -3376979 -3405482 -3429711 
3766.161 -3441907 -3440033 -3428889 -3416791 -3412419 -3421591 -3445292 
3769.536 -3478656 -3513135 -3539625 -3552508 -3549748 -3534038 -3509980 
3772.911 -3483455 -3458638 -3437567 -3420572 -3406140 -3392233 -3377439 
3776.286 -3362315 -3349689 -3343870 -3349262 -3368398 -3399729 -3437337 
3779.662 -3472148 -3494959 -3500284 -3487827 -3462912 -3433787 -3409230 
3783.037 -3395357 -3394140 -3403050 -3417449 -3431519 -3441545 -3446410 
3786.412 -3447889 -3448317 -3449401 -3451144 -3452524 -3451670 -3448021 
3789.787 -3441578 -3433918 -3426325 -3419027 -3411498 -3402458 -3390886 
3793.163 -3377833 -3366228 -3360572 -3364945 -3381220 -3407126 -3435989 
3796.538 -3458277 -3465377 -3453182 -3424188 -3386250 -3352681 -3337458 
3799.913 -3352353 -3402195 -3481582 -3574330 -3656445 -3706187 -3713513 
3803.288 -3680199 -3618922 -3547119 -3483455 -3442465 -3432735 -3453773 
3806.664 -3495551 -3541992 -3575053 -3584287 -3567921 -3531771 -3484770 
3810.039 -3435168 -3388354 -3345317 -3305103 -3265905 -3227821 -3194208 
3813.414 -3171907 -3168617 -3190918 -3240055 -3309575 -3384573 -3446509 
3816.789 -3481713 -3484934 -3462451 -3427705 -3398217 -3390162 -3414457 
3820.165 -3474055 -3560166 -3652601 -3726391 -3762689 -3754083 -3707008 
3823.540 -3635909 -3558424 -3490325 -3441282 -3415443 -3409855 -3416430 
3826.915 -3424648 -3425963 -3416528 -3397263 -3372869 -3349788 -3333447 
3830.290 -3326772 -3329896 -3340385 -3354095 -3367214 -3376091 -3379543 
3833.666 -3376453 -3368299 -3356824 -3345613 -3339036 -3341864 -3357646 
3837.041 -3387795 -3429612 -3477473 -3523390 -3559969 -3582644 -3590202 
3840.416 -3584813 -3570386 -3551654 -3532494 -3515896 -3503571 -3495255 
3843.791 -3489799 -3484409 -3476158 -3461991 -3440099 -3410085 -3373099 
3847.167 -3331244 -3287017 -3242259 -3197990 -3154835 -3113452 -3076638 
3850.542 -3050120 -3042915 -3066308 -3131183 -3241338 -3387960 -3546626 
3853.917 -3685489 -3779179 -3817148 -3805291 -3757861 -3690943 -3616654 
3857.292 -3543997 -3478262 -3421821 -3375992 -3340845 -3315921 -3299743 
3860.667 -3290042 -3284682 -3282117 -3282216 -3287576 -3301124 -3325654 
3864.043 -3359553 -3397296 -3428955 -3444372 -3437469 -3409230 -3368332 
3867.418 -3329435 -3307503 -3314737 -3355147 -3421821 -3496965 -3558950 
3870.793 -3592206 -3592732 -3567757 -3530883 -3496537 -3474350 -3466856 
3874.168 -3469256 -3472050 -3465771 -3444471 -3408080 -3362282 -3315724 
3877.544 -3277743 -3256137 -3255447 -3276231 -3314047 -3360211 -3404036 
3880.919 -3435102 -3446607 -3437173 -3410874 -3376255 -3343278 -3322366 
3884.294 -3320656 -3339661 -3374053 -3412090 -3440493 -3448119 -3431716 
3887.669 -3394995 -3347750 -3300927 -3265312 -3248606 -3253868 -3278565 
3891.045 -3314902 -3353142 -3383685 -3399992 -3399926 -3384836 -3358205 
3894.420 -3324141 -3286589 -3249330 -3215685 -3188649 -3171117 -3164999 
3897.795 -3171084 -3187827 -3213120 -3241930 -3270048 -3293889 -3312337 
3901.170 -3326476 -3339661 -3355542 -3376617 -3402918 -3431453 -3457455 
3904.546 -3475534 -3481089 -3472806 -3451867 -3421591 -3385790 -3348210 
3907.921 -3310956 -3275409 -3241437 -3209304 -3179143 -3151940 -3128881 
3911.296 -3110886 -3098484 -3091048 -3087660 -3086969 -3088384 -3091904 
3914.671 -3098714 -3109702 -3125789 -3146513 -3169834 -3193385 -3213975 
3918.047 -3229729 -3239727 -3244167 -3244002 -3240187 -3233675 -3225453 
3921.422 -3216507 -3208285 -3202463 -3200161 -3201904 -3206542 -3211212 
3924.797 -3212922 -3208482 -3196839 -3178617 -3157401 -3136776 -3120492 
3928.172 -3110689 -3107531 -3110064 -3115985 -3123222 -3130986 -3138947 
3931.548 -3147499 -3156315 -3164637 -3170624 -3172302 -3168288 -3159013 
3934.923 -3146151 -3132335 -3120459 -3112235 -3107761 -3106017 -3104734 
3938.298 -3101938 -3097003 -3090522 -3084863 -3082758 -3086936 -3098286 
3941.673 -3116117 -3137499 -3157960 -3173650 -3180853 -3178683 -3168190 
3945.049 -3152269 -3134572 -3119176 -3109143 -3106050 -3109702 -3118485 
3948.424 -3129637 -3140690 -3149374 -3154276 -3154934 -3151743 -3145230 
3951.799 -3135855 -3124473 -3111709 -3098648 -3086410 -3076079 -3068051 
3955.174 -3062261 -3058049 -3053937 -3048936 -3042223 -3034228 -3026167 
3958.550 -3019487 -3015769 -3015835 -3019651 -3025903 -3033504 -3040874 
3961.925 -3046665 -3050482 -3052094 -3051502 -3049133 -3044987 -3039262 
3965.300 -3032188 -3024521 -3016756 -3009550 -3003429 -2998461 -2994282 
3968.675 -2990333 -2986055 -2981349 -2975788 -2969700 -2962986 -2955615 
3972.051 -2947256 -2938074 -2928332 -2918393 -2908782 -2900291 -2893083 
3975.426 -2887059 -2881628 -2875605 -2868265 -2859081 -2848153 -2836170 
3978.801 -2824386 -2813818 -2805720 -2800453 -2798313 -2798774 -2801374 
3982.176 -2805588 -2810790 -2816551 -2822509 -2828895 -2835282 -2841701 
3985.552 -2848185 -2854868 -2861550 -2868199 -2874618 -2880378 -2884821 
3988.927 -2887323 -2887323 -2884657 -2879555 -2872676 -2865105 -2858126 
3992.302 -2853321 -2851115 -2852267 -2856382 -2863327 -2872313 -2882846 
3995.677 -2894070 -2905293 -2915529 -2923790 -2928990 -2930636 -2928793 
3999.052 -2924218 -2918228 -2912436 -2907992 
##END=
