
##TITLE=1675_2_a
##JCAMP-DX=5.01  $$ Nicolet v. 1
##DATATYPE=INFRARED SPECTRUM
##ORIGIN=UniL
##OWNER=Nicolet
##LONGDATE=2011/09/16
##TIME=11:38:25
##SPECTROMETER/DATA SYSTEM=Nicolet iS5
##DATA PROCESSING=
Ratio against background
%Transmittance->Absorbance
Truncated
ElementMultiply or ElementDivide
##COMMENTS=
Number of sample scans: 32
Collection length: 51.17 sec
Sample gain: 2.0
Background collected on: Ven Sep 16 11:34:41 2011 (GMT+02:00);
Number of background scans: 32
Background gain: 2.0
Sample spacing:  1.000
Number of scan points: 12415
Resolution points: 8192
Number of FFT points: 65536
Apodization: N-B fort;
Phase correction: Mertz;
Laser frequency: 15798.0 cm-1
Number of rejected sample scans: 0
Number of rejected background scans: 0
Bench serial number: ASB1000141;
##RESOLUTION=4.000
##XUNITS=1/CM
##YUNITS=ABSORBANCE
##FIRSTX=649.893372
##LASTX=4000.122314
##FIRSTY=0.077775
##MAXX=4000.122314
##MINX=649.893372
##MAXY=0.253301
##MINY=-0.000577
##XFACTOR=1.000000
##YFACTOR=1.000000E-009
##NPOINTS=6950
##DELTAX=0.482117
##ZPD=6100
##XYDATA=(X++(Y..Y))
649.893 77774752 77582616 77410672 77296216 77257576 77295184 77399944 
653.268 77564392 77791432 78095608 78489984 78978776 79549376 80175472 
656.643 80830936 81503944 82202848 82954824 83792040 84732952 85776488 
660.018 86904776 88094696 89335168 90635568 92018008 93505984 95105104 
663.393 96795176 98534208 100278480 101994424 103657928 105252224 106740256 
666.767 108044072 109047984 109635504 109760312 109479008 108914480 
669.660 108178712 107326920 106361464 105258176 103998256 102589760 
672.553 101075736 99519856 97992400 96543416 95192928 93937848 92766056 
675.928 91670616 90655080 89730400 88904312 88171656 87512560 86898224 
679.302 86298128 85693336 85078384 84458536 83842792 83236624 82637208 
682.677 82037520 81430672 80815376 80198072 79591128 79006160 78450208 
686.052 77923824 77423272 76944808 76487304 76052144 75641712 75253536 
689.427 74879056 74503960 74112200 73692688 73243024 72770624 72288800 
692.802 71812360 71353232 70917688 70509512 70132592 69793120 69501696 
696.177 69269704 69106272 69016304 68998440 69048968 69162840 69337840 
699.551 69574384 69874648 70238368 70660840 71131096 71634336 72154744 
702.926 72679464 73200504 73714432 74219616 74713304 75189240 75639856 
706.301 76059208 76445968 76806856 77153320 77500144 77859728 78239208 
709.676 78643128 79077112 79554192 80099520 80748920 81540280 82504360 
713.051 83647192 84939432 86307832 87649416 88839424 89754800 90308744 
716.425 90460352 90232016 89702448 89002352 88291456 87723256 87438440 
719.800 87535664 88058248 88992920 90266320 91755616 93285448 94660088 
723.175 95688344 96200328 96096464 95363960 94089008 92435648 90617768 
726.550 88856624 87318184 86103808 85237816 84685584 84378896 84244880 
729.925 84229872 84298704 84433104 84620560 84844760 85083784 85316688 
733.300 85529016 85719048 85896688 86076936 86270808 86480136 86696432 
736.674 86908136 87106064 87289296 87464336 87641024 87825496 88016896 
740.049 88207736 88389568 88558992 88720936 88886216 89066136 89266344 
743.424 89483304 89706888 89925824 90134512 90336520 90542136 90761856 
746.799 90999952 91251584 91504592 91746648 91971408 92181448 92386376 
750.174 92595880 92812704 93029840 93233944 93413576 93564792 93696296 
753.548 93823512 93962904 94122344 94297320 94473680 94635984 94776248 
756.923 94897608 95013424 95138600 95283488 95448696 95627424 95811560 
760.298 95999120 96196064 96414368 96663648 96945304 97249936 97562416 
763.673 97870224 98171600 98479336 98817912 99215040 99692728 100264216 
767.048 100933416 101698920 102555984 103498408 104518200 105608616 
769.940 106775976 108056608 109538016 111353184 113661976 116600728 
772.833 120201152 124323008 128598200 132493424 135349360 136548288 
775.726 135718320 132812528 128160192 122332912 116043312 109939616 
778.619 104465768 99864208 96153520 93206392 90818296 88791416 86978168 
781.993 85286568 83681736 82161968 80741264 79437568 78270552 77262088 
785.368 76433248 75803160 75384848 75182344 75194560 75420160 75864552 
788.743 76544048 77483464 78709648 80247416 82114176 84322000 86883976 
792.118 89819136 93152224 96907864 101093392 105681984 110589888 115676432 
795.493 120736312 125498624 129669176 132929920 134971184 135554992 
798.385 134532096 131890776 127763760 122425232 116249784 109631792 
801.278 102975360 96620432 90805424 85682600 81299880 77624608 74568904 
804.653 72023984 69888032 68081792 66565140 65330400 64390204 63757816 
808.028 63428612 63364932 63496760 63721820 63921088 63988232 63834524 
811.402 63407952 62695092 61713636 60503940 59115980 57606552 56031812 
814.777 54442820 52889220 51411612 50041168 48798924 47694548 46728372 
818.152 45896124 45191636 44611204 44153344 43818880 43608732 43522616 
821.527 43558844 43716488 43997448 44408748 44962452 45673892 46556792 
824.902 47618416 48852980 50238532 51728984 53254080 54722948 56018880 
828.277 57020972 57618960 57727484 57314116 56405172 55088868 53491508 
831.651 51764368 50059272 48496280 47162952 46103732 45321336 44784184 
835.026 44434368 44202392 44009364 43781572 43463764 43021672 42451108 
838.401 41774872 41038028 40292796 39586916 38957016 38420724 37979972 
841.776 37626416 37348172 37134712 36978208 36873088 36813540 36792120 
845.151 36800556 36832328 36884232 36957464 37056468 37185816 37346804 
848.525 37536996 37751416 37985148 38236076 38506488 38801560 39127756 
851.900 39489180 39886972 40320172 40788200 41292808 41840140 42438396 
855.275 43096748 43823168 44622884 45500816 46463820 47522108 48691272 
858.650 49990120 51437940 53053472 54852968 56849888 59055696 61475680 
862.025 64103776 66909872 69833592 72778776 75606024 78157488 80269896 
865.400 81790968 82615848 82694120 82042288 80739384 78923144 76774672 
868.774 74480552 72232064 70197080 68498440 67223344 66413036 66067776 
872.149 66152044 66600404 67326440 68218504 69153592 70006400 70649376 
875.524 70979528 70927128 70463440 69606200 68412472 66970640 65376736 
878.899 63730104 62121424 60620504 59282912 58147156 57235292 56558344 
882.274 56114832 55893300 55872008 56020728 56304976 56685440 57123604 
885.648 57586616 58047616 58492540 58922932 59357588 59829220 60379492 
889.023 61052016 61879272 62877992 64044328 65356904 66781640 68279768 
892.398 69817712 71367920 72910240 74430648 75914552 77344992 78699560 
895.773 79945832 81040848 81931432 82549352 82822848 82684856 82082152 
899.148 80992856 79433184 77461168 75165872 72660272 70070448 67510800 
902.523 65084568 62875040 60936712 59303344 57987516 56984704 56277704 
905.897 55841672 55650296 55677868 55905056 56320704 56919844 57702280 
909.272 58668788 59818304 61147176 62649160 64314468 66130316 68076440 
912.647 70121456 72223104 74327576 76374848 78314560 80111200 81755808 
916.022 83267736 84693888 86101704 87564280 89159248 90952808 92989208 
919.397 95284816 97815928 100516632 103271096 105933640 108350392 110379256 
922.771 111935000 113008336 113681864 114114800 114531344 115193816 
925.664 116343248 118189648 120873584 124439720 128823952 133834304 
928.557 139171616 144398992 148987712 152398064 154089056 153645440 
931.450 150854400 145736320 138567856 129826408 120148840 110184448 
934.342 100521392 91651504 83888296 77401776 72240832 68362832 65678240 
937.717 64078928 63464388 63734980 64782404 66481104 68653488 71067760 
941.092 73463968 75549280 77058584 77803480 77685904 76727776 75052712 
944.467 72869528 70415200 67914192 65559304 63474096 61721004 60311456 
947.841 59221616 58409448 57827596 57434628 57193640 57072664 57045496 
951.216 57087516 57177800 57300964 57446124 57608292 57786756 57982784 
954.591 58197656 58431812 58684828 58955760 59244668 59552540 59880788 
957.966 60230488 60601496 60991768 61398424 61818568 62250584 62695244 
961.341 63154580 63631080 64126396 64640260 65171108 65716660 66275380 
964.716 66847296 67434048 68037872 68660248 69301144 69958832 70631048 
968.090 71316296 72014208 72726320 73454864 74201496 74967096 75750968 
971.465 76552824 77373656 78216280 79085416 79986056 80922224 81895416 
974.840 82905208 83950112 85029368 86144368 87298128 88494848 89738704 
978.215 91033088 92380928 93787200 95259392 96808760 98449584 100195896 
981.590 102058792 104044400 106152576 108377008 110705224 113118296 
984.482 115586664 118064304 120490704 122783624 124846456 126585528 
987.375 127912584 128764944 129114464 128970144 128377496 127410040 
990.268 126170680 124775168 123340736 121986128 120808680 119881208 
993.160 119251112 118936752 118934880 119228608 119796808 120618064 
996.053 121674208 122950744 124432696 126103472 127945944 129941168 
998.946 132071328 134320592 136669472 139092240 141553280 144000672 
1001.839 146372368 148604800 150636096 152422160 153940384 155191312 
1004.731 156198016 157003136 157668832 158266608 158877680 159586288 
1007.624 160464144 161569264 162937584 164581248 166494112 168658096 
1010.517 171053824 173662576 176468768 179458832 182614944 185914816 
1013.409 189334096 192847072 196432032 200069760 203734544 207387248 
1016.302 210963872 214367344 217482752 220184960 222358816 223927376 
1019.195 224860224 225184400 224977408 224369504 223531840 222647488 
1022.087 221915664 221518768 221594896 222237920 223478304 225290064 
1024.980 227597792 230296608 233271552 236396928 239553696 242625248 
1027.873 245488720 248029680 250144656 251751280 252805408 253301120 
1030.766 253267728 252755584 251828848 250556560 249003056 247235168 
1033.659 245314480 243286992 241176656 238971360 236621648 234040672 
1036.552 231124016 227773088 223903840 219469488 214460736 208903168 
1039.446 202852048 196388000 189618512 182663024 175652144 168718528 
1042.339 161970480 155494608 149346928 143551792 138115584 133034336 
1045.232 128302784 123920288 119891520 116222848 112921352 109990320 
1048.125 107428360 105229584 103384208 101878904 100695704 99812952 99205216 
1051.500 98842416 98695128 98734472 98933032 99266600 99708984 100227816 
1054.875 100784872 101330352 101806304 102155704 102322912 102262488 
1057.768 101945568 101358976 100509080 99421160 98142568 96739200 95289560 
1061.144 93885904 92617696 91564320 90793752 90351000 90260480 90526824 
1064.519 91136928 92061384 93254688 94660416 96208016 97816432 99406952 
1067.894 100901568 102233976 103357480 104239968 104864840 105226888 
1070.787 105327848 105175680 104783024 104170264 103363360 102393288 
1073.680 101298264 100119312 98902080 97700272 96568624 95564288 94742912 
1077.055 94146544 93803080 93720184 93886272 94271504 94833176 95523664 
1080.431 96288080 97067968 97806048 98440472 98916064 99193016 99254680 
1083.806 99118408 98836968 98501448 98224520 98129320 98343560 98973648 
1087.181 100100960 101771968 103988280 106701112 109802040 113138592 
1090.074 116505008 119663584 122389128 124472944 125764472 126193064 
1092.967 125765576 124566296 122731176 120441384 117886584 115239296 
1095.860 112653496 110237272 108052704 106119912 104419952 102904640 
1098.753 101502440 100135008 98720496 97180424 95454888 93502160 91307680 
1102.129 88886872 86285240 83573848 80834056 78156376 75625264 73308248 
1105.504 71260856 69520128 68106712 67030640 66291900 65883876 65794000 
1108.879 66005012 66495092 67235376 68192840 69327728 70591176 71929656 
1112.254 73280128 74571184 75733536 76698360 77407984 77824368 77928824 
1115.630 77724496 77231808 76486040 75530904 74411880 73177640 71872568 
1119.005 70534184 69195008 67878672 66602028 65378196 64216504 63124880 
1122.380 62109536 61173152 60313244 59521036 58782960 58082724 57407064 
1125.755 56750988 56121656 55539580 55033612 54639260 54389488 54307512 
1129.131 54405148 54678868 55112416 55676248 56332324 57037184 57740392 
1132.506 58393300 58951888 59381404 59665048 59806288 59829792 59775412 
1135.881 59693556 59636956 59648092 59756668 59973940 60291508 60681884 
1139.256 61101980 61501636 61823452 62013212 62027432 61832736 61411476 
1142.632 60760076 59886340 58807468 57546816 56134548 54603152 52988220 
1146.007 51327732 49655964 48004372 46398924 44857104 43390196 42003768 
1149.382 40699292 39476988 38337296 37281628 36312956 35434436 34649404 
1152.757 33960296 33369090 32877282 32486108 32196260 32007534 31918232 
1156.133 31925112 32024264 32212316 32487466 32850300 33303332 33849744 
1159.508 34492148 35231216 36064968 36988744 37994764 39073156 40208932 
1162.883 41382020 42567968 43735728 44851044 45880768 46791692 47555712 
1166.258 48151012 48561008 48776752 48796996 48628748 48286376 47790264 
1169.634 47166128 46438892 45633332 44772064 43873860 42956332 42036692 
1173.009 41130684 40255460 39426916 38658616 37962108 37345464 36813936 
1176.384 36371464 36020976 35765780 35609012 35553308 35600308 35750812 
1179.759 36005492 36365696 36834816 37417692 38120340 38948428 39906004 
1183.135 40995384 42218180 43575732 45070244 46704536 48480200 50394192 
1186.510 52436760 54589476 56821752 59091572 61347400 63523300 65546476 
1189.885 67342728 68837832 69974952 70720216 71069512 71049376 70712272 
1193.260 70130568 69378376 68526952 67635336 66741256 65864944 65009520 
1196.635 64166376 63320116 62454644 61557492 60620616 59641324 58620356 
1200.011 57559716 56460828 55324100 54149844 52940308 51702072 50448560 
1203.386 49198320 47974652 46802692 45704000 44695188 43785344 42976016 
1206.761 42262804 41637948 41092984 40619464 40210132 39858712 39559184 
1210.136 39305600 39093348 38919832 38785400 38694292 38653400 38671148 
1213.512 38755692 38914652 39153824 39477384 39888424 40388532 40977472 
1216.887 41652684 42409496 43241744 44142964 45107848 46132764 47215328 
1220.262 48353888 49546392 50790444 52084612 53430464 54834024 56305728 
1223.637 57860716 59514232 61278752 63161856 65163292 67274480 69476896 
1227.013 71742744 74032736 76292888 78460376 80461032 82214424 83647512 
1230.388 84694240 85305592 85457088 85150936 84421712 83333808 81986616 
1233.763 80504736 79021344 77682096 76621832 75955000 75781344 76173864 
1237.138 77182768 78841088 81163176 84146408 87766648 91978128 96704632 
1240.514 101833032 107227144 112716072 118102584 123187272 127756608 
1243.407 131606040 134567360 136509776 137367056 137142576 135908752 
1246.300 133794888 130964352 127615768 123952192 120166712 116442920 
1249.193 112919072 109680416 106748392 104076440 101558576 99044608 96383912 
1252.568 93444552 90144944 86473744 82487376 78301896 74058120 69913056 
1255.943 66006556 62437432 59266768 56509016 54141060 52110352 50348684 
1259.319 48784796 47345780 45971112 44614728 43244784 41846268 40417660 
1262.694 38967744 37510300 36061728 34638928 33255752 31925504 30659904 
1266.069 29468542 28359272 27337330 26403270 25554390 24784968 24088976 
1269.444 23460860 22897316 22396426 21956716 21575636 21249304 20972872 
1272.820 20742072 20554192 20408310 20304174 20240500 20213250 20215508 
1276.195 20238454 20272856 20311812 20351256 20389210 20425848 20461066 
1279.570 20494896 20527550 20559196 20590288 20620030 20644144 20654012 
1282.945 20636674 20576394 20460058 20281570 20045030 19764440 19462476 
1286.321 19165986 18899320 18682520 18529692 18448994 18445986 18524158 
1289.696 18686118 18932682 19261570 19667252 20139770 20666002 21230584 
1293.071 21813812 22393322 22944334 23439106 23852454 24166036 24370974 
1296.446 24471816 24484120 24433082 24345672 24247874 24162112 24103722 
1299.822 24084318 24111602 24189122 24316026 24484680 24681668 24886676 
1303.197 25076474 25229378 25327046 25357184 25313908 25195946 25005886 
1306.572 24749256 24435852 24079310 23697412 23311758 22942726 22607478 
1309.947 22318216 22080598 21896008 21764376 21686068 21662872 21697214 
1313.323 21790086 21940022 22142798 22393810 22689232 23028002 23411550 
1316.698 23841954 24319530 24841380 25401232 25991884 26607050 27243088 
1320.073 27898400 28571506 29257426 29946598 30623602 31268620 31862568 
1323.448 32388460 32835934 33204176 33503216 33755652 33993436 34258100 
1326.823 34593712 35036572 35610524 36316236 37129620 38001708 38870656 
1330.199 39674472 40359952 40897040 41281328 41532496 41686600 41789828 
1333.574 41891328 42033772 42253932 42579336 43025984 43599136 44292788 
1336.949 45092228 45975896 46920060 47903944 48908716 49919716 50924696 
1340.324 51911988 52870020 53786968 54649668 55443124 56148800 56740944 
1343.700 57189292 57460160 57519200 57340776 56909944 56226032 55300580 
1347.075 54156524 52824292 51336536 49731044 48047888 46328288 44619908 
1350.450 42973196 41437024 40060440 38883340 37933000 37225164 36762656 
1353.825 36539064 36539712 36743252 37119948 37628008 38218344 38834600 
1357.201 39418824 39922932 40309556 40556308 40656576 40616844 40455700 
1360.576 40200464 39892128 39583140 39332332 39204232 39253264 39512260 
1363.951 39990244 40671456 41524912 42510520 43587816 44715096 45843208 
1367.326 46918736 47879560 48657952 49195020 49443900 49378484 48996648 
1370.702 48318188 47383620 46245828 44975460 43655628 42372672 41218404 
1374.077 40270732 39579404 39161804 39002068 39064708 39308320 39701880 
1377.452 40231688 40901664 41730152 42745508 43982780 45476528 47258516 
1380.827 49346040 51727004 54339544 57055056 59693900 62023036 63797532 
1384.203 64809600 64895080 63974024 62064620 59308812 55965132 52362032 
1387.578 48857356 45732124 43145928 41140700 39664304 38618632 37890916 
1390.953 37383960 37017284 36727388 36468932 36207636 35921300 35601784 
1394.328 35254000 34893460 34538280 34203320 33894164 33608524 33339750 
1397.704 33082586 32836828 32609176 32410700 32253108 32144736 32087654 
1401.079 32079018 32113194 32185018 32292262 32436620 32624606 32866382 
1404.454 33174024 33557336 34021064 34563468 35176316 35847960 36566348 
1407.829 37322320 38109488 38923888 39762480 40621280 41495640 42380596 
1411.205 43271832 44165156 45053524 45923192 46753168 47515600 48181076 
1414.580 48728820 49152424 49463024 49685684 49854600 50007000 50176004 
1417.955 50393560 50689448 51087724 51605528 52245124 52991928 53818844 
1421.330 54693936 55589888 56487428 57383732 58292076 59238284 60250848 
1424.706 61349196 62535948 63797220 65109240 66446392 67790424 69127288 
1428.081 70443960 71724456 72943784 74070384 75074296 75936136 76656896 
1431.456 77258840 77784096 78283048 78802040 79381912 80055576 80855608 
1434.831 81826128 83025656 84522256 86376184 88604752 91171632 93997544 
1438.207 96984608 100032624 103033824 105875680 108414088 110481376 
1441.100 111922904 112603728 112445680 111438144 109629704 107113872 
1443.993 104003600 100429480 96515808 92370272 88097536 83797416 79581336 
1447.368 75592184 71982368 68889784 66404080 64541800 63258932 62478172 
1450.743 62126508 62151132 62521524 63220532 64223648 65489604 66969164 
1454.118 68605216 70349080 72171216 74049912 75968344 77900080 79812104 
1457.494 81667104 83436056 85113240 86705168 88224592 89686728 91105992 
1460.869 92492960 93847856 95158976 96391488 97483984 98362968 98954680 
1464.244 99219832 99176408 98904488 98516208 98107800 97741600 97434016 
1467.619 97171064 96923512 96658224 96338576 95910680 95295704 94385712 
1470.995 93052496 91195296 88793368 85947368 82855608 79742184 76774432 
1474.370 74024920 71499232 69182384 67077576 65224276 63684912 62512076 
1477.745 61732084 61333204 61279480 61531340 62065464 62882968 64004624 
1481.120 65455900 67250768 69382688 71827096 74553792 77536776 80767080 
1484.496 84245848 87970032 91919328 96029208 100171976 104168704 107776152 
1487.871 110710648 112694552 113472656 112880144 110897272 107678016 
1490.764 103528432 98815456 93894952 89017160 84308032 79807720 75493288 
1494.139 71326880 67298656 63439892 59829564 56576008 53776392 51483224 
1497.514 49690548 48354188 47411668 46807080 46501840 46469720 46690700 
1500.890 47145000 47807796 48649464 49638800 50734952 51888464 53036628 
1504.265 54080900 54886168 55279128 55068780 54126232 52463416 50254560 
1507.640 47746916 45146632 42562740 40023740 37525868 35071124 32677472 
1511.015 30388150 28257558 26328102 24626608 23154812 21895696 20823442 
1514.391 19911320 19135962 18475752 17912528 17432766 17028890 16701654 
1517.766 16456146 16295567 16215077 16198499 16219549 16251434 16276268 
1521.141 16298492 16343249 16445961 16629832 16894452 17220698 17581242 
1524.516 17955346 18334024 18724896 19146038 19618892 20155736 20755766 
1527.892 21407896 22098658 22819120 23567506 24349528 25173512 26046484 
1531.267 26973006 27953556 28984706 30060706 31172380 32306858 33447456 
1534.642 34577352 35679400 36739396 37740536 38664412 39493536 40206464 
1538.017 40783612 41209368 41475404 41580260 41529400 41339524 41035844 
1541.393 40649188 40209988 39736444 39230740 38678972 38061960 37367816 
1544.768 36605460 35805464 35011824 34261508 33567216 32916098 32276270 
1548.143 31613934 30909342 30170656 29431204 28739274 28132540 27622822 
1551.518 27196136 26824070 26480038 26151762 25846520 25585002 25388410 
1554.894 25263194 25194966 25149566 25082618 24940890 24668972 24221248 
1558.269 23583388 22803336 21988712 21260266 20689214 20281744 20003532 
1561.644 19808412 19655082 19510160 19352710 19175474 18986642 18806440 
1565.019 18659484 18564790 18526374 18533116 18563026 18594082 18610404 
1568.395 18608366 18598164 18598958 18630534 18703276 18816890 18962828 
1571.770 19130596 19310654 19494670 19675018 19840528 19978760 20078136 
1575.145 20135260 20160908 20181040 20228560 20326220 20479266 20677676 
1578.520 20905348 21149140 21403024 21669664 21957866 22277546 22634878 
1581.896 23029852 23454600 23896424 24337926 24759078 25138506 25451402 
1585.271 25673538 25784810 25773240 25640462 25404290 25101154 24779424 
1588.646 24494776 24304672 24254952 24378756 24692752 25194508 25860726 
1592.021 26643124 27473558 28260176 28899280 29296452 29372314 29083862 
1595.396 28432952 27466710 26267026 24928292 23548090 22204588 20951868 
1598.772 19826066 18845334 18016334 17337030 16799042 16389251 16092891 
1602.147 15898351 15799137 15794154 15885323 16073361 16353674 16715392 
1605.522 17139072 17598908 18065416 18502306 18869870 19129244 19242106 
1608.897 19179524 18926970 18487510 17884214 17157926 16364789 15560595 
1612.273 14792616 14092455 13470143 12920194 12427264 11974365 11548378 
1615.648 11145006 10770539 10439361 10167347 9965102 9834391 9767933 9753395 
1619.505 9774541 9813480 9853948 9881641 9888928 9876929 9856117 9842086 
1623.363 9848864 9883437 9943439 10020707 10105891 10194280 10285401 
1626.738 10381462 10484741 10595038 10709200 10823495 10935850 11047960 
1630.113 11164078 11288966 11423653 11564746 11703671 11828544 11928149 
1633.489 11993031 12018340 12005771 11964216 11907239 11851085 11809137 
1636.864 11788096 11788027 11804234 11828919 11852005 11863820 11856533 
1640.239 11827182 11779210 11720759 11662962 11613850 11575022 11540450 
1643.614 11497953 11433042 11332225 11188658 11005681 10798256 10589776 
1646.990 10405592 10266164 10181152 10150660 10167347 10219993 10293375 
1650.365 10366938 10415806 10407118 10308982 10108367 9834087 9559574 
1653.740 9360150 9270915 9276669 9339363 9421162 9496441 9553443 9589111 
1657.597 9607132 9612517 9608926 9596562 9572411 9531698 9470771 9388353 
1661.455 9286452 9170056 9046825 8926131 8816798 8726289 8658883 8614606 
1665.312 8588751 8572259 8553368 8518259 8454805 8356230 8223943 8068370 
1669.170 7906476 7757190 7633785 7541499 7477851 7435918 7406628 7379868 
1673.027 7345528 7293634 7216175 7111684 6988900 6866151 6763662 6695586 
1676.885 6662913 6656218 6659212 6656420 6638891 6605685 6564408 6525894 
1680.742 6498582 6481901 6464816 6426613 6345073 6205968 6016074 5806988 
1684.599 5623646 5499470 5439241 5426089 5434779 5444911 5443334 5425686 
1688.457 5393009 5349768 5301298 5252298 5207897 5173191 5152503 5148177 
1692.314 5158304 5175136 5185430 5173425 5125479 5037378 4920775 4802730 
1696.172 4714225 4672023 4671889 4692186 4704914 4681568 4603503 4470378 
1700.029 4306874 4154973 4050781 4007539 4013793 4047738 4087337 4117475 
1703.886 4129918 4122392 4098141 4064460 4030648 4004663 3991421 3992324 
1707.744 4005098 4026200 4050948 4075932 4099613 4122492 4147045 4176116 
1711.601 4211144 4252197 4296936 4342248 4385356 4424484 4459063 4487987 
1715.459 4508544 4515876 4504459 4471952 4422911 4370227 4330535 4316680 
1719.316 4333178 4375248 4432651 4493377 4547214 4589037 4618036 4637393 
1723.174 4651727 4664989 4678889 4692822 4705316 4715197 4722365 4727021 
1727.031 4728964 4726887 4718345 4701731 4677817 4650823 4626610 4609966 
1730.888 4600690 4592084 4569983 4516278 4416249 4266920 4086267 3908297 
1734.746 3770473 3693172 3673690 3693406 3730434 3765827 3786449 3786683 
1738.603 3767197 3734043 3696213 3661427 3635532 3620162 3615184 3619394 
1742.461 3631622 3650300 3674125 3701727 3732138 3765292 3801858 3842305 
1746.318 3886466 3932871 3978580 4020247 4055163 4081752 4100282 4112089 
1750.176 4118946 4122458 4124834 4128647 4136608 4151026 4172302 4198029 
1754.033 4222720 4238278 4237274 4214322 4169793 4110082 4046567 3990518 
1757.890 3947651 3916957 3890678 3859454 3814426 3751756 3674025 3589659 
1761.748 3509885 3444487 3398868 3373389 3364740 3367746 3377463 3389150 
1765.605 3398100 3400104 3392523 3375059 3351484 3328579 3313320 3309614 
1769.463 3315824 3324672 3326408 3311918 3278131 3230894 3184162 3153289 
1773.320 3148649 3171278 3214203 3267748 3323537 3377296 3428857 3480057 
1777.177 3532199 3583545 3629851 3665671 3687291 3695044 3693206 3689296 
1781.035 3690065 3698586 3713056 3728562 3739992 3744337 3742264 3737485 
1784.892 3735246 3739123 3749818 3765493 3783608 3801758 3819206 3836020 
1788.750 3851531 3863131 3866340 3855108 3825123 3775653 3711619 3642749 
1792.607 3580104 3531598 3499831 3481995 3472609 3466297 3459550 3450566 
1796.465 3438275 3422044 3400471 3372354 3337427 3297328 3255229 3216039 
1800.322 3183695 3160164 3144845 3134565 3126556 3119347 3112940 3109102 
1804.179 3109702 3116110 3127724 3143276 3161165 3180357 3200217 3220212 
1808.037 3239506 3256064 3267548 3272222 3269985 3263308 3256264 3253326 
1811.894 3257266 3268550 3284942 3303738 3322368 3341100 3361601 3387314 
1815.752 3420875 3463257 3512925 3566306 3619628 3669547 3713958 3752090 
1819.609 3783909 3809312 3828499 3841803 3849859 3853403 3852734 3847319 
1823.467 3836154 3818203 3794036 3766729 3741897 3725321 3720876 3728395 
1827.324 3742833 3755767 3758474 3745373 3717434 3682880 3653976 3642715 
1831.181 3655813 3691902 3743835 3802359 3859654 3911005 3956110 3996771 
1835.039 4035966 4075899 4117007 4159556 4204453 4253871 4311526 4381138 
1838.896 4464688 4561512 4668071 4779111 4889007 4993602 5090109 5177516 
1842.754 5256892 5331520 5407368 5491518 5591525 5711699 5851988 6007071 
1846.611 6167687 6322983 6462360 6579176 6670720 6738860 6787793 6822090 
1850.469 6843598 6851643 6843329 6815930 6768710 6703661 6624357 6534673 
1854.326 6436735 6330783 6215984 6092042 5961282 5828111 5698471 5577026 
1858.183 5465580 5361978 5262661 5163803 5064195 4965984 4873158 4789965 
1862.041 4718245 4657286 4604139 4556523 4513700 4477074 4449389 4432049 
1865.898 4423480 4419195 4412534 4398208 4374478 4345360 4317684 4299479 
1869.756 4295463 4305001 4324210 4347636 4371265 4393824 4416015 4439213 
1873.613 4463214 4486314 4504660 4515005 4515106 4505262 4487251 4463281 
1877.470 4434057 4399480 4358279 4310188 4256447 4200505 4146276 4096971 
1881.328 4053825 4014596 3976273 3935814 3892484 3847753 3804933 3766896 
1885.185 3735046 3708411 3684384 3660391 3635365 3610172 3586819 3567609 
1889.043 3553378 3544091 3539648 3540450 3547966 3564502 3591095 3626377 
1892.900 3666272 3704300 3735514 3757973 3774316 3790360 3812922 3846416 
1896.758 3890444 3940595 3990485 4035163 4073390 4107707 4142496 4181502 
1900.615 4225464 4271873 4316312 4354731 4386192 4412501 4436936 4463013 
1904.472 4491469 4520931 4548855 4572997 4593122 4610803 4628251 4645799 
1908.330 4661640 4671420 4671587 4660635 4640508 4616529 4594696 4578991 
1912.187 4569816 4564525 4558733 4549324 4535596 4518889 4501178 4483300 
1916.045 4462612 4435397 4398175 4350180 4295999 4243397 4199267 4167418 
1919.902 4145473 4126339 4101887 4066233 4018374 3963098 3908464 3861392 
1923.760 3826293 3802426 3786449 3774951 3767398 3765158 3770807 3785647 
1927.617 3807473 3831140 3850996 3863365 3868480 3870118 3872926 3880080 
1931.474 3890778 3900507 3903650 3896763 3880415 3858685 3837324 3820142 
1935.332 3807574 3796610 3783073 3764891 3744537 3727192 3719372 3724017 
1939.189 3739324 3758875 3775386 3783274 3782773 3779330 3780600 3792098 
1943.047 3814660 3842940 3869951 3889642 3901377 3908665 3917792 3933808 
1946.904 3957447 3984700 4008911 4025431 4032353 4033056 4033323 4038006 
1950.761 4049745 4066133 4083625 4098275 4109012 4117307 4125235 4133899 
1954.619 4141091 4143299 4135872 4117408 4090615 4062320 4039377 4026702 
1958.476 4024695 4028976 4034159 4036902 4037236 4039912 4050513 4071250 
1962.334 4101553 4136642 4171499 4203416 4232791 4262403 4294393 4328192 
1966.191 4358547 4378728 4384452 4375616 4359015 4345427 4341947 4352489 
1970.049 4372804 4394560 4409689 4415547 4414342 4414576 4424986 4448652 
1973.906 4484673 4528297 4575877 4629690 4697679 4790368 4913436 5062318 
1977.763 5219768 5361207 5463802 5512960 5507390 5457292 5378953 5288553 
1981.621 5198071 5113040 5035065 4965650 4906131 4860056 4829734 4814288 
1985.478 4810335 4811441 4812278 4811106 4810234 4813752 4824943 4843303 
1989.336 4863072 4876475 4877313 4864178 4841795 4819817 4807621 4810067 
1993.193 4825378 4846587 4865518 4876341 4878117 4875068 4873024 4877179 
1997.051 4888907 4906567 4927511 4949797 4973526 4999903 5030305 5062519 
2000.908 5093226 5117567 5131279 5135370 5133894 5132620 5136644 5146333 
2004.765 5157465 5163333 5157901 5138454 5107944 5072710 5037612 5005635 
2008.623 4975369 4942458 4904858 4864379 4826718 4800519 4793383 4806516 
2012.480 4836636 4875570 4914777 4949094 4978151 5003456 5029065 5056652 
2016.338 5085482 5114113 5143215 5174935 5214202 5265445 5328367 5397974 
2020.195 5464607 5518061 5551318 5563869 5560849 5550646 5540243 5532323 
2024.052 5525209 5514571 5496987 5472626 5445448 5419781 5399551 5384824 
2027.910 5372277 5357987 5342288 5328099 5322765 5332795 5360536 5402906 
2031.767 5451890 5499135 5540612 5577898 5617839 5666881 5727343 5793825 
2035.625 5855547 5900552 5920772 5916540 5896186 5872004 5854876 5851316 
2039.482 5861022 5879427 5900048 5919496 5936492 5951675 5966053 5977743 
2043.340 5983857 5981405 5969848 5952985 5936526 5928061 5932461 5950701 
2047.197 5979120 6011203 6040735 6061230 6067446 6055014 6019300 5957151 
2051.054 5868410 5759005 5639591 5525980 5435013 5378517 5360133 5373351 
2054.912 5403845 5435684 5455111 5455950 5439442 5411998 5380127 5348996 
2058.769 5320820 5295463 5273930 5259274 5255316 5266451 5294221 5335679 
2062.627 5384018 5431826 5472559 5503564 5525477 5540176 5549908 5554137 
2066.484 5551653 5541015 5523933 5503933 5487289 5478867 5480109 5488363 
2070.342 5497557 5500578 5492960 5474639 5448803 5420218 5393177 5368084 
2074.199 5342992 5315788 5285165 5253103 5224060 5202297 5190527 5187140 
2078.056 5187442 5185967 5178891 5165345 5148412 5131748 5118606 5109252 
2081.914 5101474 5091685 5077370 5058362 5036841 5016059 4997825 4981905 
2085.771 4966152 4947116 4922987 4893866 4861732 4829667 4799145 4769597 
2089.629 4738946 4704847 4666865 4627614 4592117 4566367 4555552 4561378 
2093.486 4582406 4615692 4656214 4699487 4741894 4779480 4808157 4824172 
2097.344 4824943 4810904 4785811 4757068 4732213 4717374 4714493 4720824 
2101.201 4731409 4741123 4747890 4753350 4762663 4780384 4808961 4846955 
2105.058 4889443 4930862 4967225 4997691 5024942 5052395 5082398 5114650 
2108.916 5147138 5176477 5200989 5221378 5240124 5260582 5284562 5311327 
2112.773 5338329 5362918 5383616 5401430 5419446 5440013 5464607 5491383 
2116.631 5516618 5536250 5548599 5554338 5557560 5562997 5573837 5590484 
2120.488 5610858 5630628 5646136 5655837 5659899 5660335 5659496 5658388 
2124.345 5657045 5655065 5651977 5647680 5642678 5635898 5625560 5608340 
2128.203 5580583 5540344 5488699 5429478 5368654 5312233 5264338 5226576 
2132.060 5198541 5179662 5169939 5170475 5182613 5205114 5233618 5260749 
2135.918 5279229 5284495 5277687 5265244 5256524 5259944 5278189 5307571 
2139.775 5340644 5368587 5385796 5392607 5394384 5398209 5408542 5426056 
2143.633 5446421 5464237 5474941 5477189 5473834 5468801 5464841 5462157 
2147.490 5458634 5451555 5440046 5426995 5415890 5410723 5411763 5414749 
2151.347 5413004 5399820 5370667 5326455 5270576 5207260 5139393 5069458 
2155.205 4999534 4937196 4899194 4906533 4985893 5154481 5413105 5740706 
2159.062 6098460 6441981 6731389 6945096 7079149 7145299 7162310 7149611 
2162.920 7122934 7092621 7063590 7038703 7017859 6999608 6979641 6954557 
2166.777 6919509 6873085 6817782 6758648 6702584 6654838 6616652 6585433 
2170.635 6555629 6521319 6479546 6431791 6382966 6339323 6306477 6287449 
2174.492 6282137 6289062 6305434 6329102 6357042 6384849 6407176 6417567 
2178.349 6411480 6388177 6351763 6311385 6276523 6256085 6253732 6266942 
2182.207 6288693 6310880 6327085 6334650 6334986 6331389 6327421 6325808 
2186.064 6327522 6332095 6339121 6348132 6358185 6367734 6375804 6380578 
2189.922 6382966 6385790 6393759 6411682 6443225 6486441 6536758 6585770 
2193.779 6625635 6651507 6663889 6665538 6662005 6657463 6652281 6644375 
2197.636 6630345 6607603 6576922 6542308 6508168 6479479 6458426 6444100 
2201.494 6434818 6428933 6425907 6427487 6435221 6449648 6468919 6489569 
2205.351 6507697 6520781 6529728 6536254 6544797 6556840 6572145 6587788 
2209.209 6600605 6607367 6608040 6604272 6598755 6593574 6589470 6584726 
2213.066 6578200 6569555 6559968 6552702 6550247 6553611 6561415 6570295 
2216.924 6576888 6579815 6580017 6580892 6586072 6597376 6613053 6629033 
2220.781 6639934 6641381 6632162 6613591 6589167 6562323 6534841 6507024 
2224.638 6477898 6446555 6413834 6381352 6351562 6326244 6305333 6287482 
2228.496 6271010 6254908 6239984 6228387 6222606 6224051 6232421 6245127 
2232.353 6258606 6270069 6277969 6282675 6284927 6286843 6289499 6294004 
2236.211 6301635 6313637 6331523 6356268 6386395 6419114 6448841 6469659 
2240.068 6477596 6471677 6453650 6429101 6404150 6383739 6371096 6367431 
2243.926 6371735 6383302 6400686 6422308 6445949 6468818 6486912 6497439 
2247.783 6499524 6494479 6486609 6480723 6480286 6486407 6497237 6509513 
2251.640 6519839 6527273 6533193 6541569 6555797 6577729 6605954 6636973 
2255.498 6665202 6685962 6696729 6696696 6686870 6669071 6644543 6614600 
2259.355 6580892 6544932 6509782 6477730 6450792 6429639 6413565 6401560 
2263.213 6392650 6387538 6388009 6396113 6413027 6437710 6467203 6496968 
2267.070 6522295 6540492 6550684 6554081 6553173 6550011 6546412 6543385 
2270.927 6541333 6541737 6545336 6553173 6565283 6580353 6596266 6610193 
2274.785 6620555 6626207 6628427 6628192 6626880 6625029 6622405 6618570 
2278.642 6613793 6609688 6608444 6611976 6621060 6634651 6650565 6666211 
2282.500 6679434 6690504 6700666 6711602 6724928 6739903 6754980 6767431 
2286.357 6775441 6777932 6776249 6772177 6767230 6762585 6758210 6753465 
2290.215 6748586 6744716 6743740 6748081 6759557 6777696 6800650 6825456 
2294.072 6849152 6869854 6887258 6902138 6915738 6928868 6941426 6953109 
2297.929 6963580 6972671 6981863 6992167 7004289 7018196 7032709 7046146 
2301.787 7057124 7065173 7070427 7074165 7077162 7079486 7080632 7080025 
2305.644 7076826 7071841 7066318 7061570 7059111 7058471 7058640 7058202 
2309.502 7056282 7053184 7050625 7051130 7056653 7067901 7084067 7102658 
2313.359 7121317 7137417 7150049 7159143 7165442 7169957 7173460 7176896 
2317.217 7181713 7189124 7200948 7218803 7243229 7273922 7309572 7348358 
2321.074 7387553 7424728 7456244 7477581 7483581 7469154 7430492 7367163 
2324.931 7282919 7185856 7085986 6994422 6919879 6866791 6835149 6820643 
2328.789 6817647 6820306 6824614 6829192 6833971 6839794 6847032 6855851 
2332.646 6866084 6877933 6892240 6909779 6931292 6956072 6982301 7007858 
2336.504 7030756 7050591 7068339 7086357 7106329 7129300 7154461 7179591 
2340.361 7202531 7221330 7235581 7246093 7253707 7258424 7259367 7254886 
2344.219 7243768 7227023 7208427 7193907 7191044 7206439 7244307 7306000 
2348.076 7389642 7491200 7604516 7723191 7840109 7948319 8042819 8120560 
2351.933 8181634 8229346 8269363 8308201 8350556 8399164 8453994 8512886 
2355.791 8573543 8634412 8695661 8758305 8823797 8892784 8964892 9038942 
2359.648 9113139 9186030 9256834 9324839 9389166 9448659 9501826 9547684 
2363.506 9586028 9617971 9645920 9672244 9698536 9725778 9752819 9778167 
2367.363 9799992 9816632 9826732 9829544 9823918 9809108 9784538 9751430 
2371.220 9711920 9669602 9629252 9595512 9571970 9561064 9563977 9581353 
2375.078 9613500 9660725 9723474 9801516 9893979 9999481 10115997 10241908 
2378.935 10376507 10519976 10672558 10834705 11005342 11182198 11361950 
2382.311 11540518 11714120 11879382 12033976 12175845 12303070 12413864 
2385.686 12506509 12580005 12634172 12670197 12689949 12695715 12689438 
2389.061 12672448 12645293 12608009 12560906 12504532 12439436 12366577 
2392.436 12286709 12200210 12107971 12011595 11913130 11816015 11723686 
2395.812 11639001 11564133 11499620 11445118 11400352 11365250 11340931 
2399.187 11329572 11333177 11353278 11390148 11442942 11509691 11588192 
2402.562 11676950 11774580 11880642 11994905 12117068 12247377 12386112 
2405.937 12534168 12693020 12863807 13047501 13243774 13451619 13669309 
2409.313 13895113 14127949 14367178 14612260 14862385 15115123 15367186 
2412.688 15613349 15848449 16067721 16267017 16443757 16595958 16722349 
2416.063 16822462 16896072 16944268 16968524 16972142 16958152 16929972 
2419.438 16889698 16838444 16776415 16703581 16620159 16527526 16427929 
2422.813 16324671 16221061 16120227 16024986 15937429 15859514 15793329 
2426.189 15740624 15703484 15683662 15682701 15701801 15741447 15802091 
2429.564 15883813 15985761 16107125 16246790 16403427 16576370 16765051 
2432.939 16969108 17188088 17420936 17665990 17921090 18184566 18455528 
2436.314 18735654 19027456 19334246 19659486 20005268 20371534 20757226 
2439.690 21161210 21582528 22021790 22480374 22959912 23461418 23984408 
2443.065 24527100 25086864 25661658 26250164 26852406 27468474 28099168 
2446.440 28743664 29400570 30067382 30740804 31417802 32094646 32767362 
2449.815 33431746 34083100 34717128 35330548 35921192 36488464 37032148 
2453.191 37551844 38045940 38510652 38940488 39328888 39668736 39952788 
2456.566 40174804 40328896 40409912 40413912 40337624 40179420 39938732 
2459.941 39616500 39214384 38734680 38180320 37554772 36862372 36108928 
2463.316 35301796 34449744 33562704 32650754 31723816 30791738 29862792 
2466.692 28944968 28045830 27172290 26331376 25529686 24772442 24064286 
2470.067 23408332 22806582 22259340 21766742 21327462 20938622 20596058 
2473.442 20294450 20026954 19786912 19568560 19367954 19182294 19010700 
2476.817 18852462 18706458 18570842 18443116 18319990 18199526 18080268 
2480.193 17961872 17845062 17730874 17619920 17512792 17409486 17309962 
2483.568 17214114 17122252 17034404 16951158 16873130 16801176 16736226 
2486.943 16679445 16631382 16591929 16560122 16533377 16508941 16484331 
2490.318 16457764 16429545 16400743 16374180 16352093 16336473 16327700 
2493.694 16325051 16327079 16331896 16337607 16343215 16347757 16350474 
2497.069 16351094 16349373 16345762 16340394 16333720 16325945 16316794 
2500.444 16305750 16291922 16275167 16255870 16235026 16214458 16195644 
2503.819 16179789 16166549 16155062 16144127 16132297 16119264 16105715 
2507.195 16092753 16081819 16073979 16069440 16067000 16065281 16061291 
2510.570 16052250 16035264 16007556 15967714 15915122 15850853 15777146 
2513.945 15697472 15615203 15533053 15452703 15373982 15296271 15218299 
2517.320 15139620 15060475 14982751 14908024 14838521 14775440 14719532 
2520.696 14670314 14627373 14589850 14557333 14529340 14505700 14486345 
2524.071 14471408 14461337 14457397 14460275 14470758 14488366 14511731 
2527.446 14538488 14566241 14592797 14617435 14640806 14664728 14690741 
2530.821 14720389 14753981 14791072 14830464 14871608 14913614 14956514 
2534.197 15000243 15044559 15088605 15131935 15173828 15215107 15257077 
2537.572 15302002 15352150 15408758 15471725 15540196 15611941 15685312 
2540.947 15758729 15831746 15904261 15976135 16047504 16117821 16186668 
2544.322 16253635 16318789 16382542 16445512 16508356 16570862 16632931 
2547.698 16694045 16753754 16812234 16869514 16925836 16981236 17035300 
2551.073 17087476 17137106 17183848 17227696 17268896 17307616 17344030 
2554.448 17377654 17408002 17434596 17457050 17475642 17490474 17501824 
2557.823 17509654 17513414 17512276 17505654 17492888 17473676 17447840 
2561.198 17415348 17375722 17328720 17273928 17211424 17142002 17067108 
2564.574 16988714 16909232 16830934 16756164 16686676 16624600 16571172 
2567.949 16527355 16493522 16468948 16452223 16441418 16434431 16430061 
2571.324 16427584 16427413 16430371 16437495 16449263 16466506 16489495 
2574.699 16518956 16555475 16599882 16651867 16710434 16773487 16837962 
2578.075 16900826 16960358 17015730 17068244 17119976 17173334 17230420 
2581.450 17291826 17357480 17426764 17498788 17573030 17649184 17726972 
2584.825 17806086 17886182 17966880 18047798 18128908 18210790 18293552 
2588.200 18377678 18462304 18546844 18630396 18711994 18791286 18868000 
2591.576 18942268 19013852 19082432 19147216 19207922 19264826 19319002 
2594.951 19372144 19426714 19484272 19546238 19612998 19684760 19761596 
2598.326 19843786 19931650 20025496 20125228 20229948 20338024 20448006 
2601.701 20558986 20670970 20784892 20902460 21025104 21153626 21287650 
2605.077 21426416 21568322 21712540 21858376 22006210 22156258 22309180 
2608.452 22464636 22621614 22778718 22933994 23084990 23229678 23365916 
2611.827 23491496 23604798 23704444 23789450 23859770 23915608 23957482 
2615.202 23986124 24001950 24005522 23997468 23978876 23951216 23916274 
2618.578 23876504 23833518 23789136 23744340 23700000 23656578 23614804 
2621.953 23575166 23538820 23506430 23478486 23455298 23437042 23423578 
2625.328 23415152 23412248 23415256 23425188 23442672 23468168 23502338 
2628.703 23545012 23596120 23655110 23720648 23791376 23865512 23941586 
2632.079 24018550 24096298 24175388 24257194 24343184 24434342 24531202 
2635.454 24633518 24740522 24850676 24962998 25076230 25189908 25303584 
2638.829 25417428 25531338 25645910 25761216 25877502 25994910 26112386 
2642.204 26229398 26344578 26456760 26565060 26669582 26770252 26868198 
2645.580 26964544 27060804 27157828 27256848 27358750 27464416 27574698 
2648.955 27690130 27811030 27937266 28068098 28202646 28340030 28479898 
2652.330 28622326 28767596 28916668 29070114 29228860 29393018 29562734 
2655.705 29737698 29917418 30101546 30289196 30479914 30673240 30869070 
2659.081 31067516 31268690 31473122 31680542 31891092 32103668 32317172 
2662.456 32530460 32742600 32952916 33161506 33368662 33574768 33780648 
2665.831 33986524 34193140 34400856 34610292 34822084 35036820 35254824 
2669.206 35476392 35701308 35929472 36160172 36392972 36627304 36862412 
2672.582 37097612 37332360 37565792 37797612 38026916 38253264 38475640 
2675.957 38693172 38904720 39108976 39305600 39494804 39677808 39856752 
2679.332 40034352 40213548 40397184 40587884 40788236 41000520 41227184 
2682.707 41470628 41732816 42015192 42318320 42641576 42983624 43342816 
2686.083 43717184 44104968 44505064 44916408 45338696 45771408 46214096 
2689.458 46666500 47128344 47599264 48078796 48566528 49061860 49564364 
2692.833 50074260 50592012 51118732 51655344 52202824 52761284 53330196 
2696.208 53908452 54494540 55086912 55684572 56287132 56894308 57505812 
2699.583 58121360 58740284 59361728 59984480 60607780 61230188 61849968 
2702.959 62464668 63071392 63666456 64246468 64807832 65347776 65862976 
2706.334 66350380 66806600 67227560 67608896 67946776 68237928 68480160 
2709.709 68672584 68815232 68908808 68954824 68954744 68910320 68823304 
2713.084 68695016 68526488 68317920 68069000 67779152 67447792 67074680 
2716.460 66660628 66207068 65716088 65190584 64633420 64048200 63438392 
2719.835 62809140 62165124 61511908 60855020 60199620 59550448 58911664 
2723.210 58287336 57681320 57097796 56540640 56013492 55519552 55060844 
2726.585 54638696 54253412 53905380 53594320 53320308 53083424 52883304 
2729.961 52719492 52590632 52495348 52432012 52399040 52395112 52419300 
2733.336 52471008 52549120 52652720 52780024 52929120 53097316 53282064 
2736.711 53480228 53689208 53905940 54127548 54351784 54576060 54797972 
2740.086 55015372 55225844 55426932 55616516 55792576 55954316 56101596 
2743.462 56235988 56359900 56476108 56587520 56696844 56806116 56917200 
2746.837 57031252 57149456 57272456 57400860 57534180 57671404 57811356 
2750.212 57952340 58093292 58234332 58376284 58521124 58671592 58830612 
2753.587 59001380 59186640 59389420 59612248 59856944 60125140 60416768 
2756.963 60731264 61066812 61420448 61788688 62167724 62552676 62938504 
2760.338 63318960 63687480 64036996 64360656 64652876 64908780 65125220 
2763.713 65300128 65432476 65521656 65567480 65570636 65531948 65453664 
2767.088 65338640 65190160 65012328 64809488 64586392 64348168 64100928 
2770.464 63850612 63602732 63362516 63133232 62917052 62714652 62525624 
2773.839 62349484 62185692 62034080 61894328 61765620 61646536 61534124 
2777.214 61424648 61313704 61195964 61066208 60918988 60748796 60551060 
2780.589 60321732 60059008 59762676 59435352 59081624 58707476 58319552 
2783.965 57924396 57527560 57133544 56746192 56367976 56001016 55646720 
2787.340 55305812 54978032 54663048 54359632 54066788 53783476 53509612 
2790.715 53245128 52990652 52746356 52512548 52288700 52074192 51868152 
2794.090 51669376 51477184 51290444 51108032 50928608 50750072 50570348 
2797.466 50387048 50197692 50000160 49793056 49575284 49346856 49107900 
2800.841 48859028 48600324 48332004 48053776 47764708 47463816 47150432 
2804.216 46824428 46486496 46138332 45782712 45423628 45064732 44710320 
2807.591 44364268 44029680 43708792 43403740 43115080 42843688 42589860 
2810.967 42354008 42137084 41939972 41763676 41609176 41476608 41365364 
2814.342 41274332 41201792 41145800 41104748 41077468 41063956 41064720 
2817.717 41081364 41115460 41169224 41244676 41343424 41467024 41616324 
2821.092 41791800 41993256 42219712 42469560 42740868 43030924 43337364 
2824.468 43657316 43987840 44325740 44667496 45009160 45346124 45673856 
2827.843 45987388 46281768 46552552 46795864 47008000 47186924 47330888 
2831.218 47439868 47514936 47558336 47573604 47564624 47536452 47494828 
2834.593 47445228 47394116 47346888 47308612 47283192 47272776 47278720 
2837.969 47301884 47343084 47405092 47491908 47609648 47765924 47969548 
2841.344 48229428 48555116 48956816 49444572 50030644 50728324 51550904 
2844.719 52511764 53620488 54879776 56281736 57803900 59408300 61036228 
2848.094 62614480 64059764 65280916 66196144 66739716 66868900 66572016 
2851.469 65867336 64801484 63436552 61848628 60118328 58318412 56517620 
2854.845 54773992 53130264 51619296 50260700 49061412 48018876 47122324 
2858.220 46356156 45701132 45137920 44648400 44215744 43826100 43467936 
2861.595 43131984 42812204 42504528 42207952 41923296 41653048 41400936 
2864.970 41170464 40965452 40789548 40646240 40538300 40468500 40437768 
2868.346 40446100 40491412 40569692 40675716 40803196 40945792 41096812 
2871.721 41250064 41399808 41540664 41668876 41782316 41881296 41968912 
2875.096 42050636 42133540 42224968 42331544 42458344 42608172 42782328 
2878.471 42980916 43203276 43448380 43715132 44001992 44307392 44628536 
2881.847 44963148 45308208 45660748 46018148 46377352 46735348 47089052 
2885.222 47435028 47770624 48093268 48401372 48694348 48973096 49239144 
2888.597 49495180 49744608 49991572 50240392 50496048 50763964 51049632 
2891.972 51359696 51701920 52084092 52516028 53007200 53566584 54201756 
2895.348 54916772 55711092 56577364 57500404 58456676 59412896 60330680 
2898.723 61167544 61880648 62436396 62810904 62996304 63000636 62847012 
2902.098 62570200 62208100 61801948 61389000 60999624 60660204 60390800 
2905.473 60206620 60119888 60139792 60272928 60524624 60898744 61399072 
2908.849 62029532 62794624 63698604 64744056 65930576 67252120 68695288 
2912.224 70239224 71853296 73496896 75124984 76684088 78119608 79382664 
2915.599 80430608 81235360 81785608 82086832 82159048 82030640 81735728 
2918.974 81304632 80761496 80122432 79394040 78576656 77666048 76658272 
2922.350 75551880 74351792 73069032 71722032 70334744 68932224 67540368 
2925.725 66181904 64874076 63629896 62456904 61359268 60338372 59394168 
2929.100 58525600 57730516 57005900 56348092 55752228 55213468 54727196 
2932.475 54289000 53895624 53544168 53231908 52956516 52715040 52504248 
2935.851 52320432 52159184 52015064 51882604 51755448 51627880 51495388 
2939.226 51355440 51207748 51054960 50901484 50752720 50613492 50487564 
2942.601 50375888 50276956 50185900 50095640 49996960 49879460 49733868 
2945.976 49552520 49332156 49074176 48786244 48481164 48173780 47881340 
2949.352 47617896 47393708 47213704 47077160 46979168 46911424 46864140 
2952.727 46827564 46792028 46749108 46691364 46612232 46506932 46371936 
2956.102 46205472 46007244 45778364 45521124 45238812 44935512 44615612 
2959.477 44283612 43944208 43601480 43258800 42919280 42585252 42258932 
2962.853 41942784 41639192 41351044 41081112 40832352 40606616 40405548 
2966.228 40229944 40079916 39954788 39853592 39774280 39713972 39669132 
2969.603 39635444 39608292 39584012 39559292 39532476 39502788 39471072 
2972.978 39438272 39406200 39376052 39348876 39324500 39301140 39275060 
2976.354 39240132 39187332 39106148 38985612 38814492 38584700 38291476 
2979.729 37934556 37518064 37050624 36544324 36012804 35471248 34934468 
2983.104 34415384 33925004 33471792 33060596 32694190 32372966 32096572 
2986.479 31864348 31676446 31533298 31434794 31377946 31356186 31356148 
2989.854 31359106 31341478 31276558 31140984 30917384 30598110 30187528 
2993.230 29701580 29165284 28606400 28053464 27529932 27050896 26623572 
2996.605 26247878 25918652 25628160 25368950 25134468 24919836 24721582 
2999.980 24536706 24362564 24196442 24035778 23878780 23724146 23571844 
3003.355 23422600 23277392 23137512 23004174 22878072 22759826 22649644 
3006.731 22547622 22453750 22367994 22290032 22219304 22155142 22096462 
3010.106 22041972 21990212 21939744 21889110 21837922 21786218 21734938 
3013.481 21685510 21639538 21598234 21562368 21532248 21507702 21488728 
3016.856 21475256 21467456 21465682 21469616 21478216 21489808 21502376 
3020.232 21513482 21521316 21524554 21522118 21513622 21498094 21474908 
3023.607 21443576 21403824 21356556 21303902 21249164 21195756 21147088 
3026.982 21105796 21072996 21048580 21031052 21018706 21008900 20999440 
3030.357 20987790 20972142 20950582 20922454 20887582 20846592 20800986 
3033.733 20752672 20703324 20654220 20606410 20560412 20516746 20476348 
3037.108 20439984 20408900 20384314 20366882 20357332 20355562 20361186 
3040.483 20373582 20391954 20415256 20442344 20472112 20503510 20535574 
3043.858 20567880 20599776 20631010 20661136 20689526 20715764 20739606 
3047.234 20761362 20782078 20803072 20825528 20850138 20876524 20903366 
3050.609 20928886 20951104 20968804 20981460 20989286 20992936 20993006 
3053.984 20989528 20982122 20970578 20954686 20935076 20913136 20890676 
3057.359 20869226 20850312 20834670 20822606 20813918 20808356 20805262 
3060.735 20803942 20803454 20802618 20800534 20796884 20792366 20788022 
3064.110 20786456 20789480 20798902 20815098 20837450 20864532 20894500 
3067.485 20925584 20956946 20987930 21018566 21048892 21079048 21108996 
3070.860 21138912 21169038 21199584 21231036 21263640 21297846 21333934 
3074.236 21372324 21413534 21458302 21507076 21559896 21616240 21674260 
3077.611 21732222 21788204 21840536 21888970 21934064 21976896 22018828 
3080.986 22060902 22103538 22146494 22189138 22230672 22270326 22307508 
3084.361 22341900 22373540 22402672 22429954 22456856 22484736 22515060 
3087.737 22548842 22586500 22627582 22671288 22716674 22763040 22810076 
3091.112 22857850 22906502 22955998 23005922 23055640 23104698 23153378 
3094.487 23202344 23253518 23307982 23367316 23431832 23500486 23571878 
3097.862 23643946 23714978 23783816 23849900 23913402 23974604 24033922 
3101.238 24092024 24149222 24206112 24263116 24320440 24378580 24437428 
3104.613 24497056 24557672 24619104 24681142 24743960 24807138 24870080 
3107.988 24932540 24993812 25054044 25113614 25173370 25234574 25298032 
3111.363 25364348 25433554 25505230 25578886 25654064 25730172 25806996 
3114.739 25883692 25959594 26033818 26105348 26174214 26240768 26305958 
3118.114 26371090 26437392 26505290 26574606 26644568 26714260 26783364 
3121.489 26851948 26920510 26989930 27060486 27131940 27203190 27273042 
3124.864 27340470 27405192 27467698 27529086 27591468 27656086 27724174 
3128.240 27795910 27870768 27947442 28024306 28099592 28172134 28241046 
3131.615 28306644 28370094 28433306 28498510 28567472 28641650 28720690 
3134.990 28803992 28890002 28976878 29063560 29149198 29233254 29315698 
3138.365 29396066 29473932 29548796 29620624 29689624 29756646 29823114 
3141.740 29890158 29958738 30029106 30101012 30173924 30247416 30321348 
3145.116 30395898 30471596 30548838 30627904 30708834 30791488 30875616 
3148.491 30960934 31047372 31134718 31222616 31310670 31398534 31485878 
3151.866 31572778 31659338 31745844 31832508 31919512 32006894 32094538 
3155.241 32182630 32271524 32361258 32452188 32544032 32636106 32727954 
3158.617 32818568 32907770 32996278 33084982 33175312 33268668 33365406 
3161.992 33465494 33567860 33671036 33773488 33874172 33972620 34069052 
3165.367 34164284 34259032 34354164 34450248 34547536 34645496 34743328 
3168.742 34839572 34932564 35020480 35102196 35176780 35244584 35305932 
3172.118 35361964 35413908 35462188 35507384 35549136 35587000 35620160 
3175.493 35648108 35670444 35687672 35700912 35711488 35721780 35733652 
3178.868 35749048 35768620 35792580 35819820 35849040 35879124 35909208 
3182.243 35939120 35969496 36000776 36033428 36067376 36101944 36136512 
3185.619 36170252 36203024 36235188 36267136 36299660 36333600 36369156 
3188.994 36406732 36446624 36488824 36533512 36579936 36627228 36673952 
3192.369 36718480 36759912 36797888 36833124 36866992 36900680 36934952 
3195.744 36969876 37004476 37038140 37070256 37100928 37131280 37162356 
3199.120 37194808 37228304 37261592 37292748 37320552 37344380 37364892 
3202.495 37384104 37404148 37426684 37452688 37482452 37514888 37549496 
3205.870 37585008 37620380 37654744 37686256 37713684 37735876 37752572 
3209.245 37765040 37775232 37786152 37800320 37819300 37843012 37870380 
3212.621 37899444 37928372 37956144 37982720 38008400 38033964 38059644 
3215.996 38085180 38110396 38135028 38158944 38182348 38205504 38228588 
3219.371 38251380 38273712 38295276 38316808 38339356 38363968 38392272 
3222.746 38424672 38460616 38498884 38537480 38575284 38611352 38645904 
3226.122 38679732 38713744 38748628 38784312 38820288 38855692 38889716 
3229.497 38922040 38952448 38981192 39008664 39035600 39062716 39090884 
3232.872 39121012 39153792 39189652 39228132 39268532 39309812 39351452 
3236.247 39392992 39434752 39477024 39519736 39562668 39605064 39646080 
3239.623 39685436 39723556 39761500 39800828 39842372 39885736 39929904 
3242.998 39972444 40011280 40045216 40074720 40101284 40127412 40155104 
3246.373 40185744 40219400 40255392 40292544 40330608 40369548 40409840 
3249.748 40452500 40497308 40543468 40589700 40634272 40675496 40712648 
3253.124 40745584 40774624 40800320 40823288 40843892 40862532 40880004 
3256.499 40896968 40914372 40932648 40951836 40971388 40990068 41006420 
3259.874 41019600 41028956 41035004 41038720 41041452 41044328 41048372 
3263.249 41053580 41059332 41064360 41066872 41065704 41059916 41049720 
3266.625 41036208 41021240 41006892 40994656 40984932 40976816 40968548 
3270.000 40958132 40944044 40925768 40904140 40880620 40856848 40834100 
3273.375 40812476 40791660 40771092 40750060 40729024 40708428 40689248 
3276.750 40672000 40656248 40640928 40624484 40606076 40584936 40561728 
3280.125 40537972 40515056 40494612 40477340 40463444 40452424 40443840 
3283.501 40437332 40432460 40429332 40427476 40426748 40426680 40426640 
3286.876 40425948 40424168 40421004 40416496 40410820 40404236 40397476 
3290.251 40391292 40386564 40384384 40385404 40390240 40399220 40412640 
3293.626 40430712 40453408 40480936 40512800 40548196 40585952 40624448 
3297.002 40662612 40699656 40735648 40771716 40808984 40848548 40890672 
3300.377 40934904 40980088 41025320 41070040 41114768 41160920 41210428 
3303.752 41265076 41326152 41394120 41467932 41546572 41628576 41712244 
3307.127 41796688 41880856 41964208 42046768 42128208 42209124 42290272 
3310.503 42372128 42455456 42540740 42627872 42716520 42806424 42896864 
3313.878 42987536 43078344 43168984 43259424 43349592 43439336 43528660 
3317.253 43618188 43708024 43798836 43890980 43984284 44078488 44173224 
3320.628 44267548 44361260 44454112 44545960 44636948 44727324 44817024 
3324.004 44905896 44993724 45080096 45164904 45247380 45327292 45404020 
3327.379 45477524 45548132 45616692 45684196 45751196 45817908 45883640 
3330.754 45946652 46004964 46056204 46099164 46133060 46158264 46175696 
3334.129 46186604 46191984 46192796 46189516 46182732 46172820 46160588 
3337.505 46146180 46129744 46110736 46088292 46061176 46028060 45988164 
3340.880 45940136 45883308 45816912 45740556 45654200 45558364 45454016 
3344.255 45342996 45226788 45106564 44982808 44854972 44722036 44582932 
3347.630 44437192 44285340 44129028 43970168 43810636 43651380 43492768 
3351.006 43333884 43173740 43011388 42846432 42679120 42510232 42340272 
3354.381 42170344 42000484 41830872 41662164 41494796 41329396 41167256 
3357.756 41009184 40855468 40706168 40560888 40419004 40280288 40144712 
3361.131 40012404 39883956 39759976 39640236 39525108 39413596 39305056 
3364.507 39198864 39094220 38990688 38888520 38787680 38688932 38592884 
3367.882 38499936 38410336 38324084 38240348 38158544 38077440 37995920 
3371.257 37912860 37827684 37739596 37648312 37553432 37454676 37351312 
3374.632 37243072 37129044 37008732 36882140 36749276 36610828 36467524 
3378.008 36319908 36168596 36013020 35852636 35686164 35512492 35330624 
3381.383 35140276 34941760 34735612 34523068 34304320 34080056 33850100 
3384.758 33614544 33373668 33128430 32880392 32631286 32382962 32136920 
3388.133 31893518 31652674 31413388 31174054 30933252 30689952 30444016 
3391.509 30196088 29947982 29701968 29459996 29224040 28994448 28770534 
3394.884 28550522 28332072 28112848 27891648 27667950 27443132 27218712 
3398.259 26996698 26778288 26564040 26353344 26145286 25939122 25734146 
3401.634 25530214 25327432 25126290 24926818 24728528 24530956 24333616 
3405.010 24136366 23939590 23743850 23549770 23357910 23168058 22979964 
3408.385 22793070 22607374 22422976 22240472 22060588 21884020 21710730 
3411.760 21540606 21372706 21206784 21042494 20880280 20720942 20565728 
3415.135 20415638 20271016 20131650 19996594 19864530 19734480 19605198 
3418.510 19476128 19347028 19218000 19089288 18961478 18834884 18710298 
3421.886 18588480 18469944 18355176 18244792 18138374 18035366 17935006 
3425.261 17835776 17736292 17635622 17533354 17429594 17325270 17221698 
3428.636 17119770 17020586 16923942 16829522 16736226 16642915 16549313 
3432.011 16455423 16361760 16269252 16178826 16090551 16004600 15920278 
3435.387 15837109 15754778 15673356 15592879 15513995 15436395 15359668 
3438.762 15282989 15205739 15126994 15047063 14966357 14885530 14805745 
3442.137 14727758 14651464 14576795 14503028 14428830 14353581 14275881 
3445.512 14195524 14112101 14026128 13938906 13852728 13769644 13691843 
3448.888 13620449 13555083 13494137 13434942 13374456 13310631 13242545 
3452.263 13170473 13096364 13021995 12949107 12878518 12810124 12742731 
3455.638 12675621 12607907 12539419 12470260 12400942 12331704 12262237 
3459.013 12192031 12120169 12046239 11969938 11891879 11812814 11734035 
3462.389 11657040 11583257 11513842 11449609 11390760 11336510 11285803 
3465.764 11236735 11187537 11136576 11082527 11025427 10965582 10903706 
3469.139 10841058 10777841 10714498 10650995 10587093 10522929 10458944 
3472.514 10395546 10333582 10273458 10215074 10158461 10102906 10048139 
3475.890 9993684 9939947 9887064 9835646 9785656 9736926 9688982 9641279 
3479.747 9593209 9545009 9497186 9450994 9408228 9370138 9337298 9309572 
3483.604 9285166 9261674 9236559 9207521 9173103 9133815 9090605 9046081 
3487.462 9002406 8961984 8925759 8894474 8867555 8844357 8824170 8806586 
3491.319 8791641 8779402 8769833 8762868 8758440 8756242 8756140 8758405 
3495.177 8763173 8770678 8781194 8794820 8811590 8831304 8853656 8878546 
3499.034 8905466 8933775 8962288 8990228 9015837 9038976 9059782 9079372 
3502.892 9100079 9125288 9157772 9200143 9253618 9317866 9390926 9470094 
3506.749 9551749 9632674 9710395 9783724 9853507 9921810 9991378 10064891 
3510.606 10144250 10229525 10319907 10413567 10508739 10604205 10699759 
3513.982 10795742 10892359 10989777 11086436 11180532 11269310 11350659 
3517.357 11423687 11488562 11546778 11600000 11649893 11696761 11740264 
3520.732 11778870 11810430 11832800 11844207 11843117 11828987 11801374 
3524.107 11760179 11705475 11637810 11556919 11463285 11357052 11238810 
3527.483 11109754 10971528 10826383 10677041 10525814 10374269 10223554 
3530.858 10073674 9924116 9774473 9623493 9470670 9315293 9157366 8996487 
3534.715 8833366 8668787 8503560 8339105 8176266 8015918 7858125 7702987 
3538.573 7550838 7402618 7259805 7124382 6998194 6882040 6775475 6676372 
3542.430 6581363 6486743 6389052 6285398 6174476 6056257 5931857 5803362 
3546.288 5674099 5547693 5427666 5317130 5217387 5127758 5045993 4967828 
3550.145 4888773 4805209 4715565 4620983 4525251 4433154 4349711 4278230 
3554.002 4219174 4171131 4130621 4093659 4056868 4017137 3973665 3925549 
3557.860 3873561 3818203 3760814 3702562 3644854 3589525 3537777 3490746 
3561.717 3448796 3411658 3377930 3345407 3311350 3272022 3223783 3164036 
3565.575 3091181 3006828 2914853 2822263 2736862 2665146 2610442 2572810 
3569.432 2548979 2533481 2520816 2506753 2487657 2462432 2431243 2395392 
3573.290 2356646 2317037 2278131 2241360 2207124 2175054 2144352 2113653 
3577.147 2081756 2048098 2012745 1976829 1942014 1910496 1883673 1862742 
3581.004 1847435 1836721 1829500 1824243 1819285 1813396 1804412 1789740 
3584.862 1766451 1731652 1683319 1622386 1552384 1480065 1414241 1362951 
3588.719 1330877 1319611 1325892 1344105 1367571 1389709 1405099 1409886 
3592.577 1401974 1380833 1348227 1307081 1261586 1216495 1176026 1143202 
3596.434 1119716 1104933 1097193 1093307 1089885 1084172 1074705 1061187 
3600.292 1045642 1030364 1018740 1012961 1014489 1023522 1039232 1059792 
3604.149 1082810 1105199 1123635 1134532 1134100 1119948 1090716 1048067 
3608.006 996223 941164 889332 845608 811414 784925 762221 738655 711141 
3612.346 679215 645433 614773 592011 580598 580896 590020 602463 611820 
3616.686 612251 599178 571374 530534 482003 433510 392749 366119 356536 
3621.025 363367 382767 410028 440143 470095 498754 527051 556411 587897 
3625.365 620214 648453 665144 660299 624860 554852 455301 341812 236442 
3629.704 159238 120028 116746 138522 172629 207236 234884 252521 261837 
3634.044 266413 270988 278282 288560 299999 309615 314986 314887 310577 
3638.384 304044 297944 293998 292307 291975 291843 290981 289853 289986 
3642.723 293998 303414 318965 338894 360051 377925 388206 387310 373249 
3647.063 346024 306896 258356 203424 146046 92420 49074 24354 24453 51791 
3651.885 103920 173657 250631 322911 379749 412416 416130 391655 345559 
3656.224 289522 235978 195037 171933 166464 174684 191225 211446 231469 
3660.564 249106 263561 275530 285842 296253 307957 322049 339358 360847 
3664.903 387310 420177 459812 506517 558899 614308 670587 727038 788576 
3669.243 866988 980880 1151873 1395260 1716849 2109690 2560611 3050371 
3673.100 3557487 4057537 4513766 4878653 5101172 5138890 4979793 4647206 
3676.958 4187524 3650501 3078267 2506020 1961917 1472651 1061087 740846 
3680.815 513549 367379 283322 239227 217480 207302 204485 207899 217314 
3685.155 229447 238464 236077 215026 170607 103854 21338 -65898 -146758 
3689.494 -212072 -258070 -284461 -293667 -288932 -273435 -251116 -225716 
3693.352 -201308 -180940 -166168 -156728 -150170 -143347 -132979 -117212 
3697.209 -96641 -73982 -53276 -39295 -35683 -44562 -65600 -96177 -131025 
3701.549 -164048 -188558 -200116 -196804 -179450 -151296 -116351 -79050 
3705.406 -42873 -10304 17230 39298 55701 66438 71343 70117 62429 47616 25580 
3710.710 -2915 -36280 -71530 -103730 -127944 -139803 -136557 -118901 -90115 
3715.050 -54932 -19946 9310 28761 37409 36515 29887 21570 14380 9310 4903 
3720.354 -1126 -10834 -24286 -39957 -54866 -65964 -72259 -74644 -76400 
3724.693 -81435 -91771 -107407 -124599 -137186 -137848 -122280 -89287 -42608 
3729.033 10603 61434 100175 120160 118039 95767 60076 20311 -15473 -43834 
3733.855 -66196 -87630 -113668 -146229 -182364 -214589 -234095 -235386 
3737.712 -218000 -185577 -143645 -97800 -51354 -5500 38768 79595 111344 
3742.052 125529 110482 57391 -34424 -150104 -262243 -337670 -357137 -321281 
3746.391 -247341 -158616 -76599 -18389 7090 -1822 -38566 -92699 -152389 
3750.731 -208760 -256878 -294263 -318334 -326082 -315122 -285422 -240420 
3754.588 -186703 -132449 -84549 -48571 -26804 -18786 -22364 -34723 -53210 
3758.928 -75572 -99125 -119994 -133410 -135099 -123704 -101146 -73087 -47147 
3763.268 -30581 -27699 -38301 -57516 -77924 -91937 -95548 -89386 -79050 
3767.607 -70967 -70867 -81170 -100020 -121816 -139074 -145765 -138478 
3771.465 -117874 -87398 -51917 -16964 13783 37509 53746 63124 68261 71343 
3776.286 73895 75983 75485 69752 56165 34096 5964 -22895 -46285 -59372 
3781.108 -60763 -52944 -41018 -31012 -27599 -32569 -44165 -58643 -71166 
3785.448 -78520 -79779 -76466 -71431 -67621 -66793 -69310 -74346 -80508 
3789.787 -86239 -90645 -92831 -91837 -87067 -78619 -67256 -55131 -45821 
3794.127 -42409 -47644 -61094 -79415 -96243 -103630 -96078 -72060 -35518 
3798.467 5268 39000 53813 40922 -2750 -70337 -146891 -211443 -246381 -244129 
3803.288 -208893 -153582 -94421 -48306 -27997 -39361 -79680 -136921 -193426 
3807.628 -231578 -241645 -223299 -183755 -132913 -79415 -28925 17461 60937 
3811.968 103357 144952 182673 209689 218507 202065 158509 93613 21736 -38864 
3816.789 -73982 -77692 -55230 -19051 13320 26110 6858 -48240 -133079 -229591 
3821.611 -314460 -369022 -384582 -364685 -320288 -265355 -212535 -169580 
3825.469 -139438 -120160 -106479 -91506 -70304 -41481 -6891 29092 61236 
3829.808 85394 99247 102992 99247 91956 85096 82577 85427 92984 102329 
3834.630 108593 106240 90332 57425 7852 -53541 -118636 -177164 -220451 
3838.969 -244129 -248831 -239261 -221775 -202236 -184749 -170673 -159742 
3842.827 -150104 -139803 -126984 -110421 -89651 -64871 -36280 -5599 26408 
3847.167 58584 90730 123077 156619 191755 227524 260577 282758 282990 248178 
3851.988 166696 35918 -132217 -308302 -456711 -549279 -576679 -546930 
3855.846 -477761 -387892 -291481 -198924 -116053 -45126 12756 57922 90863 
3860.185 112537 124535 128446 125993 118470 106075 88609 66140 40557 16202 
3865.007 -530 -4042 8217 34560 67267 95337 107533 94276 52885 -11696 -85046 
3870.311 -149839 -192664 -208594 -202136 -183093 -162061 -146427 -138378 
3874.168 -134437 -127845 -111547 -81336 -37936 13585 65411 109356 138257 
3878.508 147769 137494 111278 77441 45329 24354 19582 30981 53547 77805 
3883.330 94077 92652 68095 20543 -41415 -103465 -150435 -170408 -160107 
3887.669 -124599 -74346 -22000 21570 47914 54310 43142 21736 -762 -16036 
3892.491 -19117 -9542 10470 36846 66571 96961 127021 155824 182209 204518 
3897.313 220563 227591 224176 210153 187579 159602 130236 102197 76380 52023 
3902.135 26806 -298 -29620 -58444 -82827 -97933 -100053 -88458 -65004 -33894 
3906.957 298 33599 63290 88808 110681 130136 148631 166596 184297 200805 
3911.778 215955 229149 240885 250764 258290 262235 260511 251228 233724 
3916.118 208628 178695 148134 121353 101203 89338 85328 87747 95270 106704 
3920.940 121751 139848 160365 181513 200672 215258 223148 224110 219502 
3925.279 212341 205678 201800 201534 203755 206573 208131 207269 203888 
3929.619 198916 193446 188242 183303 178264 172331 165536 158906 153736 
3933.958 151813 154332 161028 171104 182938 194838 206010 216187 225668 
3938.298 235149 244730 253615 259749 261141 255207 241017 219237 192551 
3942.638 165138 141836 126557 121585 126723 139350 155128 170010 179623 
3946.977 181745 175944 163746 148001 132059 118801 110284 107367 110018 
3951.317 117807 129838 145151 162287 180054 196794 211115 221889 229016 
3955.656 232994 235050 236674 238763 241813 244929 247316 247283 243901 
3959.996 236807 226563 214297 202065 191689 184861 182772 185855 193545 
3964.336 205181 219237 234453 249140 262434 273773 283388 291611 299270 
3968.675 306896 314986 323475 332362 341050 348942 355209 358824 359288 
3973.015 356138 349340 339988 329775 320988 315451 315086 320524 331301 
3977.354 346256 363533 381076 397160 410293 419613 424754 425715 423062 
3981.694 418154 411952 405750 400775 397127 394540 392285 389366 385652 
3986.034 381208 376897 373813 372752 373912 376864 380810 384922 388604 
3990.373 392086 395701 399680 404125 408204 410691 410658 406977 399647 
3994.713 389201 376665 362936 348577 334020 319463 305072 291345 279144 
3999.052 269728 263429 260478 260743 
##END=
