
##TITLE=1675_1_b
##JCAMP-DX=5.01  $$ Nicolet v. 1
##DATATYPE=INFRARED SPECTRUM
##ORIGIN=UniL
##OWNER=Nicolet
##LONGDATE=2011/09/16
##TIME=11:22:48
##SPECTROMETER/DATA SYSTEM=Nicolet iS5
##DATA PROCESSING=
Ratio against background
%Transmittance->Absorbance
Truncated
ElementMultiply or ElementDivide
##COMMENTS=
Number of sample scans: 32
Collection length: 51.15 sec
Sample gain: 2.0
Background collected on: Ven Sep 16 11:19:38 2011 (GMT+02:00);
Number of background scans: 32
Background gain: 2.0
Sample spacing:  1.000
Number of scan points: 12415
Resolution points: 8192
Number of FFT points: 65536
Apodization: N-B fort;
Phase correction: Mertz;
Laser frequency: 15798.0 cm-1
Number of rejected sample scans: 0
Number of rejected background scans: 0
Bench serial number: ASB1000141;
##RESOLUTION=4.000
##XUNITS=1/CM
##YUNITS=ABSORBANCE
##FIRSTX=649.893372
##LASTX=4000.122314
##FIRSTY=0.075808
##MAXX=4000.122314
##MINX=649.893372
##MAXY=0.271181
##MINY=-0.004348
##XFACTOR=1.000000
##YFACTOR=1.000000E-009
##NPOINTS=6950
##DELTAX=0.482117
##ZPD=6100
##XYDATA=(X++(Y..Y))
649.893 75808216 75552552 75379488 75319152 75375824 75532008 75760792 
653.268 76043968 76380736 76788192 77288728 77896552 78606984 79397944 
656.643 80239768 81109816 82003144 82930680 83911640 84959904 86078752 
660.018 87264016 88513296 89836496 91258816 92808688 94504608 96339032 
663.393 98275912 100259200 102236200 104173384 106048552 107845168 109520664 
666.767 110979320 112081736 112689320 112748976 112331344 111585576 
669.660 110650848 109599128 108441776 107157592 105729664 104169512 
672.553 102525312 100863488 99254056 97739944 96329400 95005424 93743536 
675.928 92530112 91369456 90278880 89276112 88367600 87541704 86774592 
679.302 86038080 85312048 84588032 83867232 83154168 82449760 81749888 
682.677 81048000 80340976 79634224 78940824 78277456 77655944 77078376 
686.052 76537720 76021864 75522112 75037152 74574568 74144352 73752720 
689.427 73395144 73055736 72710920 72339136 71926560 71471736 70982616 
692.802 70473032 69955952 69440424 68933464 68443352 67982616 67569752 
696.177 67225584 66967540 66805364 66738204 66757060 66847332 66996924 
699.551 67199248 67453904 67764248 68133728 68561016 69039840 69558744 
702.926 70104520 70666256 71235320 71804856 72368608 72917488 73441016 
706.301 73929568 74377712 74787456 75168008 75534376 75902992 76287400 
709.676 76700336 77154752 77668664 78271032 78999208 79892264 80981592 
713.051 82272840 83733808 85284304 86809960 88170632 89226352 89876144 
716.425 90070856 89832336 89246240 88457432 87643376 86974320 86607560 
719.800 86653624 87163816 88128384 89472152 91064592 92716584 94213752 
723.175 95344896 95920520 95828216 95051240 93682360 91899344 89934584 
726.550 88027448 86356536 85029856 84073024 83448272 83083664 82903328 
729.925 82851600 82892936 83008448 83184864 83403216 83639040 83868640 
733.300 84075112 84256144 84421072 84585448 84760656 84949304 85144328 
736.674 85335960 85517440 85690352 85862528 86044096 86239736 86446200 
740.049 86654192 86853056 87039096 87216664 87396176 87587752 87794704 
743.424 88011584 88227432 88431840 88622984 88809056 89005408 89225944 
746.799 89475160 89745960 90022504 90288424 90534176 90761896 90981040 
750.174 91202856 91431216 91659488 91874160 92063144 92222216 92359536 
753.548 92490792 92632712 92793632 92970200 93150584 93322328 93480552 
756.923 93630888 93786416 93959240 94153656 94363320 94575208 94777408 
760.298 94967984 95156544 95360416 95594520 95864608 96164144 96481216 
763.673 96806064 97141768 97504512 97921696 98419696 99015312 99712400 
767.048 100504816 101381984 102334656 103356544 104444736 105602832 
769.940 106850976 108242944 109889768 111949616 114607184 118015912 
772.833 122207864 127016784 132014424 136583232 139958928 141426432 
775.726 140555936 137297232 132036072 125436512 118320032 111427560 
778.619 105263368 100100088 95958496 92695504 90083048 87899848 85980568 
781.993 84219376 82572400 81030984 79603536 78303840 77149872 76164032 
785.368 75369752 74788672 74434568 74310584 74412712 74737944 75292240 
788.743 76096080 77182648 78587928 80345440 82478560 85001480 87926912 
792.118 91272472 95062632 99322064 104057616 109238832 114769936 120490448 
795.493 126164216 131479728 136099632 139661184 141815280 142298672 
798.385 140953440 137779088 132937520 126746488 119630240 112030184 
801.278 104393832 97096928 90405264 84494312 79430408 75194792 71710232 
804.653 68872344 66577040 64734176 63285416 62198848 61459532 61056216 
808.028 60964508 61132948 61485224 61916948 62308636 62552444 62556728 
811.402 62262896 61651156 60732716 59543572 58132384 56558984 54885680 
814.777 53171644 51476812 49852148 48337444 46961816 45739856 44674988 
818.152 43763208 42997340 42370700 41879508 41521776 41296704 41202960 
821.527 41239136 41405128 41705164 42148876 42752532 43535584 44514756 
824.902 45698368 47078784 48627856 50289420 51980292 53595484 55003492 
828.277 56071508 56680156 56740148 56219736 55150864 53631772 51800840 
831.651 49821672 47858512 46040916 44463876 43177180 42186484 41462612 
835.026 40950780 40584536 40288396 39992460 39642852 39203980 38666692 
838.401 38046660 37379556 36709216 36076920 35515620 35041672 34657624 
841.776 34356064 34125500 33955032 33835772 33761528 33726680 33725252 
845.151 33751784 33802212 33875856 33974736 34102844 34263264 34455808 
848.525 34676532 34919964 35181164 35458308 35754156 36074148 36425000 
851.900 36811952 37237184 37702012 38207600 38757684 39358780 40018908 
855.275 40745764 41545516 42422320 43380416 44427064 45573232 46835648 
858.650 48234388 49789044 51519896 53444812 55579648 57939164 60531520 
862.025 63351972 66369684 69519552 72697792 75753888 78517416 80811904 
865.400 82472712 83385512 83493320 82810936 81420400 79468088 77147976 
868.774 74661752 72217200 69997408 68136208 66728352 65818676 65406472 
872.149 65452740 65885880 66612728 67513040 68455760 69307712 69934464 
875.524 70228712 70118736 69577104 68624576 67322920 65765544 64053156 
878.899 62289020 60568044 58964144 57537432 56332700 55377584 54688488 
882.274 54267680 54104428 54174092 54439252 54856168 55373144 55939952 
885.648 56514148 57062540 57570536 58044168 58511156 59015116 59608640 
889.023 60343168 61254756 62359428 63648768 65095768 66660784 68301440 
892.398 69983040 71677872 73366232 75032976 76660600 78226592 79702176 
895.773 81046952 82209816 83130568 83734248 83943600 83688896 82917400 
899.148 81612280 79799000 77549416 74967920 72183000 69334920 66548072 
902.523 63932216 61573372 59525824 57820820 56467016 55454908 54761928 
905.897 54356440 54206184 54279880 54554008 55015448 55659604 56488260 
909.272 57505396 58713736 60112580 61697444 63459216 65384136 67450224 
912.647 69622216 71853728 74085832 76253200 78301104 80191816 81916632 
916.022 83497496 84986976 86460192 87998520 89688600 91605480 93800400 
919.397 96295768 99070544 102057960 105136968 108151720 110935304 113329184 
922.771 115233680 116628032 117589408 118278480 118928040 119815672 
925.664 121200648 123313528 126314920 130264312 135105488 140642272 
928.557 146556528 152372368 157503232 161341200 163269248 162809472 
931.450 159713840 154004048 145998624 136246336 125475136 114421808 
934.342 103746872 93995608 85508280 78462472 72899264 68759608 65934048 
937.717 64294948 63726464 64116060 65343732 67271536 69704880 72388928 
941.092 75037856 77329272 78972184 79760056 79587896 78483912 76588312 
944.467 74135504 71389280 68598888 65977284 63660124 61715544 60155128 
947.841 58951660 58057992 57420412 56992220 56731428 56601448 56572156 
951.216 56615868 56709264 56835916 56985232 57153576 57341720 57552644 
954.591 57788648 58050268 58335920 58643380 58970560 59316828 59682304 
957.966 60067072 60470656 60891344 61327020 61776008 62238844 62717712 
961.341 63216312 63737548 64282656 64849840 65435560 66034988 66645020 
964.716 67264776 67896024 68541456 69203672 69883600 70580488 71293064 
968.090 72020576 72764000 73525504 74307480 75111312 75936496 76780880 
971.465 77642832 78521944 79421416 80346040 81302240 82294864 83326096 
974.840 84395832 85502704 86646264 87828328 89053000 90325136 91649008 
978.215 93027912 94463712 95960184 97524128 99166704 100903576 102750640 
981.590 104721192 106823472 109058840 111421608 113898840 116470824 
984.482 119105416 121752616 124347504 126800968 129009336 130872312 
987.375 132296296 133215624 133602280 133467136 132860128 131860480 
990.268 130577800 129134848 127656400 126268608 125075088 124153328 
993.160 123553072 123292232 123364808 123749656 124420832 125353200 
996.053 126525968 127923432 129531416 131334304 133316592 135461328 
998.946 137752368 140174848 142709568 145329088 147994400 150647536 
1001.839 153219424 155639392 157840224 159775008 161421488 162783744 
1004.731 163890016 164788816 165548368 166245712 166967504 167803280 
1007.624 168829168 170106928 171674560 173544016 175707104 178142496 
1010.517 180827424 183740144 186864032 190185056 193685648 197343328 
1013.409 201132896 205026864 209001504 213035344 217100032 221152000 
1016.302 225120800 228898736 232357760 235358320 237771632 239512016 
1019.195 240547008 240909312 240688096 240030768 239127952 238181280 
1022.087 237406848 237000560 237108928 237830432 239195888 241176368 
1024.980 243690528 246625840 249858512 253252480 256677088 260003440 
1027.873 263093472 265818416 268060800 269727648 270769312 271180896 
1030.766 270998496 270284256 269117248 267582928 265760896 263731184 
1033.659 261564944 259311648 256992576 254585712 252026912 249210064 
1036.552 246011504 242316864 238030688 233101328 227520816 221320560 
1039.446 214565504 207347712 199787728 192018576 184185552 176435840 
1042.339 168891888 161653872 154791488 148340496 142317664 136726880 
1045.232 131565752 126833008 122527192 118645664 115183136 112130720 
1048.125 109475600 107202936 105296344 103738744 102509696 101586040 
1051.018 100940904 100542448 100358968 100359968 100516552 100804064 
1053.911 101196688 101663040 102165976 102656024 103075000 103364912 
1056.804 103467920 103336248 102939408 102263000 101313744 100118688 
1059.697 98728696 97214576 95659552 94161432 92814056 91700160 90889808 
1063.072 90428640 90340432 90627856 91275008 92248760 93499240 94966504 
1066.448 96576568 98245664 99893728 101442048 102824648 103994888 104920704 
1069.823 105584792 105980504 106107984 105973312 105587920 104971416 
1072.716 104150048 103156080 102029712 100814888 99560816 98325528 97168536 
1076.091 96151576 95333664 94759192 94455640 94428336 94661328 95119584 
1079.466 95754432 96513832 97339104 98169648 98947264 99610200 100103880 
1082.842 100389736 100453416 100315928 100035088 99708728 99457608 99413040 
1086.217 99711696 100467320 101766520 103657928 106140856 109158272 
1089.110 112587488 116256104 119933520 123354160 126267896 128445848 
1092.003 129726352 130038512 129400656 127917336 125749288 123105880 
1094.896 120202584 117232672 114366056 111719512 109357520 107297136 
1097.789 105511616 103941504 102500720 101096896 99634584 98024664 96200904 
1101.164 94120080 91771048 89176056 86389608 83492720 80573984 77730280 
1104.540 75049440 72600784 70440184 68604592 67114160 65978056 65195396 
1107.915 64758368 64653180 64861760 65361448 66122756 67111720 68287136 
1111.290 69597056 70984448 72381056 73710312 74898776 75874264 76577280 
1114.665 76970088 77034656 76775776 76215248 75389936 74345232 73128664 
1118.041 71791448 70380952 68937736 67497256 66085792 64722248 63421480 
1121.416 62194296 61049272 59992808 59026352 58145148 57336464 56582652 
1124.791 55863568 55163052 54475572 53809616 53188536 52645088 52218216 
1128.166 51943804 51846384 51938092 52215192 52660088 53242020 53921436 
1131.542 54652788 55383268 56061632 56641460 57086044 57378020 57521396 
1134.917 57543148 57485764 57403392 57352004 57376620 57509064 57760788 
1138.292 58122536 58564652 59040172 59494512 59864932 60092720 60130696 
1141.667 59943320 59512752 58836152 57923980 56795584 55476628 53999504 
1145.042 52398780 50711900 48978916 47235944 45515864 43845672 42242900 
1148.418 40718252 39275932 37916116 36638080 35441448 34327912 33300470 
1151.793 32362900 31518654 30770752 30121468 29572808 29127300 28786926 
1155.168 28552964 28425240 28401540 28478556 28653294 28923752 29290852 
1158.543 29757072 30325862 30999364 31777606 32657254 33631760 34691860 
1161.919 35825792 37017752 38246752 39487800 40708756 41874180 42949056 
1165.294 43898496 44693092 45310412 45734184 45956008 45975604 45799868 
1168.669 45442756 44923500 44266112 43494964 42634852 41710636 40743872 
1172.044 39756236 38768300 37798984 36866884 35988864 35178468 34446876 
1175.420 33802176 33249530 32792802 32434798 32177668 32023766 31974576 
1178.795 32031362 32195296 32467936 32852482 33353668 33977492 34729868 
1182.170 35615452 36636856 37795116 39091104 40526840 42106524 43835884 
1185.545 45720016 47760008 49949788 52273864 54703784 57197496 59701576 
1188.921 62145012 64446776 66521844 68283144 69660960 70611168 71122552 
1192.296 71219632 70957720 70415552 69675008 68815584 67902688 66977516 
1195.671 66061332 65155672 64249076 63323444 62360576 61348088 60279856 
1199.046 59156644 57983540 56766808 55511756 54221388 52898128 51545604 
1202.422 50171616 48790544 47422312 46091056 44822976 43639876 42558024 
1205.797 41585620 40722544 39962200 39293960 38706752 38190164 37735368 
1209.172 37336256 36987408 36684916 36426084 36210120 36038432 35914932 
1212.547 35845764 35838312 35900176 36039480 36263496 36578928 36991484 
1215.923 37504920 38120268 38834892 39643104 40537100 41508652 42551412 
1219.298 43661308 44836088 46075252 47377636 48742500 50169944 51663220 
1222.673 53230224 54883276 56638892 58513692 60521080 62668948 64956760 
1226.048 67375464 69904616 72513920 75159496 77779856 80303344 82644376 
1229.424 84709712 86413496 87677392 88441184 88672648 88369224 87566312 
1232.799 86333904 84783696 83057272 81306872 79699904 78390872 77510560 
1236.174 77173152 77462280 78436280 80135152 82578448 85767848 89681392 
1239.549 94273192 99462568 105126968 111115512 117236624 123264768 128970328 
1242.925 134103952 138424896 141734128 143876592 144774400 144432528 
1245.818 142939376 140450528 137161440 133307304 129126328 124842432 
1248.711 120665608 116751792 113194616 110014008 107152336 104484520 
1251.604 101835632 99031120 95917952 92401136 88465560 84173440 79653128 
1254.979 75060784 70569696 66333084 62458660 59012308 56009196 53423532 
1258.354 51198836 49261708 47535748 45943632 44421708 42922172 41411944 
1261.729 39876400 38314096 36733768 35149008 33575448 32029218 30523988 
1265.105 29073232 27689776 26384822 25168350 24046564 23021154 22089664 
1268.480 21245894 20483608 19796690 19181290 18635376 18156890 17742710 
1271.855 17388274 17087958 16836860 16632209 16472390 16356634 16282633 
1275.230 16244417 16233720 16240289 16254529 16270455 16285695 16301623 
1278.606 16320646 16345624 16377965 16418086 16465645 16519403 16576473 
1281.981 16629867 16667739 16674004 16630176 16521091 16339982 16091514 
1285.356 15792023 15467262 15147511 14859985 14626824 14463255 14377520 
1288.731 14374267 14456370 14625420 14881792 15223000 15643712 16134292 
1292.107 16682096 17271792 17883662 18494250 19077446 19603118 20043712 
1295.482 20378826 20597864 20704782 20715624 20657070 20557874 20446268 
1298.857 20346672 20276710 20249076 20272266 20349624 20479266 20652032 
1302.232 20852538 21059014 21247356 21396410 21488624 21513552 21466310 
1305.608 21346150 21155540 20898812 20584348 20224776 19837650 19444872 
1308.983 19067754 18724758 18428838 18186328 17999030 17867020 17791002 
1312.358 17773188 17816168 17920848 18085450 18304990 18574438 18890252 
1315.733 19252150 19662884 20125748 20641782 21207726 21816110 22457310 
1319.109 23122834 23806776 24506486 25219790 25942322 26664828 27372652 
1322.484 28046184 28666496 29216988 29687530 30077822 30399310 30676368 
1325.859 30942716 31242554 31622096 32119154 32758002 33537612 34430628 
1329.234 35382632 36325672 37191776 37922696 38486068 38877176 39118800 
1332.610 39251452 39326640 39399668 39517812 39721592 40041144 40493924 
1335.985 41085700 41810260 42652836 43591624 44602760 45665020 46759108 
1339.360 47869356 48981552 50081772 51156156 52191016 53171312 54080860 
1342.735 54899104 55597308 56141072 56490900 56606392 56456524 56022312 
1346.111 55300804 54304136 53056692 51592464 49948560 48167560 46296032 
1349.486 44381664 42479684 40648316 38943640 37421300 36125780 35086860 
1352.861 34320132 33826280 33595244 33607524 33837060 34248888 34796060 
1356.236 35424980 36075228 36685164 37204844 37595376 37834696 37917452 
1359.612 37852048 37659984 37371972 37032688 36699084 36434008 36305968 
1362.987 36371824 36665444 37195276 37944536 38881348 39965068 41155452 
1366.362 42410412 43678896 44902740 46012400 46929324 47583328 47917820 
1369.737 47899764 47524624 46814240 45814672 44586344 43209208 41776152 
1373.113 40381948 39126560 38093684 37336548 36873592 36687652 36741164 
1376.488 36990080 37402268 37963736 38679768 39571200 40669380 42012640 
1379.863 43638264 45579856 47854112 50445620 53284720 56229276 59083296 
1383.238 61593724 63496032 64567440 64633420 63611016 61523740 58528712 
1386.614 54907676 51016016 47238896 43876352 41097176 38942988 37355396 
1389.989 36227372 35437600 34882112 34476148 34152884 33865468 33578060 
1393.364 33267200 32924142 32553386 32171744 31799246 31453102 31141554 
1396.739 30863448 30612686 30382820 30170870 29979294 29814596 29684408 
1400.115 29594514 29547094 29541064 29574120 29644956 29755050 29909574 
1403.490 30117312 30389536 30738066 31170636 31689812 32290940 32963924 
1406.865 33695996 34474784 35291696 36140652 37017752 37919836 38842356 
1410.240 39779948 40727680 41681348 42636864 43586972 44516336 45401188 
1413.615 46210300 46910612 47479564 47910568 48217764 48430004 48586392 
1416.991 48728932 48894104 49116320 49426748 49849880 50402712 51087088 
1420.366 51887644 52776660 53721452 54693788 55674176 56659204 57661452 
1423.741 58706184 59820588 61022924 62315484 63684948 65109240 66565796 
1427.116 68039040 69516944 70986120 72427448 73809544 75091584 76234912 
1430.492 77212056 78019064 78677040 79230856 79737688 80252712 80828664 
1433.867 81511296 82346968 83394344 84724936 86413904 88520240 91049272 
1437.242 93946200 97113912 100443136 103827920 107156448 110309544 113130592 
1440.617 115432760 117041528 117803304 117629552 116509248 114499904 
1443.510 111710816 108272528 104334552 100037504 95501576 90841288 86163600 
1446.886 81586616 77260344 73345872 69989664 67288528 65262744 63868724 
1450.261 63026948 62660372 62710016 63138292 63920088 65022872 66399560 
1453.636 67999896 69770048 71670320 73682904 75797440 78001424 80259616 
1457.011 82515416 84702056 86768080 88699184 90503928 92202504 93817344 
1460.387 95368872 96872824 98334704 99747920 101081976 102277632 103260424 
1463.762 103952072 104306448 104335312 104114760 103756088 103356512 
1466.655 102978464 102637816 102318728 101991280 101622632 101177280 
1469.548 100602552 99818008 98710272 97141848 95003568 92272032 89056488 
1472.923 85573360 82068136 78724816 75623336 72770072 70148752 67762152 
1476.299 65652876 63888916 62527492 61598612 61091528 60969808 61193944 
1479.674 61742628 62620260 63851832 65465680 67475496 69871224 72622984 
1483.049 75694920 79057432 82699936 86623568 90824256 95278040 99910704 
1486.424 104577840 109078136 113140568 116451232 118703832 119619368 
1489.317 119018288 116880696 113376672 108843080 103683344 98288168 92934008 
1492.693 87760560 82814664 78073240 73496104 69072360 64834528 60866224 
1496.068 57283116 54189032 51641012 49633412 48119324 47031928 46310336 
1499.443 45912292 45808484 45976672 46395128 47037724 47873680 48871184 
1502.818 49988932 51177364 52374440 53481316 54361060 54834700 54698708 
1506.194 53805080 52146664 49885668 47270080 44516848 41748428 39004280 
1509.569 36289864 33614256 31000860 28499358 26169426 24058122 22195450 
1512.944 20584452 19207818 18038094 17045846 16204037 15486765 14871266 
1516.319 14340602 13885602 13508117 13216550 13017933 12910432 12879849 
1519.695 12899953 12942349 12986898 13034116 13106063 13235712 13445058 
1523.070 13733563 14082118 14464351 14860499 15263529 15683113 16139518 
1526.445 16655447 17242934 17899408 18610994 19361476 20139944 20944290 
1529.820 21780644 22659942 23592098 24585058 25641798 26760070 27932212 
1533.196 29143882 30374966 31601354 32801486 33958112 35059128 36091504 
1536.571 37041352 37895580 38637392 39252356 39728348 40057860 40234924 
1539.946 40256152 40127192 39864960 39498432 39060612 38575104 38049084 
1543.321 37471508 36824396 36095424 35293172 34448884 33607704 32808344 
1546.697 32065034 31365622 30677826 29968218 29217200 28434404 27655802 
1550.072 26932002 26301698 25776582 25340604 24962086 24612092 24275762 
1553.447 23958814 23681560 23465510 23317772 23224852 23153868 23061684 
1556.822 22897874 22610096 22156466 21524658 20759798 19962628 19245396 
1560.198 18674566 18256402 17959940 17742814 17566544 17399416 17221180 
1563.573 17024548 16817606 16620882 16459519 16354157 16309809 16316554 
1566.948 16353158 16397303 16432781 16454184 16469223 16494140 16545391 
1570.323 16631691 16751997 16898726 17063456 17239004 17419316 17598356 
1573.698 17766666 17911906 18022966 18095120 18137958 18175478 18239470 
1577.074 18351824 18518040 18728736 18968402 19224546 19491584 19773318 
1580.449 20079176 20420638 20804878 21232672 21696448 22182724 22672230 
1583.824 23142266 23567856 23920300 24171606 24299346 24290026 24145718 
1587.199 23886096 23550994 23193150 22873182 22653938 22585768 22705676 
1590.575 23032824 23566000 24280808 25125482 26026678 26884166 27584054 
1593.950 28022220 28109350 27795734 27080378 26012078 24678828 23183958 
1597.325 21636054 20123388 18708846 17435766 16326770 15390460 14624426 
1600.700 14017675 13552930 13210880 12976281 12840395 12802514 12865923 
1604.076 13034116 13305232 13669617 14108576 14594818 15096460 15572753 
1607.451 15978679 16269183 16399367 16334787 16057234 15568150 14892387 
1610.826 14074965 13179046 12268269 11397189 10603899 9902013 9288178 
1614.201 8747384 8262204 7817674 7405887 7028871 6695282 6416255 6200523 
1618.059 6050613 5961887 5925038 5926113 5948350 5975794 5993498 5992894 
1621.916 5974350 5947779 5928363 5929808 5958730 6012244 6081693 6158243 
1625.774 6237227 6318915 6405966 6500668 6602119 6706084 6807920 6905504 
1629.631 7001527 7101513 7211628 7333969 7465278 7596052 7713746 7806508 
1633.489 7864907 7885995 7873174 7837208 7792171 7752029 7726968 7720593 
1637.346 7731892 7755740 7785390 7811298 7823174 7812378 7774225 7711352 
1641.203 7632099 7549085 7472693 7406797 7347785 7284671 7203475 7090870 
1645.061 6940180 6754306 6547455 6341139 6158109 6015738 5921813 5876001 
1648.918 5871870 5900385 5949223 6000654 6032503 6015234 5919395 5733018 
1652.776 5483062 5237140 5063961 4994239 5011635 5079347 5160818 5232176 
1656.633 5282248 5309114 5316526 5310287 5294221 5268731 5231103 5177013 
1660.490 5103620 5010730 4901104 4780016 4654071 4530340 4415379 4315007 
1664.348 4233126 4170830 4125770 4091485 4058173 4013659 3946313 3848823 
1668.205 3720876 3571050 3414430 3268116 3144778 3049770 2981439 2933466 
1672.063 2898008 2865520 2826232 2769340 2685916 2572676 2436874 2296284 
1675.920 2172190 2080824 2025794 1998731 1984185 1966411 1935457 1889564 
1679.778 1835456 1783950 1743961 1715751 1689606 1646133 1564255 1430430 
1683.635 1250787 1055308 885946 773307 720865 711473 721064 730391 727968 
1687.975 709946 678186 636440 589058 539160 490395 446876 413378 393412 
1692.314 386680 387377 383132 358160 297778 196065 62859 -75539 -187067 
1696.654 -252672 -273534 -269064 -265355 -289627 -359719 -477033 -619694 
1700.511 -750665 -838574 -872767 -864765 -834837 -803022 -783178 -782450 
1704.369 -802460 -839202 -884341 -927292 -959428 -975463 -974537 -959627 
1708.226 -935855 -909305 -884407 -863012 -844097 -824420 -799913 -768096 
1712.083 -729264 -686160 -643251 -603878 -570359 -542297 -519131 -501227 
1715.941 -491695 -495071 -514267 -546897 -583065 -608775 -612646 -590477 
1719.798 -546731 -491199 -435494 -389316 -357501 -340252 -334160 -333631 
1723.656 -334160 -333995 -333631 -334624 -337769 -342537 -347569 -351972 
1727.513 -356971 -365314 -380245 -402690 -430793 -459690 -484745 -504636 
1731.371 -523963 -554442 -611819 -709151 -849222 -1016422 -1179790 -1306297 
1735.228 -1378604 -1400303 -1388744 -1365095 -1346300 -1343625 -1360867 
1738.603 -1395349 -1438548 -1480751 -1513507 -1532063 -1535794 -1526252 
1741.979 -1505747 -1476821 -1441586 -1402549 -1362056 -1321592 -1281422 
1745.354 -1240488 -1197138 -1150082 -1099287 -1046139 -993149 -942633 
1748.729 -896377 -855208 -819591 -789892 -766574 -749441 -736541 -724666 
1752.586 -710045 -690196 -666013 -642060 -625881 -625881 -648115 -693537 
1756.444 -756288 -824817 -887449 -937244 -974240 -1004819 -1038239 -1082893 
1760.301 -1142878 -1215707 -1293876 -1367572 -1428574 -1472528 -1500200 
1763.677 -1515092 -1521035 -1521596 -1519945 -1519318 -1523082 -1534539 
1767.052 -1554448 -1580860 -1608260 -1630146 -1642294 -1645298 -1644208 
1770.427 -1646948 -1661042 -1688108 -1722597 -1751639 -1761539 -1744709 
1773.802 -1702234 -1642921 -1577426 -1514893 -1459319 -1410344 -1364467 
1777.177 -1318784 -1272700 -1228626 -1190727 -1162739 -1145654 -1136301 
1780.553 -1129857 -1121397 -1108970 -1094726 -1082761 -1077110 -1079456 
1783.928 -1087719 -1097205 -1102427 -1099849 -1088909 -1072053 -1052452 
1787.303 -1031925 -1011463 -990868 -970504 -953610 -945344 -952816 -981215 
1791.161 -1032256 -1100840 -1176618 -1247756 -1304910 -1345012 -1370413 
1794.536 -1387125 -1400700 -1414901 -1431711 -1451790 -1475533 -1503964 
1797.911 -1538303 -1579440 -1626020 -1674905 -1721475 -1760879 -1789984 
1801.286 -1808462 -1817668 -1820275 -1818361 -1812983 -1804602 -1793284 
1804.662 -1780678 -1768172 -1757579 -1749791 -1743950 -1738009 -1730353 
1808.037 -1719726 -1707185 -1694973 -1685269 -1678767 -1673816 -1666654 
1811.412 -1653385 -1632028 -1603275 -1570724 -1538996 -1511195 -1488081 
1814.787 -1467575 -1445846 -1419327 -1386927 -1349703 -1311484 -1275805 
1818.163 -1245543 -1221093 -1201103 -1183491 -1166803 -1150611 -1135938 
1821.538 -1124008 -1116770 -1115580 -1121430 -1134649 -1154312 -1178270 
1824.913 -1201995 -1219937 -1227536 -1222745 -1207711 -1188447 -1173941 
1828.288 -1172950 -1190199 -1224133 -1266159 -1303688 -1324004 -1320700 
1831.664 -1294504 -1252051 -1202292 -1152461 -1106293 -1063955 -1022570 
1835.039 -978835 -930532 -877330 -819823 -758636 -693041 -621282 -541039 
1838.896 -451150 -352105 -246513 -138113 -30349 74094 173657 267838 357232 
1843.236 443427 529937 621442 723753 841325 975400 1123337 1279199 1434718 
1847.575 1581414 1713124 1826372 1920580 1996667 2055389 2095640 2114785 
1851.433 2109291 2077428 2019935 1941548 1848500 1746989 1640678 1530238 
1855.290 1414108 1290199 1158252 1020367 880235 741410 605880 473544 342807 
1859.630 213303 86587 -33397 -141624 -234260 -310586 -373525 -427483 -476570 
1863.969 -522176 -562913 -596069 -619727 -634880 -645898 -659595 -680569 
1867.827 -710309 -744115 -773520 -789925 -788437 -769849 -739815 -706538 
1871.684 -675872 -651721 -634583 -623499 -617146 -615128 -617808 -625782 
1875.542 -638388 -654533 -672663 -692578 -715403 -744612 -783740 -834639 
1879.399 -896344 -965049 -1035495 -1102856 -1164953 -1222382 -1277391 
1882.774 -1332262 -1386729 -1438382 -1483161 -1517667 -1541407 -1556825 
1886.150 -1568909 -1582378 -1600370 -1622488 -1646123 -1667677 -1683883 
1889.525 -1693323 -1696161 -1692960 -1684147 -1669426 -1648895 -1623313 
1892.900 -1595253 -1568281 -1544906 -1526087 -1509775 -1491846 -1468268 
1896.275 -1437392 -1400700 -1362519 -1327043 -1296552 -1269561 -1241512 
1899.651 -1207315 -1163201 -1109235 -1049279 -989182 -934301 -886721 -846147 
1903.508 -810034 -775769 -742462 -711169 -683679 -661778 -645335 -633028 
1907.365 -623499 -616683 -614135 -618238 -630579 -650497 -674515 -697805 
1911.223 -716297 -728966 -739088 -752385 -773752 -805800 -847007 -892773 
1915.080 -938236 -980289 -1019265 -1058336 -1100840 -1147108 -1194032 
1918.456 -1235631 -1266985 -1287170 -1301342 -1317661 -1345442 -1389801 
1921.831 -1450040 -1519021 -1586703 -1643581 -1684906 -1711937 -1729165 
1925.206 -1741639 -1752167 -1760879 -1765400 -1764872 -1760351 -1755467 
1928.581 -1754477 -1759790 -1770878 -1784209 -1795527 -1801764 -1803645 
1931.957 -1804634 -1808660 -1818295 -1833011 -1849442 -1864123 -1875275 
1935.332 -1884017 -1894277 -1908924 -1928618 -1949993 -1967310 -1975886 
1938.707 -1974171 -1966717 -1959955 -1961142 -1973973 -1996039 -2020445 
1942.082 -2039013 -2046631 -2043531 -2034066 -2024073 -2016322 -2009363 
1945.458 -1998249 -1978162 -1947750 -1910937 -1875374 -1848650 -1834331 
1948.833 -1829744 -1827633 -1819813 -1801137 -1773089 -1741111 -1713686 
1952.208 -1695534 -1687547 -1685533 -1684510 -1682068 -1679592 -1682068 
1955.583 -1694808 -1719000 -1751375 -1784110 -1809188 -1822485 -1826280 
1958.958 -1826346 -1830041 -1840368 -1853863 -1862210 -1856898 -1834331 
1962.334 -1797837 -1757447 -1723983 -1706194 -1706557 -1721871 -1746623 
1965.709 -1776686 -1811069 -1851256 -1897444 -1946464 -1989475 -2017147 
1969.084 -2021072 -2000722 -1963188 -1919910 -1882170 -1855512 -1838917 
1972.459 -1824993 -1806548 -1779853 -1745765 -1708109 -1668238 -1622026 
1975.835 -1559763 -1471075 -1351982 -1210388 -1065872 -943857 -865195 
1979.210 -839434 -861888 -918431 -991034 -1065144 -1135376 -1201004 -1264176 
1983.067 -1325523 -1380949 -1423984 -1449148 -1456545 -1451592 -1444657 
1986.443 -1444987 -1456281 -1475104 -1493629 -1503040 -1499209 -1484053 
1989.818 -1463910 -1445747 -1432900 -1422795 -1408858 -1384450 -1348051 
1993.193 -1303225 -1258362 -1220201 -1192578 -1172751 -1154279 -1130518 
1996.568 -1098857 -1061905 -1027132 -1001414 -988290 -986009 -989414 -992984 
2000.426 -994835 -998472 -1011067 -1039329 -1085967 -1147571 -1215047 
2003.801 -1278680 -1331238 -1369587 -1396571 -1416586 -1432504 -1443897 
2007.176 -1448488 -1444195 -1431084 -1413877 -1397364 -1385210 -1376820 
2010.552 -1367209 -1350330 -1323508 -1287732 -1251556 -1223868 -1211412 
2013.927 -1214419 -1226347 -1236721 -1235433 -1218615 -1187159 -1148331 
2017.302 -1109136 -1073804 -1042205 -1012058 -980918 -949345 -921605 -901237 
2021.159 -890458 -886887 -884771 -877165 -861160 -838111 -814035 -795779 
2025.017 -786585 -784567 -783840 -778978 -768592 -758372 -758305 -778978 
2028.874 -823891 -887813 -957180 -1015628 -1049642 -1053973 -1031925 -992158 
2032.732 -942038 -885267 -820749 -745604 -661083 -573403 -494442 -436222 
2036.589 -406000 -402458 -415931 -433110 -442015 -435593 -414077 -382066 
2040.447 -345748 -308666 -270852 -231247 -190114 -149706 -115589 -93427 
2044.304 -85576 -90214 -102140 -113568 -118868 -115291 -103697 -86968 -67720 
2048.644 -48604 -32105 -22629 -27169 -52746 -104724 -181470 -274627 -369353 
2052.983 -447840 -496726 -510527 -495170 -464026 -433375 -416195 -416725 
2056.841 -432084 -454328 -475577 -491563 -501690 -508376 -513207 -515094 
2060.698 -510262 -494906 -467832 -431455 -392527 -357600 -330585 -310454 
2064.555 -292408 -270157 -240155 -203461 -165638 -134271 -115191 -110090 
2068.413 -116583 -129965 -146129 -163154 -182728 -206939 -237108 -271713 
2072.270 -307010 -337902 -362269 -380146 -394877 -410667 -429966 -452507 
2076.128 -475312 -494972 -509236 -519065 -527769 -539087 -554442 -573039 
2079.985 -591205 -605003 -611654 -612183 -609139 -606393 -605301 -605400 
2083.843 -603878 -598286 -588558 -577506 -570425 -572940 -588260 -616154 
2087.700 -653640 -696614 -741932 -788966 -838309 -890458 -943857 -994174 
2091.557 -1035759 -1062831 -1072945 -1067921 -1053047 -1034569 -1017513 
2094.933 -1004191 -994174 -986438 -980124 -976752 -978008 -984455 -993910 
2098.790 -1000620 -997678 -980124 -946997 -902593 -854778 -812382 -780797 
2102.647 -761216 -750566 -743884 -737136 -728238 -717785 -706538 -693967 
2106.505 -677129 -651853 -614830 -565759 -508773 -450952 -398982 -357634 
2110.362 -327439 -305487 -286812 -267839 -246778 -224623 -202799 -181735 
2114.220 -160041 -135198 -104989 -69377 -31211 5036 35156 57226 72470 84566 
2119.042 96596 110781 125861 138886 146874 148963 147637 146874 151150 
2123.381 161591 175844 188938 194971 190164 173922 148532 117708 83108 44567 
2128.203 -828 -55562 -120259 -192300 -266382 -336345 -397227 -447277 -487459 
2132.542 -519495 -543952 -559703 -564369 -556394 -538028 -515226 -495534 
2136.400 -486135 -489842 -505066 -525684 -546202 -563211 -578168 -594746 
2140.257 -617245 -646626 -679742 -710805 -733762 -746927 -753311 -759926 
2144.115 -772826 -794754 -822535 -848230 -863938 -864103 -850711 -830802 
2147.972 -813407 -805437 -809637 -823891 -844560 -868369 -895649 -928945 
2151.830 -971925 -1024917 -1085967 -1151470 -1217723 -1284593 -1354558 
2155.205 -1430159 -1508686 -1578252 -1619055 -1605685 -1519021 -1352675 
2158.580 -1120306 -850314 -576547 -330088 -128474 23923 130567 198982 235348 
2162.920 245194 233591 208827 181479 160796 154166 161293 175281 185159 
2167.259 181281 159901 123773 81384 41121 8681 -16367 -38466 -64308 -96740 
2172.081 -134702 -171732 -200613 -215384 -214854 -201606 -180940 -157358 
2175.938 -133807 -111249 -91109 -75174 -67555 -71795 -88359 -113535 -139240 
2180.278 -156000 -156463 -138743 -106413 -68184 -32238 -3677 17230 33400 
2184.618 48908 65577 82577 97226 107400 113929 120061 131727 152045 182142 
2189.439 218143 255273 288792 316976 342210 368142 397823 430889 464489 
2193.779 493812 514943 527482 534847 541018 550174 562350 573962 579370 
2198.119 574227 557174 530733 500512 471289 446213 424654 404456 383861 
2202.458 362903 345062 334451 334716 345692 363864 384060 401405 414207 
2206.798 424157 435632 451918 474274 501010 528113 551634 569748 582754 
2211.137 593172 602330 609995 613180 608634 594533 572469 547752 526985 
2215.477 516867 520118 535743 558734 584247 607838 628676 647424 665742 
2219.817 683927 700521 712303 716119 710311 695908 675564 652767 630335 
2224.156 609198 589456 570312 551269 533122 516170 500711 485983 470592 
2228.496 453012 433277 413079 395170 383231 379683 385088 397691 415102 
2232.835 434372 453178 470028 483296 491556 492385 484789 469033 448568 
2237.175 428501 414704 411952 421238 440010 463427 485851 503299 515606 
2241.515 524497 533686 545795 561620 579835 598879 617593 636374 656948 
2245.854 681140 708851 738024 764246 782568 789406 784062 768262 746222 
2250.194 722525 701881 687810 683164 690233 711008 745857 792659 846736 
2254.533 900356 945514 975135 985894 978124 956704 927682 897135 869445 
2258.873 847002 830702 820510 816527 818186 824693 833590 842620 849193 
2263.213 852779 855103 859983 871636 892619 922204 956605 989979 1016581 
2267.552 1033885 1042653 1046705 1050857 1058264 1069657 1082611 1093174 
2271.410 1097858 1095101 1085600 1071915 1057002 1043517 1033287 1027275 
2275.267 1026877 1033420 1048366 1071816 1102674 1137588 1172339 1203503 
2279.125 1228756 1248992 1266239 1283752 1304057 1327820 1354309 1381332 
2282.982 1407625 1432092 1455197 1477272 1498351 1517869 1534261 1545966 
2286.839 1552583 1555044 1555443 1556108 1559367 1566051 1576027 1588630 
2290.697 1603496 1620956 1641776 1666921 1696857 1730754 1767083 1803680 
2294.554 1839316 1872891 1905238 1936788 1968175 1999696 2030787 2060582 
2298.412 2088615 2114585 2138525 2160668 2181081 2199198 2214683 2227206 
2302.269 2236797 2244591 2251652 2259012 2266806 2274667 2281662 2286758 
2306.126 2289922 2291754 2293686 2297350 2304112 2314372 2327963 2344320 
2309.984 2362742 2382865 2404388 2427145 2450536 2474228 2497188 2519250 
2313.841 2540147 2560444 2580776 2601508 2622875 2644777 2667013 2689584 
2317.699 2713322 2739196 2768473 2802054 2840506 2883565 2930564 2980138 
2321.556 3029984 3077366 3117578 3145679 3156326 3145913 3113407 3061282 
2325.414 2995718 2924760 2857182 2800419 2758769 2733328 2722058 2721458 
2329.271 2727259 2736195 2746298 2756902 2767639 2778677 2790148 2802487 
2333.128 2816193 2832168 2851312 2873992 2899709 2928062 2958086 2989045 
2336.986 3020875 3053941 3088345 3123852 3159129 3192373 3222081 3247284 
2340.843 3267882 3284942 3299264 3311016 3319063 3320999 3314389 3297962 
2344.701 3272890 3243145 3214937 3196045 3193742 3213402 3258434 3328913 
2348.558 3423147 3536809 3664669 3799585 3934042 4061818 4178056 4281041 
2352.416 4371800 4453707 4530641 4605043 4678052 4749029 4817136 4882373 
2356.273 4946982 5013545 5085114 5162394 5244685 5328870 5411796 5491115 
2360.130 5566621 5639489 5711295 5782274 5851081 5914592 5969613 6014596 
2363.988 6050445 6080013 6106962 6133811 6160797 6185365 6203515 6211346 
2367.845 6206506 6188827 6159890 6121747 6076552 6025448 5969210 5909184 
2371.703 5847555 5787915 5734965 5692831 5665136 5654092 5660469 5683599 
2375.560 5722845 5777137 5845607 5927759 6022793 6130350 6250269 6382562 
2379.417 6527273 6684448 6852956 7030655 7214322 7399922 7583341 7761474 
2383.275 7931683 8092540 8242617 8380416 8503831 8610347 8697486 8763409 
2387.132 8807533 8830256 8833231 8818286 8787482 8742854 8686230 8619472 
2390.990 8544447 8462711 8375451 8283378 8186632 8085012 7979165 7870305 
2394.847 7760799 7653648 7552086 7459244 7377273 7307483 7251281 7209370 
2398.705 7182656 7172281 7178917 7202397 7241948 7296262 7364062 7444345 
2402.562 7536846 7641643 7758877 7888255 8028946 8179608 8339105 8506804 
2406.419 8683018 8868806 9065364 9273893 9495019 9728421 9973781 10229831 
2410.277 10495399 10768840 11048062 11330082 11611264 11887146 12152947 
2413.652 12404079 12635605 12842886 13021757 13168833 13281762 13360412 
2417.027 13406406 13423186 13415530 13388364 13345993 13291088 13225772 
2420.403 13150800 13067203 12976008 12878620 12776443 12670878 12562816 
2423.778 12453279 12343805 12236778 12136183 12046648 11972799 11918681 
2427.153 11887146 11879178 11894774 11933666 11995347 12079556 12186103 
2430.528 12314830 12464702 12634479 12823297 13030053 13254842 13497555 
2433.904 13758187 14035984 14329300 14636077 14955006 15285357 15628187 
2437.279 15985383 16359352 16752033 17164268 17595942 18046350 18515412 
2440.654 19003812 19513142 20045274 20601860 21183788 21790782 22421930 
2444.029 23075764 23750814 24445280 25156834 25882602 26618640 27361502 
2447.405 28107792 28855226 29602496 30348530 31091932 31830300 32560206 
2450.780 33277896 33979324 34661320 35321240 35956648 36564188 37139476 
2454.155 37676860 38169792 38611460 38995616 39316084 39567244 39743016 
2457.530 39836452 39841460 39752128 39564772 39278508 38894792 38417792 
2460.906 37852664 37205564 36482264 35688576 34830628 33915008 32949232 
2464.281 31942338 30903686 29843592 28772906 27701746 26640692 25599938 
2467.656 24588774 23616238 22690140 21816668 21000308 20243938 19548770 
2471.031 18915238 18342492 17828768 17371066 16964526 16603220 16279468 
2474.406 15985863 15715817 15464103 15227392 15004016 14792889 14593276 
2477.782 14404441 14224865 14054225 13891692 13737359 13591115 13452542 
2481.157 13320675 13194108 13071505 12951633 12834730 12722020 12615104 
2484.532 12515752 12425115 12343124 12269428 12203039 12143577 12090357 
2487.907 12043412 12002466 11966839 11935777 11908499 11884490 11864297 
2491.283 11849110 11840427 11839406 11846182 11860210 11879825 11903185 
2494.658 11928421 11954134 11979339 12002978 12024369 12042492 12057276 
2498.033 12068553 12077172 12083781 12089232 12093525 12096182 12096421 
2501.408 12093491 12087598 12079387 12070801 12063647 12059185 12057788 
2504.784 12058809 12061127 12063307 12064703 12065419 12065588 12065759 
2508.159 12066134 12066100 12064873 12061433 12054313 12042083 12023279 
2511.534 11995654 11957813 11907817 11845399 11771210 11687128 11595984 
2514.909 11500470 11403039 11304745 11206372 11108395 11011459 10916991 
2518.285 10826451 10741431 10662608 10589640 10522250 10459623 10402062 
2521.660 10350785 10307693 10274918 10253476 10243332 10242722 10249541 
2525.035 10261245 10276275 10294087 10314445 10337688 10363782 10392118 
2528.410 10421881 10452597 10483790 10515902 10549068 10583426 10618703 
2531.786 10654119 10689028 10723532 10757938 10793534 10831580 10872993 
2535.161 10918112 10966669 11018358 11073214 11131714 11194846 11263530 
2538.536 11337904 11417395 11500777 11585809 11671096 11755481 11838657 
2541.911 11920928 12002398 12083372 12163680 12243492 12322840 12402101 
2545.287 12481821 12561827 12641541 12719461 12794119 12864149 12929001 
2548.662 12989664 13047569 13104492 13161696 13219077 13275954 13330583 
2552.037 13381939 13429131 13472501 13512765 13550503 13586364 13620005 
2555.412 13651084 13678951 13703504 13724637 13742318 13756648 13766840 
2558.788 13771902 13770225 13760650 13742147 13714070 13676285 13628997 
2562.163 13572074 13506271 13432652 13352861 13269053 13184203 13100599 
2565.538 13020460 12944977 12874661 12809714 12750340 12697216 12651365 
2568.913 12613535 12584679 12564419 12552516 12547878 12549787 12557871 
2572.289 12571752 12591602 12617355 12648432 12683637 12722054 12762555 
2575.664 12804698 12848449 12894253 12942485 12993488 13047160 13103365 
2579.039 13161627 13221981 13284119 13348077 13413788 13480944 13549341 
2582.414 13619013 13690475 13764548 13842705 13925904 14015075 14109979 
2585.790 14209629 14312315 14415676 14517863 14617058 14712368 14803414 
2589.165 14890845 14975445 15058348 15140409 15222210 15303581 15383903 
2592.540 15462627 15538685 15612112 15683044 15752407 15821300 15890514 
2595.915 15960461 16031003 16101899 16172705 16244072 16316758 16392658 
2599.291 16473938 16562222 16659200 16765567 16881502 17006356 17139518 
2602.666 17279550 17425110 17574444 17726144 17879174 18032810 18187778 
2606.041 18345360 18506906 18673700 18845956 19022644 19201930 19381084 
2609.416 19557572 19729036 19893700 20050166 20197144 20333234 20457036 
2612.792 20566734 20660858 20738354 20798692 20842386 20870268 20883652 
2616.167 20884452 20874056 20854206 20826154 20791044 20749962 20704018 
2619.542 20654324 20602450 20550094 20499480 20452208 20409872 20373340 
2622.917 20342576 20317366 20296986 20280910 20268482 20260080 20256018 
2626.292 20257200 20264698 20279210 20301952 20333476 20374522 20425188 
2629.668 20485206 20553568 20629064 20710308 20795946 20885078 20977670 
2633.043 21073448 21173108 21276688 21384506 21496178 21611816 21731106 
2636.418 21854298 21981148 22111524 22244866 22380204 22516316 22652262 
2639.793 22787134 22920824 23053088 23183854 23313052 23440086 23564636 
2643.169 23686530 23805936 23923626 24040858 24158434 24277270 24397294 
2646.544 24518196 24639830 24762270 24886290 25012906 25143598 25279210 
2649.919 25420062 25566058 25716216 25870048 26027346 26188466 26354014 
2653.294 26525014 26702140 26885858 27075686 27271524 27472464 27677910 
2656.670 27887444 28101006 28318208 28539164 28763914 28992818 29225814 
2660.045 29463010 29703850 29947768 30193388 30439998 30686324 30931294 
2663.420 31174802 31416162 31655562 31893268 32129466 32364648 32599710 
2666.795 32835684 33073716 33314564 33558804 33806116 34056256 34308696 
2670.171 34563144 34819716 35079028 35341692 35607680 35876676 36147456 
2673.546 36418268 36687368 36953060 37214120 37469156 37717152 37956868 
2676.921 38187196 38407512 38618200 38820980 39018596 39214928 39414432 
2680.296 39620960 39838304 40069380 40316284 40581044 40865004 41169008 
2683.672 41493304 41837728 42201708 42584160 42984468 43402208 43837096 
2687.047 44288972 44757220 45240464 45736840 46244504 46761580 47287180 
2690.422 47821260 48364296 48917352 49480884 50055148 50640524 51236788 
2693.797 51843924 52462072 53091028 53730604 54380136 55038392 55704612 
2697.173 56377556 57056872 57742092 58432872 59128208 59827052 60528128 
2700.548 61230492 61933952 62638364 63344152 64050696 64756168 65456668 
2703.923 66147528 66822640 67475776 68102368 68697776 69258624 69781368 
2707.298 70262488 70697640 71083056 71414984 71691240 71910576 72073024 
2710.674 72179712 72232176 72232296 72181856 72082496 71935640 71742200 
2714.049 71502168 71214944 70879544 70494624 70059736 69574928 69041984 
2717.424 68463712 67843728 67186480 66496828 65779620 65040148 64284040 
2720.799 63516700 62744088 61971784 61205312 60450548 59712716 58997472 
2724.175 58310224 57655816 57038128 56459884 55922240 55425540 54969116 
2727.550 54552544 54175556 53838796 53543156 53289852 53079716 52912724 
2730.925 52787848 52703296 52656760 52645576 52667644 52720800 52802888 
2734.300 52912388 53047408 53206212 53386848 53587572 53806128 54039768 
2737.676 54285024 54538116 54794552 55050276 55301448 55544892 55778148 
2741.051 55999508 56207552 56401360 56580348 56744980 56896384 57036696 
2744.426 57168728 57295668 57420300 57544584 57670532 57798792 57929812 
2747.801 58063940 58200912 58340392 58481776 58624188 58767256 58910940 
2751.177 59056340 59205628 59361880 59528828 59710056 59909160 60128604 
2754.552 60370580 60636504 60927448 61243916 61586280 61953708 62344820 
2757.927 62757492 63188412 63633420 64087564 64544992 64998932 65442292 
2761.302 65867528 66267156 66634356 66963016 67247944 67484984 67671040 
2764.677 67804064 67883360 67909504 67885016 67813360 67699344 67548112 
2768.053 67364624 67153840 66920424 66669048 66405044 66133716 65860936 
2771.428 65592176 65331520 65082528 64846956 64625420 64418180 64225144 
2774.803 64046324 63881352 63729836 63590460 63460976 63337484 63214936 
2778.178 63086868 62945968 62784708 62595652 62372704 62111640 61811192 
2781.554 61472436 61099464 60698268 60275824 59839068 59394852 58948548 
2784.929 58504940 58067804 57640376 57224900 56823036 56435584 56062312 
2788.304 55702428 55354736 55018268 54692396 54377204 54073468 53782164 
2791.679 53504176 53240072 52990052 52753200 52528180 52313328 52105944 
2795.055 51903588 51703788 51504264 51302860 51098084 50888332 50671984 
2798.430 50447372 50212304 49964804 49702996 49425672 49132352 48823540 
2801.805 48500356 48163676 47814492 47453136 47079896 46694904 46298796 
2805.180 45893104 45480136 45063260 44646236 44233208 43828408 43435196 
2808.556 43057048 42696448 42355396 42035488 41737588 41462428 41210572 
2811.931 40982276 40778156 40598252 40442424 40310176 40200356 40111640 
2815.306 40042596 39992204 39960092 39946396 39952644 39980036 40030172 
2818.681 40104516 40203956 40329008 40480576 40658756 40863840 41095424 
2822.057 41352972 41634888 41939136 42263352 42604952 42961380 43330116 
2825.432 43708392 44092792 44479220 44862544 45237120 45596820 45935680 
2828.807 46248336 46530052 46777152 46987288 47159260 47293388 47390788 
2832.182 47454320 47487880 47495384 47481744 47452248 47412000 47367324 
2835.558 47324052 47288436 47266120 47261620 47278576 47319808 47387724 
2838.933 47485036 47616120 47786568 48003924 48277452 48616780 49032256 
2842.308 49535324 50136956 50850452 51689868 52669440 53802904 55099776 
2845.683 56561360 58176248 59916424 61735864 63565300 65320620 66907896 
2849.059 68225720 69185840 69718808 69782144 69368120 68501504 67237880 
2852.434 65649212 63821516 61845308 59801116 57764612 55798944 53950056 
2855.809 52252488 50725792 49376480 48200324 47184524 46311624 45560204 
2859.184 44909204 44339720 43834052 43378072 42960360 42571220 42204012 
2862.560 41854220 41519444 41199644 40896860 40613896 40354712 40123196 
2865.935 39923292 39758196 39630980 39544016 39498324 39494116 39530004 
2869.310 39603176 39709032 39841392 39993332 40156488 40322536 40483556 
2872.685 40632668 40765560 40880656 40980200 41069128 41154760 41245804 
2876.061 41350092 41474564 41624128 41801612 42008148 42243704 42507412 
2879.436 42797540 43111496 43446624 43799640 44167468 44547320 44937388 
2882.811 45335824 45741180 46150824 46561844 46970160 47370908 47759860 
2886.186 48133580 48490128 48829064 49151976 49461280 49760508 50054032 
2889.562 50346380 50642568 50947568 51266804 51605264 51969088 52364876 
2892.937 52800680 53286108 53832160 54449656 55148868 55936224 56812688 
2896.312 57770896 58794796 59857552 60921276 61942968 62874660 63669024 
2899.687 64288804 64708596 64920472 64934364 64777136 64487988 64109952 
2903.063 63688784 63266216 62875428 62545136 62296704 62146240 62106668 
2906.438 62187376 62395272 62735400 63211484 63827352 64587244 65496540 
2909.813 66560736 67784112 69167112 70703728 72378592 74167688 76034936 
2913.188 77933424 79811376 81608208 83262840 84720584 85933352 86868552 
2916.563 87511672 87865848 87950312 87794632 87435600 86907976 86241104 
2919.939 85457488 84569472 83581920 82494464 81305552 80014896 78627792 
2923.314 77155296 75615760 74033448 72434096 70844976 69290768 67790624 
2926.689 66359372 65006628 63737356 62553628 61455028 60440036 59505952 
2930.064 58649632 57867076 57154484 56507584 55922468 55394900 54921252 
2933.440 54497396 54119216 53782652 53483564 53218424 52983616 52775460 
2936.815 52590108 52422516 52266984 52117300 51967708 51814092 51654600 
2940.190 51490316 51324864 51163164 51010392 50870528 50745340 50633264 
2943.565 50529808 50427796 50318176 50190140 50034212 49842596 49611536 
2946.941 49342216 49041976 48723224 48401260 48093380 47815196 47577596 
2950.316 47387356 47244880 47145924 47082072 47042708 47016492 46991240 
2953.691 46955980 46901088 46818376 46701880 46548016 46355532 46124696 
2957.066 45857604 45557480 45227744 44872684 44497244 44106032 43704468 
2960.442 43298080 42891740 42490132 42097216 41716000 41349292 40999316 
2963.817 40668000 40357476 40069524 39805908 39567932 39356896 39173480 
2967.192 39017836 38889172 38785580 38703816 38639816 38588176 38543672 
2970.567 38501816 38458552 38411748 38360528 38305012 38246604 38187048 
2973.943 38128624 38073392 38022612 37975636 37929456 37877752 37810408 
2977.318 37714952 37577456 37383744 37123272 36789124 36380396 35901796 
2980.693 35363548 34780552 34169552 33549316 32938044 32350906 31800852 
2984.068 31296500 30842212 30439110 30086204 29781556 29524466 29315310 
2987.444 29155930 29047086 28987116 28968768 28976772 28988992 28977624 
2990.819 28911320 28763136 28513512 28154386 27691860 27144954 26543010 
2994.194 25917772 25301932 24721688 24193640 23725408 23316338 22960542 
2997.569 22649192 22373436 22126098 21901618 21695648 21505022 21326418 
3000.945 21156688 20993110 20833278 20675730 20520116 20366534 20215786 
3004.320 20068696 19926480 19789928 19660214 19538370 19424740 19319452 
3007.695 19222052 19131564 19046946 18967606 18892952 18823256 18758660 
3011.070 18699160 18644610 18594220 18547120 18502584 18460714 18421960 
3014.446 18387598 18358736 18336338 18320716 18312110 18310072 18314288 
3017.821 18324588 18340556 18361674 18386666 18413526 18439522 18462028 
3021.196 18477932 18484776 18480802 18464586 18435650 18393924 18340520 
3024.571 18277690 18208474 18137024 18067660 18004452 17950130 17906416 
3027.947 17872856 17848446 17830562 17816754 17804084 17789828 17771774 
3031.322 17747924 17717238 17679138 17634104 17583450 17529112 17473434 
3034.697 17418142 17365274 17316410 17272724 17235350 17204668 17181364 
3038.072 17165164 17155444 17151410 17152032 17156512 17164544 17176298 
3041.448 17192050 17212322 17237040 17266068 17298754 17334340 17371688 
3044.823 17409864 17447978 17484920 17519832 17552054 17581380 17608052 
3048.198 17633034 17657258 17681554 17705850 17729526 17751306 17769462 
3051.573 17782682 17790380 17792554 17789828 17782924 17772602 17759210 
3054.948 17742746 17723554 17702294 17679552 17656326 17633516 17611778 
3058.324 17591316 17572168 17554608 17539014 17525972 17515934 17509034 
3061.699 17504618 17502134 17500512 17499512 17499478 17501650 17507412 
3065.074 17518038 17533974 17554502 17578274 17603256 17628064 17651598 
3068.449 17673824 17695394 17717170 17739846 17764146 17790414 17818826 
3071.825 17849998 17884006 17921368 17962286 18006732 18054534 18105208 
3075.200 18158340 18213692 18270466 18328354 18386768 18444776 18501824 
3078.575 18557148 18610890 18662874 18713342 18762432 18810040 18855646 
3081.950 18898834 18939050 18975878 19009352 19039676 19067026 19092196 
3085.326 19115844 19138976 19162868 19189290 19219628 19255300 19296660 
3088.701 19343286 19393938 19446848 19500284 19552858 19603742 19653072 
3092.076 19701334 19749494 19798250 19848470 19900672 19955274 20012554 
3095.451 20072340 20134634 20198742 20264280 20330490 20396988 20463462 
3098.827 20529634 20595396 20660788 20725876 20790906 20856154 20922002 
3102.202 20988868 21056440 21123988 21190540 21254802 21316082 21374448 
3105.577 21430906 21487232 21545830 21607846 21673982 21743648 21815204 
3108.952 21886808 21957274 22025800 22092976 22159674 22227114 22296100 
3112.328 22367158 22439968 22514326 22589676 22665318 22740590 22814614 
3115.703 22886560 22955826 23022272 23086702 23150442 23214892 23281590 
3119.078 23351196 23423824 23498526 23574572 23650980 23727610 23804536 
3122.453 23882000 23960144 24038614 24116366 24192274 24265534 24335788 
3125.829 24403534 24469782 24536286 24604482 24675706 24750694 24829696 
3129.204 24912186 24997182 25083004 25167752 25249814 25327922 25401830 
3132.579 25472904 25542654 25613750 25688126 25767018 25850282 25936872 
3135.954 26024988 26113264 26200468 26286282 26370596 26453344 26534380 
3139.330 26613320 26689736 26763734 26835878 26907292 26979670 27054350 
3142.705 27132080 27212680 27295340 27378970 27462476 27545324 27627590 
3146.080 27709798 27793050 27878048 27965534 28055690 28148482 28243522 
3149.455 28340242 28438152 28536970 28636304 28736124 28836214 28935936 
3152.831 29035078 29132508 29227726 29320166 29410108 29498400 29586428 
3156.206 29676000 29768534 29864602 29964170 30066140 30169164 30272320 
3159.581 30375038 30477246 30579870 30683872 30789352 30897068 31006376 
3162.956 31117240 31229094 31341974 31455848 31570428 31685460 31799924 
3166.332 31912952 32023550 32130714 32234050 32333378 32428730 32520138 
3169.707 32607534 32690476 32769184 32843084 32912272 32976794 33036854 
3173.082 33092168 33142876 33188940 33230108 33266556 33298250 33325296 
3176.457 33347980 33366800 33382542 33396676 33410884 33426914 33446524 
3179.833 33470504 33499348 33532206 33568004 33605196 33642824 33680132 
3183.208 33717052 33753680 33790032 33825924 33860956 33894700 33926796 
3186.583 33957536 33987492 34017304 34047872 34079948 34113744 34149620 
3189.958 34187868 34228524 34271512 34316548 34362948 34409500 34454768 
3193.333 34497848 34537312 34573044 34605376 34634760 34662180 34688488 
3196.709 34714544 34741136 34768848 34798464 34830128 34863768 34898884 
3200.084 34934576 34970020 35004532 35038044 35070912 35103632 35136684 
3203.459 35170136 35203800 35237004 35269348 35300324 35329796 35357832 
3206.834 35384000 35407868 35428972 35447020 35462476 35476824 35491924 
3210.210 35509940 35532092 35558484 35587864 35617860 35646168 35671272 
3213.585 35692496 35711344 35729332 35748400 35769448 35792080 35815320 
3216.960 35837200 35856704 35873148 35887112 35899996 35913456 35929076 
3220.335 35948116 35971084 35997828 36028064 36060756 36094600 36128480 
3223.711 36161500 36193012 36223084 36252292 36281652 36312164 36344444 
3227.086 36378812 36414844 36451668 36488680 36524932 36560256 36594460 
3230.461 36628132 36661480 36695512 36730816 36768316 36808168 36850544 
3233.836 36894584 36938992 36982288 37023272 37061056 37096164 37129404 
3237.212 37162356 37196000 37231088 37267440 37304844 37342648 37381036 
3240.587 37420616 37462404 37507084 37554556 37603580 37652360 37698472 
3243.962 37740536 37778052 37811524 37842688 37873564 37906136 37941280 
3247.337 37979468 38020548 38063844 38108944 38154780 38200656 38245304 
3250.713 38287784 38326764 38362268 38394664 38425176 38455548 38487156 
3254.088 38520824 38556236 38592304 38626960 38658468 38685488 38707876 
3257.463 38725880 38740732 38753556 38765584 38777248 38788224 38798300 
3260.838 38806268 38811340 38812684 38809856 38803116 38793156 38780872 
3264.214 38767976 38755728 38745260 38737252 38731492 38727764 38724828 
3267.589 38721676 38717152 38710160 38700160 38686724 38669952 38650176 
3270.964 38627688 38603204 38577348 38550988 38524880 38499644 38475860 
3274.339 38453592 38432600 38412180 38391296 38368528 38343156 38314820 
3277.715 38284024 38252108 38220844 38191716 38165668 38142916 38122512 
3281.090 38103560 38084712 38065324 38045576 38025900 38007312 37990856 
3284.465 37976828 37965512 37956252 37948656 37941788 37934808 37926996 
3287.840 37917668 37906208 37892576 37877428 37862068 37848252 37837624 
3291.216 37831660 37830936 37835204 37843556 37854908 37868572 37884084 
3294.591 37901764 37921792 37944680 37970320 37998416 38028612 38060696 
3297.966 38094728 38130760 38168888 38208940 38250188 38291692 38332736 
3301.341 38372984 38413304 38454608 38498740 38547004 38600380 38658688 
3304.717 38721100 38786560 38853952 38922332 38991304 39060464 39129608 
3308.092 39198612 39267444 39336216 39405656 39476624 39549964 39626440 
3311.467 39706236 39788988 39874260 39960928 40048232 40135732 40223036 
3314.842 40310176 40397076 40483848 40570784 40657956 40745728 40834212 
3318.218 40923396 41012936 41101912 41189624 41275168 41358040 41438332 
3321.593 41515908 41591528 41665556 41738320 41810148 41881296 41952200 
3324.968 42023004 42093784 42164172 42233700 42301116 42365916 42427544 
3328.343 42485820 42541216 42594612 42646184 42696008 42743424 42787632 
3331.719 42827668 42862704 42892436 42916464 42934244 42944848 42947520 
3335.094 42941084 42925536 42901652 42871296 42837140 42801564 42766460 
3338.469 42732460 42699152 42665044 42628532 42587740 42541216 42488088 
3341.844 42427544 42358680 42280956 42193676 42096300 41988584 41870644 
3345.219 41743100 41606952 41463704 41315328 41164344 41012936 40863256 
3348.595 40716180 40571732 40429080 40286216 40141548 39993880 39843024 
3351.970 39689828 39535452 39381312 39227984 39075840 38924540 38773736 
3355.345 38623808 38475716 38330632 38190196 38055340 37926060 37802056 
3358.720 37682244 37565644 37451496 37339688 37230184 37123196 37018652 
3362.096 36915940 36814260 36713108 36611836 36510624 36410340 36312164 
3365.471 36217576 36128084 36044628 35967880 35897440 35832164 35770452 
3368.846 35709976 35648936 35586028 35520508 35452588 35383136 35312760 
3372.221 35241892 35170204 35096632 35019616 34937196 34847432 34749036 
3375.597 34641188 34523428 34396300 34260684 34118152 33970472 33819548 
3378.972 33666384 33511270 33353418 33191298 33022948 32846336 32660398 
3382.347 32464330 32258068 32041990 31816214 31581328 31337880 31087484 
3385.722 30832038 30573970 30316090 30059996 29806860 29555924 29305632 
3389.098 29054208 28800238 28542562 28281852 28019464 27756914 27496254 
3392.473 27239454 26988062 26742802 26504092 26271672 26044162 25820112 
3395.848 25597372 25374604 25150724 24926642 24703660 24483700 24268196 
3399.223 24057282 23849866 23644018 23437462 23228454 23016718 22802812 
3402.599 22588246 22374238 22161660 21950792 21741174 21532632 21325618 
3405.974 21120962 20920160 20723966 20532654 20345526 20161082 19978032 
3409.349 19795546 19613762 19433680 19256272 19082190 18911120 18742228 
3412.724 18574438 18406748 18239608 18073670 17910800 17752548 17599840 
3416.100 17452498 17309650 17169472 17030544 16891422 16751412 16610313 
3419.475 16468810 16327700 16188698 16053213 15923029 15799239 15682289 
3422.850 15571241 15464721 15360629 15257008 15152863 15048264 14944100 
3426.225 14841676 14741607 14643856 14547362 14450067 14350636 14248043 
3429.601 14142361 14034615 13926246 13818556 13712429 13607936 13505177 
3432.976 13404287 13305779 13210777 13119723 13033434 12951360 12872647 
3436.351 12795758 12719632 12643451 12567386 12492118 12417955 12345066 
3439.726 12272701 12199836 12124939 12046955 11965714 11881902 11796948 
3443.102 11712078 11628144 11545554 11463421 11380726 11296414 11209942 
3446.477 11121652 11032700 10944820 10859709 10778725 10702374 10629943 
3449.852 10560747 10493057 10425818 10357844 10288659 10218229 10146759 
3453.227 10074894 10002702 9930421 9858287 9786164 9714495 9643006 9571767 
3457.085 9500810 9429933 9359100 9288111 9216997 9145658 9073789 9001290 
3460.942 8928059 8853994 8779199 8704416 8630389 8558201 8488254 8420954 
3464.800 8355758 8291584 8227455 8162862 8097502 8032287 7968365 7906982 
3468.657 7848712 7793318 7739684 7686192 7631256 7573765 7513045 7449300 
3472.514 7383171 7315334 7246732 7178344 7111449 7047560 6987957 6933985 
3476.372 6885878 6842992 6803645 6765210 6725164 6681319 6632330 6578066 
3480.229 6519167 6457652 6395743 6335726 6280053 6230572 6188424 6153673 
3484.087 6125612 6102425 6081323 6059651 6035527 6007608 5976164 5942438 
3487.944 5908345 5875833 5846447 5820891 5799567 5781871 5767097 5754573 
3491.802 5743460 5732917 5722375 5711463 5700049 5689004 5678866 5670675 
3495.659 5665740 5664464 5666949 5672856 5681988 5693805 5708207 5725329 
3499.516 5744870 5766828 5790635 5815786 5842417 5871030 5902702 5939079 
3503.374 5981774 6031596 6088682 6152160 6220488 6291886 6364876 6438113 
3507.231 6511296 6584424 6657867 6732836 6810545 6892913 6981526 7077432 
3511.089 7180467 7289253 7401371 7513584 7623129 7728047 7827829 7922943 
3514.946 8014399 8103275 8189434 8272470 8351029 8424096 8491464 8553538 
3518.803 8611327 8666218 8717634 8764897 8805707 8837357 8857376 8863936 
3522.661 8857071 8837357 8806045 8764390 8712867 8651413 8578984 8494505 
3526.518 8397779 8289288 8170425 8043156 7909547 7771358 7629368 7483750 
3530.376 7334340 7180803 7023415 6862448 6698479 6531881 6362657 6190138 
3534.233 6014159 5834458 5652413 5470277 5290800 5116795 4950635 4792445 
3538.091 4641814 4497194 4356974 4220244 4086735 3956913 3831106 3710081 
3541.948 3592966 3478588 3365141 3250389 3132062 3008997 2880396 2746732 
3545.805 2609742 2472362 2338323 2211386 2094741 1989144 1894023 1806342 
3549.663 1722471 1638650 1552317 1462976 1372324 1283187 1198486 1120446 
3553.520 1049296 983836 921938 861610 802020 743102 685786 630766 578176 
3557.860 527184 476131 423460 368010 309515 249471 190032 133683 82180 36415 
3562.682 -4208 -41978 -79812 -121684 -171600 -232174 -305189 -389779 -481667 
3567.021 -575024 -661514 -734854 -790421 -827462 -848297 -857854 -861756 
3570.879 -865525 -874024 -890293 -915588 -949444 -990505 -1036156 -1083885 
3574.736 -1131906 -1178699 -1223505 -1266357 -1307288 -1346466 -1384054 
3578.111 -1419756 -1453408 -1485011 -1515290 -1544807 -1574257 -1603936 
3581.487 -1633084 -1660349 -1684081 -1702663 -1715633 -1723983 -1730650 
3584.862 -1739824 -1756886 -1785958 -1829348 -1886195 -1951511 -2018136 
3588.237 -2077299 -2122573 -2150862 -2162501 -2160819 -2151126 -2139059 
3591.612 -2129431 -2125705 -2130255 -2143246 -2163951 -2191249 -2223127 
3594.988 -2257706 -2292710 -2326031 -2355329 -2378364 -2393687 -2401101 
3598.363 -2401727 -2397707 -2392105 -2387723 -2386372 -2388480 -2393885 
3601.738 -2400706 -2407197 -2412272 -2415567 -2416818 -2416852 -2416489 
3605.113 -2416654 -2419191 -2426539 -2441069 -2465319 -2500273 -2544877 
3608.489 -2595833 -2648166 -2696739 -2738721 -2773621 -2803251 -2831101 
3611.864 -2860332 -2892161 -2925403 -2956503 -2981349 -2996651 -3001225 
3615.239 -2996815 -2986943 -2976643 -2970786 -2973517 -2987503 -3012742 
3618.614 -3047159 -3086147 -3124045 -3155098 -3175788 -3185064 -3184439 
3621.990 -3177663 -3168025 -3158651 -3149736 -3139868 -3125887 -3105063 
3625.365 -3077329 -3046665 -3021066 -3012281 -3032287 -3088515 -3179077 
3628.740 -3289845 -3398480 -3481845 -3527301 -3535156 -3515075 -3480629 
3632.115 -3444306 -3415542 -3397822 -3390787 -3390425 -3392003 -3392365 
3635.490 -3390064 -3386414 -3383751 -3384277 -3388847 -3396705 -3406403 
3638.866 -3416068 -3424747 -3432604 -3440394 -3448843 -3457915 -3465837 
3642.241 -3469847 -3467020 -3454990 -3433623 -3404595 -3371981 -3340911 
3645.616 -3316447 -3303031 -3303656 -3319439 -3349492 -3392496 -3445950 
3648.991 -3506496 -3568940 -3626611 -3671000 -3694787 -3693538 -3667320 
3652.367 -3621156 -3563452 -3504820 -3455647 -3424648 -3417449 -3434379 
3655.742 -3470078 -3514056 -3554480 -3581724 -3590662 -3581822 -3559804 
3659.117 -3530587 -3500547 -3473956 -3453872 -3440756 -3433228 -3429053 
3662.492 -3425601 -3420736 -3413142 -3401472 -3384738 -3361099 -3328120 
3665.868 -3283630 -3226440 -3157467 -3080159 -2999086 -2917767 -2834557 
3669.243 -2740170 -2616023 -2438499 -2188414 -1856238 -1444525 -964685 
3672.618 -433673 128148 696671 1233441 1685016 1989444 2088981 1958422 
3676.476 1614238 1105265 489997 -178423 -852893 -1495247 -2071430 -2552848 
3680.333 -2924909 -3188090 -3358435 -3460117 -3518986 -3555433 -3580146 
3683.708 -3596774 -3604726 -3603412 -3595492 -3587474 -3587573 -3603773 
3687.083 -3640772 -3698171 -3769916 -3846805 -3919249 -3980615 -4027923 
3690.459 -4061111 -4081200 -4089472 -4086944 -4075259 -4056483 -4033340 
3693.834 -4009079 -3985638 -3964823 -3946764 -3931201 -3917771 -3906015 
3697.209 -3896065 -3888578 -3884112 -3883751 -3888644 -3899448 -3916950 
3700.584 -3940493 -3968007 -3995849 -4019289 -4033767 -4037049 -4028317 
3703.960 -4010360 -3986558 -3960883 -3935896 -3912944 -3891796 -3871370 
3707.335 -3851009 -3831468 -3814324 -3802894 -3800365 -3809463 -3831107 
3710.710 -3864244 -3906081 -3952149 -3996933 -4034784 -4060849 -4071976 
3714.085 -4067250 -4048211 -4018370 -3982618 -3946305 -3913962 -3888742 
3717.461 -3871502 -3861223 -3855640 -3852750 -3851272 -3851535 -3854162 
3720.836 -3860106 -3868448 -3877807 -3885852 -3890680 -3891961 -3891140 
3724.211 -3891599 -3896000 -3906836 -3923222 -3942398 -3958716 -3966465 
3727.586 -3961277 -3941380 -3908905 -3868415 -3826640 -3790971 -3767124 
3730.962 -3758682 -3765777 -3784828 -3810054 -3836591 -3862963 -3891764 
3734.337 -3928147 -3976872 -4038034 -4106015 -4169816 -4216776 -4238727 
3737.712 -4233806 -4205750 -4161612 -4108016 -4049917 -3989250 -3927425 
3741.087 -3867068 -3814389 -3780131 -3778850 -3823454 -3918493 -4051362 
3744.463 -4191573 -4299721 -4348438 -4333053 -4269143 -4181138 -4093608 
3747.838 -4026676 -3991548 -3991088 -4019027 -4064426 -4114909 -4160988 
3751.213 -4198596 -4225570 -4240073 -4239154 -4220024 -4182746 -4130794 
3754.588 -4071353 -4013544 -3964659 -3930478 -3912583 -3909201 -3916227 
3757.964 -3930183 -3948209 -3968960 -3991122 -4011968 -4026315 -4029203 
3761.339 -4017188 -3990760 -3955367 -3919511 -3892519 -3881025 -3886673 
3764.714 -3904702 -3926637 -3941577 -3942561 -3928344 -3904176 -3878792 
3768.089 -3861190 -3858365 -3872224 -3899513 -3932810 -3963477 -3985015 
3771.465 -3993945 -3990563 -3978153 -3960916 -3942660 -3925619 -3910908 
3774.840 -3897510 -3883587 -3867857 -3849925 -3831764 -3817411 -3810973 
3778.215 -3816130 -3833307 -3858760 -3885557 -3905851 -3914060 -3908675 
3781.590 -3893044 -3873341 -3856264 -3846805 -3846247 -3851994 -3859942 
3784.966 -3865131 -3864802 -3859285 -3851206 -3844605 -3842043 -3844638 
3788.341 -3851469 -3860467 -3869498 -3876920 -3882109 -3884638 -3883849 
3791.716 -3878989 -3869498 -3855377 -3838792 -3823454 -3813699 -3813798 
3795.091 -3824998 -3844868 -3867035 -3882634 -3884014 -3867857 -3836887 
3798.467 -3799018 -3766861 -3753754 -3770507 -3821517 -3901352 -3993386 
3801.842 -4074438 -4122950 -4128956 -4094329 -4031961 -3958519 -3892847 
3805.217 -3849465 -3837150 -3856034 -3896722 -3943744 -3979433 -3993485 
3808.592 -3983702 -3955268 -3916490 -3875016 -3835935 -3799970 -3765711 
3811.968 -3731219 -3696429 -3664298 -3641035 -3634102 -3650268 -3690877 
3815.343 -3750699 -3816064 -3870090 -3899612 -3899086 -3873636 -3835114 
3818.718 -3799642 -3782496 -3794617 -3840303 -3913042 -3995652 -4065149 
3822.093 -4103520 -4102503 -4066232 -4007340 -3941281 -3882831 -3841354 
3825.469 -3820991 -3819415 -3829399 -3840763 -3845590 -3839416 -3823060 
3828.844 -3800562 -3777931 -3760423 -3751192 -3750470 -3756284 -3764989 
3832.219 -3772741 -3776255 -3774022 -3765350 -3751652 -3735129 -3720149 
3835.594 -3711574 -3714695 -3733092 -3767452 -3814389 -3866674 -3915242 
3838.969 -3952412 -3973655 -3978612 -3971193 -3956352 -3939672 -3925454 
3842.345 -3916227 -3912550 -3913010 -3915144 -3915768 -3911663 -3900695 
3845.720 -3881584 -3854392 -3820531 -3781544 -3738972 -3694064 -3647245 
3849.095 -3598844 -3550668 -3505937 -3471984 -3459000 -3478459 -3541072 
3852.470 -3649545 -3793697 -3947749 -4080215 -4166797 -4198859 -4183829 
3855.846 -4136735 -4073257 -4004877 -3939015 -3879252 -3826804 -3782102 
3859.221 -3745411 -3716667 -3695805 -3681448 -3672347 -3666565 -3663378 
3862.596 -3664199 -3671362 -3687854 -3713710 -3745706 -3776190 -3796522 
3865.971 -3800266 -3786405 -3760751 -3734669 -3720346 -3728263 -3762131 
3869.347 -3816130 -3875377 -3921350 -3941281 -3932284 -3902337 -3864211 
3872.722 -3831632 -3813798 -3812681 -3823159 -3835376 -3839416 -3829038 
3876.097 -3803583 -3768273 -3731318 -3701292 -3685226 -3687197 -3707566 
3879.472 -3742421 -3784303 -3823914 -3852356 -3863390 -3855279 -3830811 
3882.848 -3797146 -3762755 -3737231 -3727573 -3736377 -3759601 -3787587 
3886.223 -3808641 -3812780 -3796817 -3764332 -3724091 -3686475 -3660815 
3889.598 -3653554 -3665940 -3694261 -3730365 -3764956 -3790412 -3802532 
3892.973 -3801284 -3788967 -3768766 -3743243 -3714301 -3683682 -3653094 
3896.349 -3625230 -3602985 -3589840 -3588099 -3597858 -3617739 -3643237 
3899.724 -3669522 -3691863 -3708289 -3718999 -3726719 -3735392 -3747644 
3903.099 -3764890 -3784664 -3803649 -3816491 -3819415 -3810941 -3791989 
3906.474 -3765810 -3735917 -3706088 -3678196 -3653159 -3630291 -3608637 
3909.850 -3587212 -3565720 -3544752 -3525132 -3508008 -3494072 -3483751 
3913.225 -3476980 -3473726 -3474515 -3480004 -3490621 -3506135 -3525197 
3916.600 -3545640 -3564471 -3579325 -3588723 -3592404 -3591352 -3586554 
3919.975 -3579160 -3569466 -3557898 -3545180 -3532658 -3522338 -3516619 
3923.351 -3517145 -3523916 -3534991 -3547020 -3555893 -3558818 -3555072 
3926.726 -3545837 -3533973 -3522535 -3513891 -3508698 -3506923 -3507219 
3930.101 -3508665 -3511032 -3514615 -3520169 -3527498 -3535682 -3542353 
3933.476 -3545278 -3542353 -3533414 -3519610 -3503538 -3488057 -3475632 
3936.852 -3467514 -3463569 -3462451 -3462649 -3462813 -3462583 -3463043 
3940.227 -3465673 -3472346 -3484277 -3501369 -3521911 -3542353 -3558786 
3943.602 -3567396 -3565983 -3554480 -3535156 -3511985 -3489799 -3472970 
3946.977 -3463931 -3463273 -3468861 -3477473 -3485822 -3490851 -3491574 
3950.353 -3488222 -3482009 -3474449 -3466659 -3458934 -3451670 -3444832 
3953.728 -3438521 -3433162 -3429119 -3426127 -3423958 -3421492 -3418073 
3957.103 -3412879 -3406206 -3398907 -3392003 -3386710 -3383784 -3383587 
3960.478 -3385658 -3389669 -3395094 -3400913 -3406140 -3409625 -3410052 
3963.854 -3406403 -3398381 -3386611 -3372277 -3357548 -3344100 -3332888 
3967.229 -3324306 -3317466 -3311515 -3305398 -3298559 -3291620 -3284846 
3970.604 -3278697 -3272876 -3267055 -3260380 -3252750 -3244397 -3236241 
3973.979 -3229564 -3225026 -3222921 -3222197 -3221342 -3218777 -3213153 
3977.354 -3204338 -3193056 -3180426 -3167894 -3156282 -3146249 -3138026 
3980.730 -3131743 -3127762 -3126413 -3128091 -3133256 -3141513 -3152072 
3984.105 -3164177 -3176216 -3186741 -3194701 -3199174 -3200161 -3197694 
3987.480 -3193122 -3187465 -3182367 -3179143 -3178419 -3180130 -3183616 
3990.855 -3187662 -3191379 -3194142 -3196773 -3199766 -3204831 -3212659 
3994.231 -3223940 -3238247 -3254526 -3271396 -3287214 -3300894 -3311087 
3997.606 -3317466 -3319472 -3317565 -3312436 -3305398 -3297704 -3290864 
##END=
