
##TITLE=1675_2_b
##JCAMP-DX=5.01  $$ Nicolet v. 1
##DATATYPE=INFRARED SPECTRUM
##ORIGIN=UniL
##OWNER=Nicolet
##LONGDATE=2011/09/16
##TIME=11:40:38
##SPECTROMETER/DATA SYSTEM=Nicolet iS5
##DATA PROCESSING=
Ratio against background
%Transmittance->Absorbance
Truncated
ElementMultiply or ElementDivide
##COMMENTS=
Number of sample scans: 32
Collection length: 51.15 sec
Sample gain: 2.0
Background collected on: Ven Sep 16 11:34:41 2011 (GMT+02:00);
Number of background scans: 32
Background gain: 2.0
Sample spacing:  1.000
Number of scan points: 12415
Resolution points: 8192
Number of FFT points: 65536
Apodization: N-B fort;
Phase correction: Mertz;
Laser frequency: 15798.0 cm-1
Number of rejected sample scans: 0
Number of rejected background scans: 0
Bench serial number: ASB1000141;
##RESOLUTION=4.000
##XUNITS=1/CM
##YUNITS=ABSORBANCE
##FIRSTX=649.893372
##LASTX=4000.122314
##FIRSTY=0.079653
##MAXX=4000.122314
##MINX=649.893372
##MAXY=0.261911
##MINY=-0.001289
##XFACTOR=1.000000
##YFACTOR=1.000000E-009
##NPOINTS=6950
##DELTAX=0.482117
##ZPD=6100
##XYDATA=(X++(Y..Y))
649.893 79652656 79354744 79094368 78917264 78841496 78860368 78953384 
653.268 79106008 79317672 79605928 79991560 80486872 81085296 81763528 
656.643 82493024 83255976 84054648 84908936 85844152 86874344 87995928 
660.018 89191272 90442512 91746168 93120816 94596056 96199128 97932080 
663.393 99766928 101649512 103523976 105348408 107092416 108734664 110236672 
666.767 111519176 112469680 112982160 113026648 112675056 112058280 
669.660 111286560 110407800 109414384 108275120 106966936 105499368 
672.553 103921312 102304880 100728464 99246896 97878648 96614848 95433504 
675.928 94318640 93266720 92286376 91387368 90569976 89821128 89118368 
679.302 88436560 87759792 87082744 86408808 85742864 85085072 84428024 
682.677 83761656 83078488 82380296 81677864 80989536 80331240 79711848 
686.052 79130824 78581736 78057056 77553768 77073224 76619856 76195296 
689.427 75794560 75405824 75013560 74605328 74175552 73727664 73270792 
692.802 72815448 72369896 71937200 71519200 71119896 70747984 70418864 
696.177 70151288 69961328 69859896 69849240 69924736 70077376 70298712 
699.551 70582088 70922840 71316136 71754904 72227600 72721184 73222312 
702.926 73721616 74215256 74703352 75187464 75666560 76134688 76582896 
706.301 77002960 77391672 77754376 78102824 78453184 78819600 79210616 
709.676 79630640 80083824 80580400 81142608 81804128 82602536 83569952 
713.051 84714584 86009640 87384096 88736168 89941224 90876336 91454368 
716.425 91634400 91438496 90944304 90280264 89602784 89061496 88793120 
719.800 88893904 89406480 90319792 91564720 93023152 94525328 95879816 
723.175 96897672 97409960 97316096 96601152 95348856 93720384 91927104 
726.550 90188096 88667528 87465312 86604928 86051328 85736000 85586592 
729.925 85549672 85591072 85693456 85846576 86036016 86242888 86448472 
733.300 86640080 86815992 86984440 87157536 87342848 87540000 87740736 
736.674 87935792 88121072 88301240 88487536 88691464 88917696 89160472 
740.049 89405592 89637032 89845456 90031680 90205504 90378912 90559728 
743.424 90747520 90935032 91114000 91282088 91445648 91617424 91809976 
746.799 92028128 92266752 92513136 92753544 92980832 93197432 93413248 
750.174 93638368 93875744 94118056 94350800 94560592 94742008 94901768 
753.548 95054912 95217472 95397760 95592328 95788216 95970680 96132264 
756.923 96275960 96413408 96558024 96717296 96889720 97066888 97240072 
760.298 97408344 97579632 97768120 97985424 98234408 98506440 98787800 
763.673 99067336 99346304 99640544 99977224 100386272 100889320 101497960 
767.048 102213136 103029792 103940120 104935168 106004608 107140376 
769.940 108348128 109665448 111184120 113044744 115417592 118450760 
772.833 122184112 126479016 130957592 135066560 138116400 139456064 
775.726 138688528 135755312 130992216 124991088 118492192 112169928 
778.619 106486016 101692768 97809992 94706480 92172224 90004856 88054232 
781.993 86228136 84492584 82847024 81306152 79888440 78614416 77507464 
785.368 76591072 75887008 75410272 75165168 75149408 75358912 75796064 
788.743 76474304 77417840 78654328 80211064 82109288 84364368 86993392 
792.118 90018312 93466864 97365640 101723760 106513664 111648288 116979760 
795.493 122291592 127296760 131683200 135114080 137262464 137878944 
798.385 136809744 134047240 129736168 124168816 117740728 110865712 
801.278 103965296 97392216 91392200 86120528 81623640 77864688 74749160 
804.653 72161480 69994216 68163696 66627912 65379544 64433256 63804440 
808.028 63490696 63455076 63626744 63900888 64154236 64275668 64171716 
811.402 63785404 63099592 62129112 60912696 59499604 57947908 56316708 
814.777 54661208 53036512 51489048 50054740 48758552 47611908 46615036 
818.152 45761984 45044076 44454592 43989604 43648152 43430144 43334872 
821.527 43361200 43508628 43780360 44184524 44735076 45449344 46342444 
824.902 47423272 48686752 50110216 51646052 53221008 54740164 56081912 
828.277 57120056 57739636 57851256 57420372 56473392 55101020 53433724 
831.651 51628516 49844044 48206212 46807560 45696088 44875440 44313008 
835.026 43948060 43707436 43507784 43271908 42942472 42484540 41894872 
838.401 41198004 40441076 39678320 38958140 38317352 37772924 37326112 
841.776 36967528 36685272 36468748 36310468 36205220 36147240 36128624 
845.151 36140868 36176700 36232664 36310112 36413688 36548252 36715488 
848.525 36912872 37134564 37375004 37630824 37903824 38198848 38523072 
851.900 38881852 39278036 39712152 40185016 40698492 41258156 41870972 
855.275 42544760 43286180 44100272 44992140 45970264 47046180 48237168 
858.650 49563104 51043708 52697720 54541648 56588992 58852200 61337440 
862.025 64039564 66929080 69944976 72989136 75919248 78573952 80785600 
865.400 82397440 83300368 83439920 82829424 81545840 79727768 77559480 
868.774 75233288 72948376 70881216 69161784 67882536 67086280 66771820 
872.149 66898816 67395776 68169696 69102344 70065736 70930448 71565800 
875.524 71866936 71763112 71225992 70274712 68969544 67403672 65678812 
878.899 63900664 62166464 60551628 59115904 57900808 56929624 56213248 
882.274 55749664 55525724 55517668 55692860 56014168 56438148 56922296 
885.648 57429036 57927124 58399780 58847456 59290396 59765032 60318116 
889.023 60998976 61844620 62874624 64086184 65457552 66953012 68532192 
892.398 70160592 71809904 73459576 75094496 76698200 78250152 79723792 
895.773 81081064 82272720 83239440 83906136 84194840 84034184 83368408 
899.148 82177184 80482208 78350912 75883888 73206072 70454832 67752240 
902.523 65206176 62901048 60890244 59205248 57856100 56835880 56125464 
905.897 55697832 55524332 55576412 55831648 56276348 56903600 57712460 
909.272 58704060 59878696 61234308 62766260 64465916 66321036 68310984 
912.647 70402856 72552064 74701656 76787912 78757312 80572744 82225712 
916.022 83738112 85162224 86571888 88047008 89671736 91517024 93630072 
919.397 96028344 98687432 101539024 104463072 107308336 109913752 112128664 
922.771 113860032 115091832 115903360 116454264 116973680 117734080 
925.664 118988000 120959424 123802096 127570200 132204232 137509248 
928.557 143174624 148740768 153647568 157319648 159177728 158776704 
931.450 155888112 150535248 143016896 133846032 123703936 113281528 
934.342 103200288 93975736 85931616 79238368 73937704 69976424 67252632 
937.717 65647328 65052232 65362216 66465160 68232496 70481680 72973968 
941.092 75440944 77579600 79116104 79856464 79700856 78674656 76908496 
944.467 74621152 72059224 69455584 67009256 64846680 63031012 61572532 
947.841 60444988 59603772 58998760 58586572 58328716 58192240 58150528 
951.216 58179012 58256796 58368780 58504480 58659116 58831752 59023580 
954.591 59235856 59468636 59721536 59993760 60285492 60597800 60932328 
957.966 61289896 61669984 62069972 62486516 62916288 63357720 63811384 
961.341 64279660 64765172 65269672 65792992 66333472 66888884 67457616 
964.716 68040008 68637920 69253304 69887680 70540424 71209320 71891808 
968.090 72586096 73292168 74012192 74749200 75505632 76282464 77079480 
971.465 77895920 78732408 79591560 80477976 81396864 82352296 83345968 
974.840 84377328 85444824 86547456 87686400 88864952 90087416 91358344 
978.215 92681432 94059960 95498888 97005952 98592584 100273768 102064032 
981.590 103975400 106014888 108182752 110473432 112874512 115366808 
984.482 117919616 120484840 122998728 125374648 127510208 129306136 
987.375 130669208 131533368 131870136 131690560 131045224 130014328 
990.268 128708440 127250608 125764296 124372600 123175744 122246984 
993.160 121632952 121349944 121392224 121740032 122369712 123257944 
996.053 124385264 125736672 127297608 129051968 130983528 133074120 
998.946 135306288 137663840 140125968 142664368 145239856 147795840 
1001.839 150265120 152579664 154674528 156504192 158047136 159307280 
1004.731 160312416 161111104 161771824 162371968 162997600 163737472 
1007.624 164665680 165841472 167300512 169053392 171091472 173393744 
1010.517 175937872 178702848 181671680 184829824 188159216 191637840 
1013.409 195241392 198944496 202725424 206564800 210435648 214295472 
1016.302 218075456 221670416 224956080 227797296 230069696 231690896 
1019.195 232629184 232915856 232636656 231934416 230994832 230015088 
1022.087 229207696 228765584 228832800 229505424 230812032 232721584 
1024.980 235151024 237987392 241108128 244380544 247680176 250885792 
1027.873 253869568 256512160 258705056 260360592 261431552 261910624 
1030.766 261828960 261241280 260218288 258836480 257167600 255284464 
1033.659 253253408 251121584 248912096 246608544 244156128 241460544 
1036.552 238410832 234903104 230850112 226204592 220959216 215143232 
1039.446 208817248 202067504 195007600 187762640 180468768 173263024 
1042.339 166257344 159540992 153171792 147175568 141559344 136319616 
1045.232 131450848 126951840 122825608 119076816 115709864 112725696 
1048.125 110120568 107886712 106012648 104483968 103281688 102383096 
1051.018 101761824 101386928 101228272 101256768 101445136 101769824 
1053.911 102205344 102720072 103275936 103822656 104300592 104651024 
1056.804 104815248 104745184 104409760 103794080 102904344 101766776 
1059.697 100431488 98968120 97459640 96003256 94692592 93610216 92826168 
1063.072 92385968 92313712 92612488 93267256 94246232 95501328 96973880 
1066.448 98590880 100268840 101927248 103486256 104878264 106055792 
1069.341 106986224 107652464 108048704 108175648 108039952 107652464 
1072.234 107031536 106201280 105191256 104038888 102785936 101479960 
1075.127 100178232 98940488 97829960 96908688 96224432 95810112 95677152 
1078.502 95816024 96197680 96778616 97509160 98330640 99179736 99992952 
1081.877 100701392 101242664 101571176 101666096 101543720 101258896 
1084.770 100907880 100610408 100497712 100705824 101347888 102510128 
1087.663 104242032 106544960 109366856 112593376 116063488 119560984 
1090.556 122836112 125652712 127793432 129102024 129506368 129016608 
1093.449 127723040 125769464 123345792 120649824 117860152 115135888 
1096.343 112588096 110280408 108233552 106428856 104817136 103325904 
1099.236 101875472 100382560 98767416 96969328 94946632 92685656 90203056 
1102.611 87546040 84787112 82008704 79301368 76749088 74418256 72363328 
1105.986 70620328 69209736 68141328 67415392 67025460 66959000 67198472 
1109.361 67721760 68499360 69498280 70678384 71990664 73380976 74784936 
1112.737 76128808 77339920 78345744 79084272 79514352 79615120 79388920 
1116.112 78857024 78056704 77034928 75840328 74525200 73136624 71714448 
1119.487 70292320 68894560 67538240 66236512 64999356 63835828 62753624 
1122.862 61757256 60845604 60010576 59238436 58511724 57815596 57143712 
1126.238 56502148 55911464 55401336 55008864 54768620 54705100 54830416 
1129.613 55140480 55617196 56228184 56932344 57682640 58425556 59110020 
1132.988 59690972 60134120 60424768 60569416 60597000 60550832 60484596 
1136.363 60452680 60497808 60648888 60915440 61287072 61734108 62211044 
1139.739 62665352 63036524 63267180 63310340 63129248 62703856 62029032 
1143.114 61112808 59973372 58636548 57135696 55506820 53789292 52024700 
1146.489 50250360 48500428 46802836 45176452 43633316 42178924 40814444 
1149.864 39539332 38353036 37256212 36250780 35339284 34524324 33808264 
1153.240 33192836 32679900 32271024 31967018 31767766 31671132 31673272 
1156.615 31769194 31954676 32227558 32588672 33041466 33590516 34239852 
1159.990 34991460 35843784 36792296 37828444 38941140 40114000 41325496 
1163.365 42549552 43753276 44900900 45957448 46888316 47664412 48263384 
1166.740 48668476 48871112 48870332 48673444 48294896 47755348 47080264 
1170.116 46295036 45424952 44494052 43522616 42530400 41536620 40559036 
1173.491 39616280 38725556 37900964 37154272 36493468 35923284 35447200 
1176.866 35067676 34787552 34609896 34537132 34570892 34712064 34960792 
1180.241 35318584 35788444 36375388 37085740 37925660 38899900 40011532 
1183.617 41262528 42654776 44190904 45874064 47706348 49685796 51803748 
1186.992 54042956 56374048 58755456 61135884 63448056 65616728 67563712 
1190.367 69209736 70491856 71370536 71836520 71912840 71650672 71123056 
1193.742 70405968 69573832 68688960 67791816 66904456 66030980 65162868 
1197.118 64284736 63380032 62436664 61447052 60409112 59324424 58195720 
1200.493 57025168 55813980 54563324 53276932 51962736 50635608 49315192 
1203.868 48025240 46791216 45634360 44571040 43610564 42754652 41999464 
1207.243 41337336 40759556 40256844 39820436 39442408 39115100 38831812 
1210.619 38587812 38381088 38213392 38089776 38018088 38007060 38064996 
1213.994 38199172 38415404 38718128 39111008 39596388 40174440 40843016 
1217.369 41597180 42430212 43334688 44304820 45336596 46427904 47577968 
1220.744 48785836 50050464 51371852 52752752 54200628 55726992 57348564 
1224.120 59081928 60941592 62937200 65070368 67334296 69711416 72174000 
1227.495 74681120 77175088 79587984 81838336 83837288 85502752 86759544 
1230.870 87550096 87842616 87633848 86955256 85871040 84484256 82925944 
1234.245 81338240 79877488 78689392 77898304 77613000 77914272 78858888 
1237.621 80486592 82818080 85857480 89587264 93967432 98925296 104347944 
1240.996 110094952 115985888 121807968 127342864 132353592 136610656 
1243.889 139923568 142142512 143189488 143064144 141843248 139666928 
1246.782 136713040 133197736 129341288 125352624 121429696 117721136 
1249.675 114318064 111243576 108447352 105815296 103186456 100399632 
1252.568 97313944 93843088 89976160 85774752 81363288 76891848 72526416 
1255.943 68413872 64656840 61318092 58411304 55911048 53761876 51892012 
1259.319 50226776 48690384 47219796 45767836 44301888 42807920 41285776 
1262.694 39745992 38204092 36677992 35185260 33740040 32355152 31041820 
1266.069 29808880 28663488 27609936 26648198 25774614 24982968 24266478 
1269.444 23619492 23038764 22522564 22069618 21677430 21341800 21057274 
1272.820 20818922 20623332 20468984 20355248 20280668 20241230 20230226 
1276.195 20239286 20259734 20285286 20312504 20340110 20368688 20398516 
1279.570 20429496 20461692 20494826 20528798 20562078 20589768 20602276 
1282.945 20586016 20524874 20405602 20222310 19979696 19692770 19384722 
1286.321 19083264 18812946 18593942 18440420 18360326 18359116 18440144 
1289.696 18605806 18856614 19189948 19600034 20076644 20606826 21175300 
1293.071 21762528 22345982 22900286 23396512 23808036 24115176 24308246 
1296.446 24391722 24381980 24305792 24192030 24068558 23959232 23880320 
1299.822 23843950 23858020 23925972 24046704 24212208 24408616 24614722 
1303.197 24806858 24962648 25063206 25096308 25056220 24941872 24756378 
1306.572 24505538 24199316 23851474 23479674 23104976 22747050 22422382 
1309.947 22142030 21910678 21729156 21597190 21515502 21486708 21514352 
1313.323 21600742 21744936 21943194 22190568 22482852 22818246 23198010 
1316.698 23624284 24097802 24616474 25175302 25767896 26388870 27034780 
1320.073 27703866 28393864 29098600 29807142 30502378 31163054 31768944 
1323.448 32302252 32752570 33119418 33414104 33660980 33893800 34156360 
1326.823 34494656 34946212 35535400 36262164 37101000 38000552 38896240 
1330.199 39723592 40427224 40975648 41363868 41611764 41756376 41845356 
1333.574 41929936 42054868 42259224 42572244 43011316 43582396 44279360 
1336.949 45086860 45982748 46942616 47945608 48972912 50009824 51044192 
1340.324 52063884 53056920 54011140 54913504 55749364 56500716 57141784 
1343.700 57641928 57965252 58074504 57940640 57545188 56884752 55969352 
1347.075 54821396 53471908 51954748 50309284 48577868 46803872 45037680 
1350.450 43332784 41741092 40314536 39095380 38112312 37381504 36905588 
1353.825 36677056 36679760 36890688 37278128 37798008 38399260 39023240 
1357.201 39609852 40109640 40483996 40710572 40783108 40709480 40510400 
1360.576 40215476 39868556 39525068 39246228 39098208 39136312 39392812 
1363.951 39875568 40567768 41437352 42444164 43548000 44707676 45874248 
1367.326 46993416 48001004 48826024 49405884 49690028 49649724 49280936 
1370.702 48603436 47658420 46500624 45203252 43852640 42538328 41355120 
1374.077 40382928 39672476 39240716 39070472 39124892 39361792 39750352 
1377.452 40277416 40948340 41782788 42810044 44066200 45586884 47405608 
1380.827 49542340 51987612 54681272 57493820 60241604 62683724 64564676 
1384.203 65666324 65815316 64925404 63013232 60223708 56822736 53148428 
1387.578 49568900 46372820 43724184 41665812 40144164 39058872 38295132 
1390.953 37754272 37355360 37034784 36747584 36459704 36148860 35806508 
1394.328 35436700 35053668 34675028 34315076 33980216 33669356 33378284 
1397.704 33104182 32848726 32619570 32427196 32280910 32185520 32139492 
1401.079 32137566 32172780 32240332 32339018 32472968 32651004 32885720 
1404.454 33190868 33576560 34047048 34598412 35220508 35899456 36621824 
1407.829 37378108 38162412 38971984 39805036 40658612 41528524 42409644 
1411.205 43296908 44185332 45067600 45930080 46752576 47508504 48169636 
1414.580 48716328 49142664 49460424 49695008 49880872 50055220 50251216 
1417.955 50499844 50828992 51259568 51805356 52466072 53225952 54058156 
1421.330 54931704 55820612 56707224 57589564 58482152 59412064 60408964 
1424.706 61493432 62669940 63926264 65240756 66590636 67960568 69339352 
1428.081 70715936 72074240 73386824 74617056 75728960 76696224 77513728 
1431.456 78199416 78792824 79344040 79901536 80510328 81209392 82038880 
1434.831 83051648 84315408 85904360 87881104 90258888 92992816 95994904 
1438.207 99161000 102388424 105568528 108587768 111297560 113522608 
1441.100 115098608 115879656 115779072 114781376 112934544 110335768 
1443.993 107104168 103378624 99292744 94962504 90500632 86013080 81616120 
1447.368 77456376 73689304 70454632 67843224 65871924 64496092 63637452 
1450.743 63221872 63194700 63524024 64190380 65167332 66411800 67873904 
1454.118 69497504 71237192 73068208 74975016 76945712 78954576 80962784 
1457.494 82921936 84791952 86559832 88229256 89813800 91330000 92794368 
1460.869 94219920 95610000 96957568 98233040 99380712 100331288 101012144 
1464.244 101380352 101446192 101279264 100981664 100642984 100321848 
1467.137 100034000 99765848 99489856 99173952 98783136 98264240 97538608 
1470.512 96497856 95013800 92988144 90406408 87380008 84119152 80857000 
1473.888 77764920 74914528 72307240 69923648 67763280 65863400 64286196 
1477.263 63084608 62286376 61881068 61834264 62108200 62681580 63557552 
1480.638 64758940 66312820 68234008 70516176 73134864 76060192 79267880 
1484.013 82750960 86513568 90554824 94854944 99346136 103892352 108301488 
1487.389 112311520 115616192 117914360 118928560 118477216 116533168 
1490.282 113254344 108962216 104044944 98880984 93738968 88756328 83980384 
1493.657 79390984 74951464 70654208 66533856 62674880 59191996 56188280 
1497.032 53719392 51779784 50323312 49284756 48604996 48243016 48170520 
1500.407 48365556 48806376 49465996 50312860 51313752 52426256 53599008 
1503.783 54768168 55833948 56659504 57069264 56868168 55921940 54236708 
1507.158 51982792 49407592 46719776 44032392 41377756 38756052 36172988 
1510.533 33650092 31234826 28985096 26945860 25145388 23585660 22248562 
1513.908 21107360 20134010 19304108 18595430 17988982 17470744 17032474 
1517.284 16674384 16400985 16214699 16109945 16069509 16066311 16072914 
1520.659 16072020 16068924 16090758 16174115 16342597 16594615 16909302 
1524.034 17258036 17618818 17982386 18356246 18758626 19210902 19724944 
1527.409 20299172 20922106 21580302 22265512 22977204 23722152 24509782 
1530.785 25347242 26238550 27183612 28178782 29218760 30295448 31397324 
1534.160 32507818 33609172 34683032 35713684 36684372 37578288 38380688 
1537.535 39074716 39646120 40083948 40382640 40539720 40556196 40441880 
1540.910 40215332 39903060 39532980 39122752 38674880 38176776 37610916 
1544.286 36967888 36257840 35512024 34773264 34076756 33433892 32830824 
1547.661 32235942 31616680 30954458 30257932 29560286 28908204 28337556 
1551.036 27858756 27457108 27104676 26775928 26459682 26164114 25910422 
1554.411 25719310 25597196 25529546 25483092 25414864 25274960 25011608 
1557.787 24583758 23980136 23247436 22486656 21809770 21281456 20906250 
1561.162 20651268 20473084 20332712 20198984 20051694 19884438 19705146 
1564.537 19533624 19393418 19302722 19264826 19268498 19292468 19315746 
1567.912 19324026 19315642 19301856 19302686 19337224 19414344 19531822 
1571.288 19679490 19845938 20021610 20198430 20369138 20523414 20649494 
1574.663 20736930 20783606 20801890 20818402 20866164 20967274 21125380 
1578.038 21329028 21561566 21809246 22066410 22336040 22627898 22952786 
1581.413 23318086 23724812 24166246 24630256 25099432 25553020 25967858 
1584.789 26316556 26571930 26711158 26719828 26598630 26365316 26057180 
1588.164 25724126 25423892 25216384 25149426 25258734 25563212 26062634 
1591.539 26735190 27533462 28388700 29207066 29881036 30311898 30415124 
1594.914 30143274 29495352 28517368 27292060 25916402 24491728 23099876 
1598.290 21797994 20624722 19599756 18730396 18014814 17444390 17005770 
1601.665 16683921 16467502 16349958 16330693 16411755 16593788 16872200 
1605.040 17235212 17663194 18129530 18604248 19050582 19427754 19695542 
1608.415 19814032 19752268 19494114 19041614 18417742 17664194 16838960 
1611.791 16000027 15196886 14463016 13809115 13229701 12709294 12230370 
1615.166 11779516 11352665 10956917 10607295 10320382 10106535 9966594 
1618.541 9892488 9870692 9884183 9914793 9946015 9963746 9961000 9939540 
1622.398 9910928 9890929 9893809 9926014 9983953 10058312 10139230 10221452 
1626.256 10304470 10390896 10483247 10581831 10683968 10785756 10885461 
1629.631 10984544 11087252 11197770 11317057 11441172 11561104 11665004 
1633.006 11741626 11782376 11783976 11750204 11692438 11625933 11566957 
1636.382 11527282 11510916 11515952 11535958 11563180 11587817 11600646 
1639.757 11594418 11566242 11519422 11461924 11404128 11353447 11311411 
1643.132 11271725 11222420 11149493 11040483 10890014 10703156 10496112 
1646.507 10292696 10116811 9986394 9908251 9879844 9892386 9933980 9989784 
1650.365 10039899 10060482 10021012 9894047 9672414 9391163 9125897 8948150 
1654.222 8886020 8917642 9002203 9100789 9188738 9254803 9297115 9319457 
1658.080 9327379 9324501 9311096 9284184 9239639 9174321 9087661 8982246 
1661.937 8863260 8738020 8615045 8502175 8406157 8330965 8276860 8239882 
1665.794 8211956 8182175 8137541 8066446 7962358 7826615 7669262 7506808 
1669.652 7357592 7234334 7141695 7076859 7032709 7000214 6969573 6931595 
1673.509 6877091 6799472 6698109 6581733 6467473 6373652 6312024 6282574 
1677.367 6275145 6274506 6266068 6242202 6202741 6155353 6110524 6075477 
1681.224 6048530 6018090 5963802 5865388 5711396 5512725 5303445 5128127 
1685.082 5016864 4970442 4968532 4984452 4997825 4996518 4977011 4941787 
1688.939 4896145 4846118 4796733 4752915 4719250 4699420 4694798 4702669 
1692.796 4714929 4717776 4695770 4635752 4535094 4406643 4279033 4183141 
1696.654 4134802 4128848 4142362 4147346 4116371 4032655 3897833 3738221 
1700.511 3594904 3501267 3467065 3478788 3514094 3551541 3577130 3584213 
1704.369 3571652 3543991 3509017 3476216 3452970 3443485 3448295 3464660 
1708.226 3488441 3514595 3539548 3561429 3581039 3600650 3623437 3651002 
1712.083 3683682 3719272 3754965 3788488 3818337 3844243 3865471 3879445 
1715.941 3881618 3867076 3833747 3787051 3739658 3707508 3702161 3726557 
1719.798 3774751 3835752 3897465 3950225 3989682 4016101 4033023 4045397 
1723.656 4056600 4067571 4076735 4082020 4082387 4078240 4070915 4061216 
1727.513 4048574 4030983 4006703 3976072 3942367 3910905 3885730 3866474 
1731.371 3846784 3813323 3749717 3643250 3493385 3319063 3153522 3030851 
1735.228 2967260 2957052 2980171 3014435 3041895 3050504 3036357 3001590 
1739.085 2954316 2904812 2861918 2832068 2816827 2815993 2827699 2849944 
1742.943 2880296 2915987 2954716 2994584 3035322 3077332 3121683 3168074 
1746.800 3215171 3259903 3298930 3330115 3353287 3370450 3384609 3398935 
1750.658 3415532 3435303 3458514 3485602 3516700 3551240 3586752 3618592 
1754.515 3639675 3643250 3624840 3584848 3529493 3469570 3415265 3371619 
1758.373 3337126 3304072 3263342 3207227 3133130 3045065 2952948 2868556 
1762.230 2801453 2756302 2732060 2724392 2727659 2737129 2748466 2757869 
1766.087 2761670 2757135 2743797 2724492 2704520 2689950 2684016 2684916 
1769.945 2686116 2679182 2656612 2617475 2568777 2525216 2501387 2505820 
1773.802 2537214 2586776 2643777 2699519 2750066 2796451 2841240 2886867 
1777.660 2932432 2973765 3005727 3024211 3029316 3025045 3018940 3017672 
1781.517 3024812 3038926 3055710 3070625 3080836 3087077 3092283 3100725 
1785.375 3114508 3133331 3154457 3174683 3191872 3205191 3214804 3220379 
1789.232 3219410 3208061 3182026 3138837 3079835 3012066 2945843 2891370 
1793.089 2854080 2833602 2824431 2819495 2813092 2802153 2785980 2765005 
1796.947 2739996 2710655 2677215 2639910 2601042 2563944 2532881 2510819 
1800.804 2498321 2493189 2490990 2488491 2483825 2477527 2471496 2467963 
1804.662 2467963 2471062 2476061 2481959 2488757 2497088 2507719 2520583 
1808.519 2533781 2544379 2549845 2548945 2543579 2537347 2535147 2539947 
1812.376 2552345 2570643 2592075 2614308 2637343 2663146 2694385 2733261 
1816.234 2779544 2830968 2883198 2932532 2976301 3013635 3045099 3071159 
1820.091 3092049 3107033 3115142 3116110 3110036 3097855 3080469 3058779 
1823.949 3033654 3006762 2980938 2960121 2947577 2944775 2949579 2956418 
1827.806 2957619 2946543 2920423 2883298 2845776 2820629 2818828 2844575 
1831.664 2893438 2955717 3020441 3079301 3128124 3167473 3200718 3231861 
1835.521 3264410 3299732 3338929 3383273 3435403 3498662 3575894 3667241 
1839.378 3770072 3879111 3988211 4091686 4186554 4271705 4348339 4419095 
1843.236 4488356 4561914 4646000 4747488 4870041 5013713 5173761 5341449 
1847.093 5506215 5657180 5787042 5892155 5973477 6034418 6078635 6107533 
1850.951 6119664 6111834 6081189 6027598 5954463 5867437 5772301 5672856 
1854.808 5569609 5460849 5344133 5219064 5087930 4955528 4826651 4704612 
1858.666 4589706 4480522 4374946 4272307 4174343 4083892 4003928 3935112 
1862.523 3876002 3823485 3775319 3731069 3692170 3661093 3638773 3623169 
1866.380 3609671 3591964 3566373 3532867 3497760 3470238 3458548 3466898 
1870.238 3492549 3528658 3566874 3600951 3628749 3650935 3669781 3686790 
1874.095 3701894 3712822 3716865 3712120 3698385 3676965 3649432 3616821 
1877.953 3579435 3536542 3488341 3436305 3383407 3332552 3285342 3241509 
1881.810 3198081 3151686 3099791 3043197 2984942 2929497 2880596 2839772 
1885.667 2805355 2774042 2742964 2711388 2680915 2655011 2636676 2627509 
1889.525 2626409 2631609 2640910 2653545 2670514 2692551 2719057 2747999 
1893.382 2775609 2798952 2817261 2833202 2851946 2878262 2914786 2959754 
1897.240 3008630 3055910 3098456 3136601 3173748 3214337 3260504 3311117 
1901.097 3361535 3406182 3441047 3466096 3485201 3503038 3523781 3547432 
1904.955 3571384 3591229 3603323 3607800 3607266 3606364 3608168 3613179 
1908.812 3618592 3620563 3615919 3604326 3588757 3572787 3559491 3549336 
1912.669 3540483 3530662 3518537 3504975 3492048 3481560 3472843 3461754 
1916.527 3442951 3411425 3366577 3312919 3258668 3211299 3174349 3145011 
1920.384 3116477 3081103 3034822 2978937 2920524 2868556 2829467 2804788 
1924.242 2789881 2778643 2765938 2751567 2740196 2737762 2748699 2772341 
1928.099 2802654 2831034 2850511 2857749 2854847 2846576 2837771 2830101 
1931.957 2821763 2809190 2790015 2765538 2739863 2718190 2704153 2696752 
1935.814 2691617 2683416 2669047 2650478 2633409 2624642 2628442 2643077 
1939.671 2662346 2678181 2684383 2680349 2671347 2665513 2669380 2684616 
1943.529 2707054 2730027 2747932 2759870 2769640 2783612 2806556 2838605 
1947.386 2875293 2909015 2933633 2946643 2949846 2947978 2945142 2943507 
1951.244 2941406 2937136 2930264 2923659 2923159 2933500 2956685 2988111 
1955.101 3019774 3041128 3045666 3033087 3009197 2983441 2964024 2954883 
1958.958 2954516 2957352 2958219 2954750 2948478 2943207 2941973 2945576 
1962.816 2952715 2961655 2973065 2989412 3015103 3052072 3098056 3145479 
1966.673 3183761 3204790 3205057 3189302 3166505 3144344 3128091 3115409 
1970.531 3101059 3080069 3052673 3025079 3007896 3010632 3036857 3082538 
1974.388 3139037 3198415 3257967 3322836 3402007 3503004 3623403 3750753 
1978.246 3864234 3945109 3980486 3970354 3923844 3856512 3781870 3709480 
1982.103 3642883 3582944 3530094 3486938 3456243 3440346 3436973 3439878 
1985.960 3440680 3432197 3413662 3389885 3370350 3363238 3372521 3394894 
1989.818 3421543 3442750 3452503 3451267 3446057 3446190 3458314 3484567 
1993.675 3520341 3559024 3593634 3620062 3638004 3648964 3654577 3655413 
1997.533 3651369 3643651 3635131 3631188 3636634 3654744 3683515 3717099 
2001.390 3747177 3765693 3770339 3762351 3746609 3728462 3709981 3690365 
2005.248 3666707 3637102 3602855 3568678 3540450 3520708 3507814 3495222 
2009.105 3474914 3443919 3405247 3368313 3346041 3348579 3378364 3429191 
2012.962 3488975 3544091 3586551 3614950 3632692 3647193 3663299 3682980 
2016.820 3704100 3724552 3743501 3762719 3785714 3814593 3848589 3884259 
2020.677 3916957 3943371 3964302 3982192 4001019 4021351 4039845 4049075 
2024.535 4042554 4016669 3974434 3922975 3872124 3829502 3798081 3776455 
2028.392 3760880 3750419 3746710 3753828 3775653 3811485 3855375 3897799 
2032.250 3930197 3949690 3961259 3975537 4002958 4049176 4110785 4177220 
2036.107 4235535 4275687 4295731 4300650 4299613 4300784 4308280 4321198 
2039.964 4336023 4350314 4364973 4383414 4409622 4444669 4483937 4518956 
2043.822 4541121 4544938 4531645 4507573 4482397 4464654 4458461 4462076 
2047.679 4470412 4477944 4479417 4471684 4452636 4419697 4370428 4303695 
2051.537 4222452 4134267 4050714 3985770 3949422 3944541 3965071 3997407 
2055.394 4026835 4040681 4033959 4009011 3973398 3934376 3897732 3865839 
2059.251 3838126 3815362 3800153 3796610 3809980 3841569 3889174 3945745 
2063.109 4002657 4052955 4092689 4122458 4144503 4161463 4173674 4180130 
2066.966 4178759 4169826 4155642 4141024 4130420 4126205 4127342 4129450 
2070.824 4127577 4118411 4102055 4081016 4058841 4037638 4017037 3993728 
2074.681 3965807 3932504 3896529 3863198 3837892 3823284 3817869 3816398 
2078.539 3812755 3802660 3785212 3763654 3742465 3725822 3714627 3707007 
2082.396 3699054 3687792 3672254 3654109 3636066 3621064 3609304 3599815 
2086.253 3589893 3577531 3561763 3543022 3522011 3498294 3470171 3435770 
2090.111 3393558 3345307 3295525 3250956 3218676 3203455 3206192 3223717 
2093.968 3251891 3284441 3316793 3345708 3368380 3382372 3385911 3378331 
2097.826 3361702 3340599 3322468 3313821 3318495 3335357 3358496 3380435 
2101.683 3393825 3396564 3390920 3384175 3383307 3393391 3415365 3445923 
2105.541 3480625 3515798 3550672 3586919 3626778 3671117 3718236 3764456 
2109.398 3806003 3840299 3868012 3891681 3914550 3938288 3962028 3983195 
2113.255 3999146 4009078 4015064 4020849 4030046 4044393 4062420 4080380 
2117.113 4094328 4101887 4104028 4103995 4106002 4112792 4124432 4138783 
2120.970 4153133 4165176 4175748 4186688 4200538 4218270 4238145 4256681 
2124.828 4269463 4273780 4268560 4255477 4236104 4211278 4179997 4139953 
2128.685 4089044 4027672 3958919 3888304 3821981 3764958 3719439 3685654 
2132.542 3662329 3648596 3644085 3648797 3660926 3675963 3687458 3689229 
2136.400 3677600 3654978 3628615 3608235 3602221 3613079 3636801 3664702 
2140.257 3686489 3695845 3691936 3679505 3666506 3658286 3657284 3661360 
2144.115 3665370 3665270 3658520 3647026 3632525 3616854 3599915 3580638 
2147.972 3557921 3533234 3511255 3496892 3494219 3503004 3518002 3531330 
2151.830 3534738 3522913 3495355 3454006 3401807 3340232 3270519 3194843 
2155.687 3120949 3065219 3049470 3098957 3229792 3442851 3717835 4019579 
2159.544 4309753 4555451 4740721 4864881 4938402 4976207 4991658 4994775 
2163.402 4991457 4986463 4982776 4982139 4984083 4983513 4974129 4948423 
2167.259 4901841 4836870 4760586 4683980 4616864 4564726 4527628 4500174 
2171.117 4475869 4449824 4421605 4394326 4372469 4359584 4356539 4360588 
2174.974 4368754 4377457 4385221 4391715 4395698 4395062 4386460 4366679 
2178.832 4335153 4295865 4256079 4224728 4209772 4214255 4236170 4268693 
2182.689 4304131 4336023 4361124 4378695 4389573 4394326 4393622 4387631 
2186.546 4377356 4366512 4359149 4359785 4370227 4390242 4416149 4444334 
2190.404 4472287 4500375 4530976 4567204 4610301 4658961 4709134 4756198 
2194.261 4797001 4831007 4858850 4882306 4900668 4910454 4906968 4886192 
2198.119 4847894 4796968 4742195 4694062 4661037 4647005 4650387 4665860 
2201.976 4687363 4710072 4731878 4752177 4770971 4787051 4798475 4803266 
2205.833 4801591 4796163 4791406 4792947 4803300 4821760 4844107 4864915 
2209.691 4879558 4886327 4886595 4884216 4882440 4882875 4884618 4884986 
2213.548 4882004 4874867 4865820 4857744 4853858 4856069 4864379 4877815 
2217.406 4894905 4914877 4937129 4960991 4984552 5004327 5016428 5017769 
2221.263 5007311 4986597 4958980 4928449 4897519 4867428 4837674 4807521 
2225.121 4777537 4749933 4727121 4711311 4702000 4696373 4689674 4677750 
2228.978 4658961 4634881 4610368 4590443 4579192 4577953 4584583 4595499 
2232.835 4607186 4617367 4626074 4633408 4640675 4648344 4656047 4663750 
2236.693 4671721 4681635 4694932 4712316 4732950 4753685 4771172 4782495 
2240.550 4787319 4787084 4785309 4785711 4790066 4798676 4809967 4821927 
2244.408 4834156 4846587 4860659 4876911 4894771 4912163 4926036 4934482 
2248.265 4937464 4937732 4938972 4944871 4957204 4975537 4997557 5020618 
2252.123 5043009 5064664 5086589 5109352 5132151 5152302 5166317 5170877 
2255.980 5164842 5149049 5126719 5101407 5076129 5052395 5029970 5008752 
2259.837 4988474 4970141 4954556 4942223 4933041 4925634 4918999 4913068 
2263.695 4909583 4911794 4923054 4945139 4977145 5015489 5055144 5090981 
2267.552 5120349 5142612 5159008 5171715 5181574 5188347 5191365 5189655 
2271.410 5183921 5175940 5168597 5163970 5162964 5164842 5167926 5170643 
2275.267 5172855 5175505 5180199 5187744 5198273 5209574 5219399 5225938 
2279.125 5229326 5231002 5233484 5238816 5247704 5258939 5270845 5281611 
2282.982 5291404 5301902 5314950 5332459 5354263 5378819 5402604 5422767 
2286.839 5437295 5446119 5450817 5452964 5454205 5455346 5456621 5458366 
2290.697 5461754 5468566 5480545 5499000 5523363 5551452 5580046 5606394 
2294.554 5628916 5647646 5663826 5679235 5694610 5709852 5723751 5735167 
2298.412 5743661 5750208 5756621 5764881 5776532 5791911 5810145 5829823 
2302.269 5849335 5867202 5882550 5894440 5901862 5904247 5901829 5895346 
2306.126 5887050 5879662 5875530 5876169 5880703 5887353 5893331 5896589 
2309.984 5896589 5894440 5892256 5892324 5895985 5902870 5911670 5920907 
2313.841 5929338 5936996 5944588 5953187 5963365 5975122 5987384 5999747 
2317.699 6011875 6024137 6037744 6053872 6073293 6096075 6121680 6148834 
2321.556 6175618 6199111 6215716 6220824 6209867 6179719 6129577 6062171 
2325.414 5984294 5903945 5830260 5770723 5728686 5703943 5692965 5690682 
2329.271 5692126 5694275 5696255 5698807 5703440 5711094 5722341 5736946 
2333.128 5754472 5774719 5797586 5822805 5849570 5876471 5902232 5926012 
2336.986 5948148 5969580 5992087 6016813 6043893 6072251 6100006 6125309 
2340.843 6147018 6164998 6179483 6190676 6198103 6200389 6196255 6185399 
2344.701 6169535 6152900 6141138 6140969 6157538 6194305 6252018 6329304 
2348.558 6422947 6528215 6639967 6752086 6858106 6953109 7033214 7097909 
2352.416 7149442 7192459 7232650 7274293 7319883 7369488 7421897 7475997 
2356.273 7531823 7590860 7655064 7725990 7803506 7885050 7967723 8047746 
2360.130 8122653 8191696 8255382 8314956 8371701 8426224 8478963 8529748 
2363.988 8578815 8626401 8672371 8715842 8755769 8790323 8818252 8838439 
2367.845 8850884 8855246 8851763 8839657 8818049 8786671 8746776 8701272 
2371.703 8654557 8611936 8578376 8556781 8548502 8553368 8570773 8600479 
2375.560 8643065 8699447 8770611 8856970 8957722 9071151 9196013 9331339 
2379.417 9477172 9633860 9801584 9979308 10164464 10353500 10541736 10725502 
2383.275 10901226 11066824 11220346 11359876 11483153 11587885 11671879 
2386.650 11734035 11774784 11795960 11800217 11790139 11768213 11735668 
2390.025 11693119 11640634 11578629 11507037 11426341 11337224 11240033 
2393.401 11136100 11027296 10916447 10807768 10705194 10612591 10532604 
2396.776 10466072 10412514 10370637 10339113 10317566 10306675 10307590 
2400.151 10322283 10351838 10397005 10457417 10532333 10620537 10720340 
2403.526 10830459 10949509 11076408 11211302 11354570 11507887 11672799 
2406.902 11850812 12042151 12245980 12460201 12682888 12912070 13147419 
2410.277 13388841 13636758 13890631 14148590 14407216 14661712 14906995 
2413.652 15138831 15353283 15547648 15719563 15866663 15986929 16078930 
2417.027 16142374 16178243 16189281 16178861 16150627 16107332 16051011 
2420.403 15982838 15903642 15814668 15717776 15615203 15509737 15403677 
2423.778 15299326 15198808 15104317 15018593 14944614 14885290 14842944 
2427.153 14819390 14815242 14830807 14866431 14922804 15000929 15101847 
2430.528 15225848 15372369 15539578 15725266 15927084 16143233 16372494 
2433.904 16614238 16868102 17133590 17410418 17698568 17999204 18313976 
2437.279 18644852 18994086 19362514 19750222 20156326 20580144 21021558 
2440.654 21481870 21963060 22467290 22995930 23548792 24124528 24720494 
2444.029 25334632 25964976 26611172 27272688 27949740 28641650 29347072 
2447.405 30063796 30789246 31520258 32253072 32983228 33706092 34416640 
2450.780 35110568 35784596 36436676 37065960 37671584 38251708 38802972 
2454.155 39320076 39796576 40225944 40601524 40917172 41167840 41347836 
2457.530 41451348 41473400 41409612 41256916 41014648 40683828 40266948 
2460.906 39766692 39186244 38528612 37797248 36997220 36135324 35220328 
2464.281 34263372 33275712 32269310 31255904 30245642 29248106 28272588 
2467.656 27327202 26419610 25556710 24743330 23982972 23277568 22627654 
2471.031 22033260 21494056 21009386 20577330 20194506 19855754 19553968 
2474.406 19282076 19033478 18803086 18588514 18388738 18203846 18033328 
2477.782 17876168 17730114 17592178 17459876 17331064 17204632 17080032 
2481.157 16957086 16835448 16715117 16595922 16478688 16364684 16255630 
2484.532 16153412 16059710 15975345 15900860 15836179 15780581 15733579 
2487.907 15693590 15658861 15627226 15596210 15564613 15531851 15499401 
2491.283 15469082 15443674 15424929 15413805 15409444 15410406 15414869 
2494.658 15421220 15428671 15437150 15446317 15455622 15464240 15470833 
2498.033 15474747 15475674 15474061 15470729 15466541 15461768 15455999 
2501.408 15448412 15437871 15424001 15406698 15386753 15365504 15344050 
2504.784 15323660 15305503 15290265 15278938 15272143 15269740 15271011 
2508.159 15274477 15278252 15279831 15277497 15269398 15254228 15230618 
2511.534 15197298 15153241 15097593 15030598 14953668 14869345 14780651 
2514.909 14690433 14600815 14512347 14425027 14338205 14251742 14166220 
2518.285 14083556 14005459 13933774 13868942 13811166 13759110 13711745 
2521.660 13668044 13627629 13590739 13557887 13529890 13507604 13492154 
2525.035 13484738 13486241 13497247 13517311 13544520 13576381 13609782 
2528.410 13641921 13671394 13697862 13722552 13746935 13772654 13800085 
2531.786 13829911 13861690 13895558 13931516 13969666 14010181 14052411 
2535.161 14095364 14138048 14179640 14220858 14262972 14308685 14360328 
2538.536 14419376 14486071 14559183 14636660 14716345 14796695 14876683 
2541.911 14955658 15032930 15108193 15180621 15250042 15316213 15380196 
2545.287 15443159 15506715 15571860 15638767 15706955 15775325 15842812 
2548.662 15908455 15971357 16031483 16088352 16141823 16192136 16239636 
2552.037 16285179 16329454 16373184 16416470 16458556 16498443 16534720 
2555.412 16566938 16595097 16620055 16642295 16662402 16679307 16691461 
2558.788 16696420 16692529 16678309 16654208 16620778 16579192 16530279 
2562.163 16474318 16411548 16342321 16267566 16189419 16110428 16033443 
2565.538 15960392 15892886 15831061 15775049 15724681 15680261 15642202 
2568.913 15610841 15586284 15567944 15554895 15546069 15540883 15539372 
2572.289 15541844 15549297 15562209 15580995 15605518 15635675 15671263 
2575.664 15712211 15758110 15808484 15861919 15917288 15973041 16028870 
2579.039 16084569 16141342 16200425 16262922 16329350 16399162 16471634 
2582.414 16545665 16620813 16697109 16775072 16855184 16937584 17022206 
2585.790 17108672 17196568 17285722 17376310 17468018 17560644 17652600 
2589.165 17742504 17828802 17910420 17987530 18060890 18131948 18201874 
2592.540 18271262 18339830 18406956 18472262 18535742 18598440 18661836 
2595.915 18727456 18796374 18869038 18945316 19024860 19107880 19194762 
2599.291 19286198 19383094 19485762 19593794 19706776 19824158 19945698 
2602.666 20071750 20202802 20339310 20481350 20628230 20779052 20932572 
2606.041 21088370 21245824 21405112 21566616 21730342 21895660 22061670 
2609.416 22226976 22389902 22548632 22701102 22845278 22979056 23100470 
2612.792 23207866 23300396 23377910 23440854 23489886 23525704 23548510 
2616.167 23558796 23556590 23542668 23518428 23485340 23445996 23402004 
2619.542 23354974 23306130 23256420 23206608 23157956 23111862 23069894 
2622.917 23032824 23001414 22975354 22954218 22937486 22924980 22917226 
2626.292 22915200 22920266 22933364 22955196 22986182 23025870 23073914 
2629.668 23129964 23192906 23262118 23336478 23415012 23496776 23581254 
2633.043 23668404 23758618 23852596 23950760 24053464 24160466 24271664 
2636.418 24386116 24503472 24623244 24745118 24868676 24993428 25118426 
2639.793 25243282 25367264 25489734 25610516 25729610 25847048 25962830 
2643.169 26077058 26190050 26301734 26412320 26522088 26631076 26739314 
2646.544 26847262 26955306 27064508 27176134 27291636 27412144 27538546 
2649.919 27670776 27808168 27949880 28095172 28243734 28395738 28551796 
2653.294 28712654 28878706 29050028 29226132 29406704 29591360 29780172 
2656.670 29973436 30171546 30374610 30582680 30795116 31011464 31230698 
2660.045 31452712 31676874 31903218 32131356 32361042 32591424 32821496 
2663.420 33050440 33277608 33502608 33725468 33946896 34167616 34388916 
2666.795 34611584 34836808 35065164 35296948 35531800 35769696 36010172 
2670.171 36253016 36498156 36745780 36995596 37247728 37501412 37755752 
2673.546 38009516 38261660 38510904 38756272 38997064 39232228 39460988 
2676.921 39682024 39895036 40100192 40298504 40492032 40683792 40877092 
2680.296 41075284 41281548 41498736 41729128 41974936 42238152 42520316 
2683.672 42822696 43145928 43489836 43853884 44237240 44638632 45057012 
2687.047 45491248 45940208 46402612 46876948 47361892 47856404 48359852 
2690.422 48872040 49393108 49923284 50462664 51011136 51568700 52135160 
2693.797 52710664 53295660 53890524 54495668 55111060 55736372 56371292 
2697.173 57014628 57665652 58323868 58988476 59659000 60334600 61014612 
2700.548 61698016 62383912 63071428 63759080 64445124 65127024 65801440 
2703.923 66464616 67112848 67742248 68349416 68930704 69482416 70000680 
2707.298 70480752 70917928 71307752 71646296 71930984 72160264 72333816 
2710.674 72452384 72517336 72530608 72494192 72410136 72280080 72104712 
2714.049 71884184 71617608 71304664 70944416 70537296 70084352 69587296 
2717.424 69048624 68471088 67857632 67211584 66536872 65838688 65122484 
2720.799 64394856 63662460 62931568 62208252 61497512 60804248 60132524 
2724.175 59486572 58869692 58285216 57735696 57222972 56748384 56312896 
2727.550 55917116 55561760 55247104 54973668 54741256 54549160 54396400 
2730.925 54281344 54202620 54158476 54147664 54168460 54219776 54299780 
2734.300 54406952 54539468 54695556 54873236 55070588 55284964 55514128 
2737.676 55754528 56002332 56254056 56505848 56754120 56995888 57228492 
2741.051 57449568 57657252 57850344 58028604 58192424 58343612 58484312 
2744.426 58616752 58743660 58866768 58987640 59107896 59228944 59352232 
2747.801 59479312 59611108 59748152 59889992 60035800 60184356 60334832 
2751.177 60487260 60642372 60801960 60968320 61144432 61333012 61537408 
2754.552 61760804 62005952 62275096 62569708 62889636 63233600 63599392 
2757.927 63983776 64383596 64795100 65214688 65637648 66058092 66469676 
2761.302 66864648 67235376 67575136 67877896 68139232 68356048 68526056 
2764.677 68647744 68720360 68744112 68720240 68651704 68541888 68395488 
2768.053 68216872 68010984 67782640 67536696 67279160 67016176 66753700 
2771.428 66497556 66252032 66019632 65801480 65597184 65405972 65227240 
2774.803 65060512 64905620 64762056 64628884 64503708 64383060 64262220 
2778.178 64135724 63997292 63840748 63659744 63448592 63203512 62922148 
2781.554 62604876 62254600 61876408 61476864 61062924 60641536 60218384 
2784.929 59798000 59384100 58978908 58584068 58200684 57828920 57468744 
2788.304 57119904 56782024 56455052 56139148 55835080 55543572 55265056 
2791.679 54999652 54746780 54505360 54274060 54051628 53836732 53628544 
2795.055 53426080 53228200 53033108 52838960 52642956 52442404 52234736 
2798.430 52017640 51789864 51550344 51299320 51037184 50764636 50481796 
2801.805 50188688 49884592 49568080 49237844 48892952 48533220 48159824 
2805.180 47774916 47381956 46985296 46588772 46196704 45812940 45440624 
2808.556 45082448 44740696 44417008 44113000 43829324 43566900 43326196 
2811.931 43107612 42911492 42738088 42587336 42458196 42349732 42260324 
2815.306 42188272 42132156 42091156 42065384 42055672 42063812 42091884 
2818.681 42142232 42217264 42318612 42447856 42605536 42791652 43005644 
2822.057 43245732 43509760 43795312 44099652 44420200 44754392 45099800 
2825.432 45453576 45812828 46173668 46531640 46881932 47219392 47538300 
2828.807 47833544 48099784 48332520 48528292 48685080 48802516 48882240 
2832.182 48927628 48943164 48934156 48905968 48863956 48813048 48758588 
2835.558 48705208 48657840 48621228 48598692 48593096 48606736 48641240 
2838.933 48699204 48784392 48901928 49059040 49264492 49527636 49858948 
2842.308 50269736 50771112 51375692 52096792 52947120 53938692 55079692 
2845.683 56371104 57802992 59351016 60975300 62615096 64195648 65632216 
2849.059 66832260 67713704 68210832 68281704 67916824 67137128 65992632 
2852.434 64549336 62886840 61088744 59229892 57379872 55596704 53922444 
2855.809 52388496 51013000 49801456 48749988 47846524 47074576 46413744 
2859.184 45843944 45346640 44904720 44504256 44134124 43785384 43452264 
2862.560 43131108 42821232 42523492 42240600 41976252 41733944 41517548 
2865.935 41330708 41176876 41059076 40979944 40940876 40941712 40980456 
2869.310 41052848 41153052 41274480 41409972 41552512 41695976 41834996 
2872.685 41964972 42083272 42188932 42283332 42370152 42455164 42545492 
2876.061 42647828 42768104 42910652 43077352 43268428 43483392 43720736 
2879.436 43979480 44258112 44555800 44871396 45203144 45549384 45907612 
2882.811 46274688 46647572 47022140 47394520 47760604 48116848 48460640 
2886.186 48790320 49105600 49406960 49695896 49974472 50245040 50510416 
2889.562 50773944 51039344 51311028 51594480 51895112 52219864 52576648 
2892.937 52973768 53421620 53930512 54510016 55168468 55910332 56734976 
2896.312 57634060 58591308 59581384 60568656 61513052 62370104 63095524 
2899.687 63655212 64025284 64198524 64184584 64008692 63707924 63322724 
2903.063 62896416 62467808 62068632 61725780 61459608 61285084 61214464 
2906.438 61256392 61417124 61701296 62111984 62652604 63327016 64139836 
2909.813 65096348 66200316 67452240 68846760 70370232 72001448 73707840 
2913.188 75447168 77172432 78827704 80356288 81706776 82833512 83705168 
2916.563 84307360 84642784 84728840 84593304 84270304 83791792 83184424 
2919.939 82467984 81653184 80744256 79741104 78642848 77450712 76171136 
2923.314 74815448 73401576 71952608 70492280 69045904 67635840 66279432 
2926.689 64990164 63776344 62641808 61587960 60613684 59716784 58893788 
2930.064 58140336 57452144 56823984 56251568 55730868 55259036 54834060 
2933.440 54454236 54118052 53823160 53566768 53344924 53153108 52986236 
2936.815 52838736 52705352 52580500 52459192 52337624 52213508 52086592 
2940.190 51958816 51834216 51717336 51612468 51522884 51448796 51387960 
2943.565 51334520 51280340 51215092 51127304 51006892 50845644 50639852 
2946.941 50390844 50106200 49798856 49484744 49181624 48905488 48667996 
2950.316 48475532 48328816 48223244 48150344 48099856 48060992 48023092 
2953.691 47976836 47914268 47828732 47715368 47571128 47394672 47186220 
2957.066 46947492 46681256 46390996 46080336 45753404 45413844 45065504 
2960.442 44712008 44356712 44002948 43653796 43312064 42980660 42662524 
2963.817 42360360 42076992 41815220 41577304 41365476 41181028 41024700 
2967.192 40895952 40793516 40714648 40655336 40611204 40577112 40548156 
2970.567 40520732 40491816 40460172 40425404 40388236 40349880 40312176 
2973.943 40277200 40246664 40221692 40202024 40184436 40162848 40126832 
2977.318 40063204 39957184 39793852 39561656 39253772 38869748 38415368 
2980.693 37902304 37346620 36765684 36177744 35599804 35045372 34525436 
2984.068 34047620 33615648 33231072 32893438 32601640 32354868 32153372 
2987.444 31998082 31889774 31826734 31802702 31804346 31811866 31799604 
2990.819 31737824 31600750 31368222 31031498 30595230 30076792 29504074 
2994.194 28907638 28318916 27763416 27257094 26807540 26413798 26069952 
2997.569 25766666 25495356 25248446 25020416 24807242 24606552 24416224 
3000.945 24234734 24060888 23893726 23732580 23576986 23426726 23281414 
3004.320 23140798 23004908 22873986 22748620 22629678 22517886 22414010 
3007.695 22318320 22230532 22150190 22076554 22008962 21946400 21887994 
3011.070 21832764 21779390 21727100 21675132 21623516 21572780 21523998 
3014.446 21478354 21436996 21400796 21370584 21346986 21330628 21322104 
3017.821 21321616 21328994 21342740 21360804 21380746 21399126 21413606 
3021.196 21422064 21422794 21414684 21396758 21368148 21328436 21277698 
3024.571 21217536 21150532 21081100 21013350 20951764 20899470 20858136 
3027.947 20827578 20805956 20790662 20778114 20764838 20747390 20723306 
3031.322 20690708 20649252 20599704 20543980 20484720 20424876 20366776 
3034.697 20311914 20260914 20213910 20170870 20131996 20097742 20068974 
3038.072 20046732 20031394 20023138 20021368 20025530 20034656 20048014 
3041.448 20065366 20086360 20110756 20138556 20168994 20201588 20235190 
3044.823 20268586 20300424 20329414 20354728 20376362 20395008 20412408 
3048.198 20430432 20450610 20473430 20498126 20522546 20544120 20560342 
3051.573 20569860 20572536 20569340 20561766 20551308 20538698 20523762 
3054.948 20506152 20485448 20462142 20437066 20411748 20387612 20365840 
3058.324 20346776 20330422 20316498 20304866 20295422 20288272 20283306 
3061.699 20280078 20278134 20277300 20277682 20280042 20285772 20295702 
3065.074 20310664 20330040 20352192 20375076 20396642 20415638 20432204 
3068.449 20447554 20463184 20480898 20501704 20525638 20552284 20580874 
3071.825 20610754 20641678 20673924 20708118 20745096 20785450 20829490 
3075.200 20877360 20928782 20982956 21038808 21094700 21149140 21200698 
3078.575 21248504 21292278 21332716 21370898 21407756 21444516 21481662 
3081.950 21519540 21557842 21596388 21634592 21671998 21707838 21741870 
3085.326 21773676 21803706 21832416 21861126 21891026 21923366 21958704 
3088.701 21997286 22038768 22082412 22128014 22175016 22223418 22273046 
3092.076 22323342 22373576 22422766 22470186 22515724 22560220 22605696 
3095.451 22654112 22707422 22767092 22832810 22903358 22976610 23050048 
3098.827 23121612 23189586 23253446 23313472 23370496 23425746 23480654 
3102.202 23536338 23593496 23652100 23712074 23772722 23833272 23893694 
3105.577 23953772 24013402 24073182 24133040 24192624 24251834 24310314 
3108.952 24367856 24424986 24482402 24541018 24601574 24664588 24730104 
3112.328 24797982 24868150 24940678 25015610 25093044 25172634 25253256 
3115.703 25333752 25412370 25488082 25560434 25629778 25697056 25763606 
3119.078 25830064 25896916 25963990 26030794 26097220 26163130 26228942 
3122.453 26295222 26362076 26429750 26497716 26565554 26632906 26699778 
3125.829 26766482 26833444 26901652 26971418 27042890 27116242 27191266 
3129.204 27267538 27344280 27420826 27496218 27569578 27640830 27710046 
3132.579 27778426 27847664 27919244 27994726 28074284 28157496 28243168 
3135.954 28329560 28415618 28500384 28583644 28665364 28745468 28823820 
3139.330 28900058 28974116 29045884 29115748 29184490 29252926 29321724 
3142.705 29391388 29461840 29533438 29606150 29680398 29756752 29835782 
3146.080 29917844 30002476 30089364 30177406 30265748 30353718 30440676 
3149.455 30526832 30612082 30696850 30781600 30867006 30953746 31042460 
3152.831 31133580 31227350 31323350 31421080 31519402 31617604 31714760 
3156.206 31810120 31903572 31994910 32084194 32171960 32258854 32345910 
3159.581 32434550 32525960 32621142 32720522 32823820 32930252 33038892 
3162.956 33148884 33259258 33369768 33480022 33589804 33699004 33807188 
3166.332 33913864 34018808 34121736 34222032 34319488 34413552 34503196 
3169.707 34588260 34668604 34744476 34816916 34886424 34953464 35017712 
3173.082 35078024 35132984 35181200 35221728 35254468 35280160 35300180 
3176.457 35316136 35329936 35343308 35357796 35374940 35396112 35421888 
3179.833 35452484 35487032 35524032 35561936 35599156 35634944 35668900 
3183.208 35701524 35733468 35765272 35797044 35828812 35860336 35891612 
3186.583 35922776 35954200 35986128 36018708 36052116 36086172 36120956 
3189.958 36156568 36193592 36232088 36272252 36313568 36355176 36396792 
3193.333 36437508 36477976 36518556 36560112 36602716 36645796 36688016 
3196.709 36727928 36763988 36795796 36824108 36850256 36875900 36902376 
3200.084 36929792 36957716 36985568 37012376 37037996 37063004 37088080 
3203.459 37113924 37140884 37169252 37198524 37228452 37258704 37288924 
3206.834 37318564 37346656 37372260 37394436 37412924 37428560 37442972 
3210.210 37458284 37476020 37497152 37521140 37546428 37571100 37593896 
3213.585 37614060 37632628 37650952 37670428 37692036 37715600 37740536 
3216.960 37765548 37789584 37812032 37832492 37851072 37867956 37883360 
3220.335 37898108 37913004 37929564 37949272 37973464 38002648 38036500 
3223.711 38073536 38111588 38149028 38184520 38217624 38249032 38279356 
3227.086 38309716 38340440 38371712 38403240 38434808 38466516 38498344 
3230.461 38530820 38564312 38599112 38635036 38671836 38709324 38746888 
3233.836 38784276 38821052 38856956 38892148 38926572 38960860 38995436 
3237.212 39030632 39066776 39103608 39140916 39178556 39216740 39256164 
3240.587 39297692 39341988 39389072 39438092 39487440 39534796 39578640 
3243.962 39617876 39652836 39684636 39714876 39745232 39776604 39809792 
3247.337 39844552 39880944 39919336 39960056 40003360 40049540 40097576 
3250.713 40146056 40193488 40238196 40278944 40315592 40348168 40377584 
3254.088 40404640 40430240 40454680 40478612 40502144 40525572 40548888 
3257.463 40571984 40594468 40615752 40635544 40653008 40668508 40682120 
3260.838 40694272 40705772 40717012 40728588 40740852 40753700 40766472 
3264.214 40778228 40787472 40792676 40792496 40786380 40774516 40758392 
3267.589 40739980 40721236 40703768 40688156 40673856 40659740 40644568 
3270.964 40627320 40607928 40586864 40564600 40542340 40520220 40498544 
3274.339 40477484 40456828 40436932 40417692 40399296 40381804 40364604 
3277.715 40347368 40329592 40311592 40293124 40275092 40257896 40241792 
3281.090 40226888 40212932 40199700 40187416 40176220 40166736 40159248 
3284.465 40153904 40150016 40147000 40144276 40141152 40137408 40133080 
3287.840 40128068 40122504 40116148 40108624 40100192 40091072 40082280 
3291.216 40075228 40071232 40071596 40077044 40087944 40104300 40125704 
3294.591 40151872 40182072 40215548 40251608 40288908 40326936 40365116 
3297.966 40403184 40441840 40481340 40522040 40563980 40607128 40651044 
3301.341 40695980 40742492 40791548 40844584 40902832 40966544 41035880 
3304.717 41110104 41187912 41268540 41351004 41434652 41518752 41602688 
3308.092 41685580 41766772 41845684 41922456 41997928 42073232 42149972 
3311.467 42229572 42313024 42400584 42492544 42588436 42687672 42789384 
3314.842 42893024 42997160 43101064 43203788 43304708 43404292 43503020 
3318.218 43601552 43700768 43800668 43901096 44001372 44100788 44198648 
3321.593 44294804 44389664 44483660 44577424 44671572 44766000 44860300 
3324.968 44953740 45045360 45134280 45219652 45301216 45378972 45453832 
3328.343 45526608 45598404 45669844 45740812 45810912 45878632 45942532 
3331.719 46001276 46053996 46099972 46139032 46171164 46196336 46214504 
3335.094 46225892 46231088 46230832 46225852 46216972 46204256 46187492 
3338.469 46166116 46139364 46107232 46069616 46027248 45979988 45927648 
3341.844 45869352 45803512 45728960 45645108 45551960 45450704 45342776 
3345.219 45229216 45110496 44986080 44854972 44716600 44570744 44418292 
3348.595 44260828 44099904 43936952 43772412 43606316 43437796 43266744 
3351.970 43093600 42918880 42743828 42569540 42396380 42224968 42055052 
3355.345 41886732 41720268 41556048 41394376 41235784 41080052 40927224 
3358.720 40777136 40630268 40487524 40349988 40218604 40093396 39973460 
3362.096 39857368 39742796 39628620 39513932 39399268 39286412 39176996 
3365.471 39072724 38974380 38881924 38794784 38712224 38633880 38559280 
3368.846 38488352 38420796 38355644 38291512 38226636 38158868 38086880 
3372.221 38009736 37927216 37839576 37747224 37650444 37548736 37441492 
3375.597 37327772 37206792 37078088 36942096 36799616 36651708 36499776 
3378.972 36344228 36185452 36022916 35855804 35682852 35503140 35315524 
3382.347 35119044 34913176 34697064 34470552 34233576 33987096 33732772 
3385.722 33473224 33211150 32949448 32690082 32434408 32182310 31933244 
3389.098 31685818 31438358 31189432 30938412 30685044 30430084 30175380 
3392.473 29922884 29674970 29433048 29197320 28966750 28738530 28509548 
3395.848 28276866 28039398 27797606 27554432 27313900 27079708 26854452 
3399.223 26638614 26430314 26226758 26024532 25821694 25616982 25410614 
3402.599 25203602 24997146 24791702 24586984 24382716 24178402 23974114 
3405.974 23770202 23567470 23366650 23168196 22972278 22778648 22587198 
3409.349 22398066 22211038 22026532 21844262 21664162 21485978 21309956 
3412.724 21136442 20966542 20801474 20642164 20489094 20341846 20199158 
3416.100 20059570 19921312 19783442 19645690 19507734 19369582 19231298 
3419.475 19092786 18954142 18816164 18680064 18547882 18421544 18302158 
3422.850 18190024 18084344 17983180 17884112 17785306 17684866 17582484 
3426.225 17477850 17371722 17264380 17156788 17049292 16942648 16837100 
3429.601 16733058 16630452 16528834 16427550 16326392 16225360 16124973 
3432.976 16025947 15929695 15836833 15747804 15662227 15579244 15497958 
3436.351 15417478 15337082 15256528 15176023 15095054 15013688 14931789 
3439.726 14849390 14766768 14684297 14602392 14521460 14441606 14362074 
3443.102 14282866 14203432 14123191 14042213 13960222 13876811 13792047 
3446.477 13706308 13620312 13535804 13455105 13380060 13311963 13250469 
3449.852 13193664 13138608 13081715 13020596 12954433 12883740 12810159 
3453.227 12735941 12662077 12588567 12514558 12438720 12360305 12279926 
3456.603 12199120 12119555 12043344 11971232 11902675 11836239 11770154 
3459.978 11703160 11634304 11564337 11493530 11422837 11352802 11283559 
3463.353 11215178 11147861 11082051 11018086 10956509 10897012 10839224 
3466.728 10782427 10725400 10667702 10608789 10548560 10487456 10425378 
3470.104 10362561 10298938 10234579 10170027 10105619 10042137 9979783 
3473.479 9918760 9858795 9799653 9741230 9683662 9627389 9573326 9521842 
3477.336 9473277 9426851 9381513 9336519 9290818 9243938 9196284 9148331 
3481.194 9100925 9055351 9012014 8971658 8934418 8900494 8868976 8839217 
3485.051 8809630 8778421 8744511 8706715 8665441 8621602 8577295 8534614 
3488.908 8495620 8461833 8433622 8410987 8393050 8379200 8368897 8361669 
3492.766 8357210 8355487 8355926 8358257 8362041 8366769 8372038 8377950 
3496.623 8384470 8392104 8401461 8412845 8426697 8443150 8461900 8482307 
3500.481 8504033 8526064 8548198 8570773 8594294 8620385 8651210 8688190 
3504.338 8733185 8787042 8849598 8919535 8995133 9073789 9152764 9230027 
3508.196 9304190 9375622 9445645 9516627 9591312 9671601 9758377 9851169 
3512.053 9948863 10049732 10152186 10255105 10357674 10459386 10559661 
3515.428 10657378 10751484 10840684 10924534 11003201 11077292 11147521 
3518.803 11213988 11276009 11331851 11379637 11417088 11443010 11457093 
3522.179 11459610 11451344 11433110 11405149 11367053 11318247 11257885 
3525.554 11184783 11098605 10998987 10886412 10761844 10626954 10483858 
3528.929 10335211 10183323 10029794 9876150 9722254 9567940 9413070 9257003 
3532.787 9099774 8941215 8781599 8620149 8457103 8292395 8126197 7959321 
3536.644 7792980 7628592 7467401 7310414 7158403 7011899 6871234 6737346 
3540.501 6610899 6492091 6380209 6274002 6170678 6067312 5960678 5848394 
3544.359 5728922 5602467 5470680 5336317 5203202 5075123 4955293 4845783 
3548.216 4746985 4657186 4573298 4491670 4408718 4322034 4231319 4138348 
3552.074 4047035 3961159 3884126 3817501 3760446 3710483 3664401 3619026 
3555.931 3572253 3523046 3471440 3417770 3362770 3306910 3250222 3193274 
3559.789 3136334 3080603 3027381 2977402 2931332 2888902 2848677 2808356 
3563.646 2765238 2716356 2658812 2591075 2512951 2426811 2337124 2250419 
3567.503 2173622 2111755 2066874 2037778 2020435 2008950 1997533 1981855 
3571.361 1958888 1928002 1890562 1849199 1806608 1765419 1727328 1692799 
3575.218 1661000 1630335 1599239 1566250 1530703 1493264 1454831 1417664 
3579.076 1383459 1354043 1330080 1312100 1299338 1290365 1284483 1279930 
3582.933 1275178 1268764 1258330 1241217 1214468 1175595 1123104 1058164 
3586.791 984765 909387 840462 785589 749309 732946 733909 746820 765540 
3591.130 783796 796443 799564 791033 770187 738589 698762 654326 609696 
3595.470 568720 534548 509170 493049 485088 482799 483064 482600 478984 
3599.809 470990 459547 446876 436097 430193 431486 439944 454803 473611 
3604.149 493745 511924 525459 531629 528079 513184 486016 447108 398951 
3608.489 345394 291379 241282 197590 160133 127087 95204 62163 27170 -8117 
3613.310 -40322 -65600 -80872 -85477 -81435 -72723 -64507 -61492 -67654 
3617.650 -84649 -111614 -144738 -178522 -206839 -224623 -229127 -220682 
3621.507 -202368 -177992 -152025 -127348 -105187 -85212 -65964 -46683 -28262 
3625.847 -15009 -13253 -31376 -77493 -153780 -254328 -363758 -461212 -528795 
3630.187 -559075 -556129 -531376 -497752 -466012 -442577 -429403 -423511 
3634.044 -420499 -415898 -407258 -394778 -381172 -369684 -362765 -361573 
3637.901 -364619 -369684 -374716 -378093 -380046 -381999 -385376 -390640 
3641.759 -397327 -403385 -405702 -402292 -392196 -376802 -359289 -344358 
3645.616 -336710 -340616 -358527 -390871 -435428 -488386 -544647 -598650 
3649.474 -643615 -674118 -685168 -673953 -641398 -591404 -531178 -468891 
3653.331 -413812 -373955 -354952 -359289 -384913 -425199 -469520 -507416 
3657.188 -531476 -538491 -530582 -512446 -490107 -468196 -449760 -436123 
3661.046 -426755 -419506 -411958 -402094 -388256 -370015 -347304 -320519 
3664.903 -289627 -254858 -216079 -174183 -130660 -88061 -47743 -8482 37012 
3669.243 103257 210319 379716 624793 947905 1339585 1785215 2267039 2766872 
3673.583 3265211 3730835 4120084 4381808 4468035 4356839 4061985 3623904 
3677.440 3091949 2511652 1923476 1360558 853111 426379 94077 -142850 -297441 
3681.780 -389614 -441584 -470645 -487095 -494873 -494906 -488750 -480277 
3685.637 -476206 -484844 -513274 -565461 -640108 -730355 -825511 -914926 
3689.494 -989844 -1045775 -1081241 -1097006 -1094792 -1077242 -1048618 
3692.870 -1013744 -978008 -946039 -920216 -901039 -886358 -873131 -858581 
3696.727 -841054 -821576 -802493 -787610 -780697 -784964 -801666 -830306 
3700.584 -868072 -909669 -948452 -977446 -991166 -987529 -967264 -934401 
3704.442 -894591 -853951 -817541 -788602 -768691 -757181 -752947 -754237 
3708.299 -759562 -768228 -779672 -794423 -812514 -833647 -857060 -880869 
3712.157 -901568 -915588 -919588 -911488 -890954 -860631 -823990 -786419 
3716.014 -753079 -727874 -712261 -706472 -707762 -713551 -722019 -732274 
3719.872 -745439 -762605 -784303 -808479 -831596 -849355 -858449 -857986 
3723.729 -850347 -840393 -833614 -833647 -841319 -853654 -864864 -867972 
3727.586 -858449 -835069 -800476 -760654 -723210 -695919 -684605 -691883 
3731.444 -716462 -753079 -794291 -833448 -867179 -895451 -921241 -947427 
3735.301 -974504 -999199 -1015728 -1018075 -1002802 -971330 -927590 -877066 
3739.159 -824651 -773553 -725393 -681463 -644078 -618238 -611885 -634517 
3743.016 -693339 -787213 -901072 -1009149 -1081571 -1101666 -1071590 
3746.391 -1008125 -932450 -863938 -816913 -798359 -808380 -840128 -884175 
3750.249 -930797 -973115 -1008025 -1033677 -1047891 -1047262 -1029611 
3753.624 -995463 -948651 -897104 -849256 -812150 -791017 -786386 -796143 
3757.481 -814994 -838045 -860995 -881365 -897369 -906991 -907487 -896807 
3761.339 -874388 -842509 -806462 -772991 -749011 -738625 -742131 -755262 
3765.196 -771403 -783277 -786783 -782153 -773752 -767964 -769750 -781888 
3769.054 -802691 -827264 -848032 -858912 -856134 -839864 -813043 -780135 
3772.911 -746133 -715172 -689898 -671207 -658867 -651224 -646626 -643979 
3776.769 -643582 -647023 -656452 -673655 -698003 -726584 -753906 -774016 
3780.626 -782715 -779143 -765913 -748382 -732406 -722912 -721821 -728337 
3784.483 -739452 -751194 -760058 -765086 -766740 -767004 -767964 -770940 
3788.341 -776365 -783377 -790983 -797631 -802195 -803684 -801269 -794886 
3792.198 -785460 -774546 -764987 -760323 -763068 -774347 -792538 -813341 
3796.056 -830604 -837880 -831530 -812117 -784832 -757545 -740113 -741668 
3799.913 -767732 -818632 -885829 -955230 -1009017 -1033809 -1025578 -990306 
3803.771 -940749 -891417 -856597 -846015 -863178 -903684 -955230 -1001348 
3807.628 -1026834 -1024091 -994009 -944650 -885134 -823692 -765847 -713088 
3811.485 -664921 -620521 -580220 -547195 -526909 -525750 -548684 -596268 
3815.343 -662440 -733696 -794225 -831629 -841815 -829976 -807619 -789826 
3819.200 -790521 -819095 -878157 -960586 -1049742 -1124173 -1168323 -1175395 
3823.058 -1149818 -1102261 -1045610 -991034 -945245 -910760 -885432 -864699 
3826.915 -843072 -816284 -783906 -747820 -711996 -681099 -658404 -645898 
3830.772 -643218 -648015 -656551 -665219 -670181 -669884 -664590 -657047 
3834.630 -652151 -655823 -673820 -710243 -765284 -834176 -907950 -975165 
3838.487 -1025380 -1053014 -1058336 -1045973 -1023000 -996191 -970305 
3841.863 -947626 -928416 -910959 -893599 -874487 -852463 -827032 -798623 
3845.720 -767931 -736408 -705347 -676136 -649306 -624756 -601860 -579856 
3849.577 -559670 -543455 -538260 -552589 -597128 -680007 -801865 -949973 
3853.435 -1097833 -1215245 -1280398 -1288657 -1249573 -1179724 -1095883 
3856.810 -1009348 -928020 -855671 -793233 -741039 -698830 -666509 -644277 
3860.667 -631936 -629157 -634880 -648214 -667899 -692677 -720597 -748118 
3864.525 -770246 -781425 -777688 -758868 -728966 -696647 -672563 -666741 
3868.382 -685895 -730388 -793100 -859342 -912909 -943129 -947626 -932814 
3872.240 -908776 -885829 -870023 -862450 -858614 -851471 -834738 -805139 
3876.097 -764358 -718215 -674681 -641564 -624756 -626675 -645898 -676335 
3879.955 -708688 -733861 -743983 -736607 -714113 -683977 -656485 -641332 
3883.812 -647486 -678651 -733200 -801038 -867046 -915753 -935955 -925275 
3887.669 -889367 -839335 -787775 -745604 -720696 -715172 -726154 -746232 
3891.527 -766177 -777787 -776662 -762705 -738922 -709581 -678419 -648181 
3895.384 -620620 -596764 -578168 -566222 -562649 -569234 -585911 -611521 
3899.242 -642622 -675607 -706373 -733034 -755428 -775108 -794952 -815987 
3903.099 -838111 -858912 -874222 -879579 -872040 -850909 -818302 -778151 
3906.957 -735052 -693074 -655724 -624657 -600867 -584058 -573138 -566851 
3910.814 -563807 -562351 -560994 -558512 -554376 -549015 -543985 -541470 
3914.671 -543952 -553449 -569895 -591768 -615690 -637560 -653441 -661547 
3918.529 -661712 -655360 -644872 -632035 -618238 -603878 -589319 -575058 
3922.386 -562284 -552787 -547956 -548783 -554276 -562251 -569796 -574230 
3926.244 -574594 -571285 -566520 -562649 -561656 -564369 -570193 -577705 
3930.101 -585249 -591933 -597658 -602885 -608312 -613904 -618767 -621811 
3933.958 -621811 -618437 -612448 -605102 -597922 -592066 -587565 -583661 
3937.816 -579458 -573767 -566619 -558942 -552787 -550239 -553184 -562251 
3941.673 -576447 -593257 -609238 -621017 -625947 -623466 -614135 -601066 
3945.531 -587996 -578201 -575223 -579988 -591966 -608676 -626444 -642060 
3949.388 -652713 -657577 -656915 -652349 -644872 -635873 -625219 -612845 
3953.246 -598319 -581675 -563443 -544779 -527173 -511553 -498579 -488518 
3957.103 -481369 -477133 -475941 -477960 -483123 -490934 -500300 -509600 
3960.960 -517775 -523599 -527041 -528563 -529060 -529258 -529755 -530185 
3964.818 -529722 -527703 -523301 -516682 -508111 -498281 -488353 -478920 
3968.675 -470447 -463000 -456612 -450587 -444696 -438738 -432846 -427516 
3972.533 -423511 -421690 -422783 -427119 -434203 -443041 -452044 -459425 
3976.390 -463430 -463066 -457638 -447476 -433541 -416725 -398916 -381602 
3980.248 -366539 -354753 -347139 -343464 -343066 -344722 -347106 -349258 
3984.105 -350880 -352072 -353561 -355680 -358693 -362368 -366241 -369750 
3987.962 -373061 -376305 -379848 -383721 -387495 -390176 -390243 -387197 
3991.820 -380874 -372995 -365678 -361209 -361772 -368161 -379881 -395473 
3995.677 -413051 -431058 -448204 -463926 -477861 -489643 -498910 -504901 
3999.535 -507482 -506919 -503643 
##END=
