
##TITLE=1675_3_a
##JCAMP-DX=5.01  $$ Nicolet v. 1
##DATATYPE=INFRARED SPECTRUM
##ORIGIN=UniL
##OWNER=Nicolet
##LONGDATE=2011/09/16
##TIME=11:55:12
##SPECTROMETER/DATA SYSTEM=Nicolet iS5
##DATA PROCESSING=
Ratio against background
%Transmittance->Absorbance
Truncated
ElementMultiply or ElementDivide
##COMMENTS=
Number of sample scans: 32
Collection length: 51.15 sec
Sample gain: 2.0
Background collected on: Ven Sep 16 11:51:09 2011 (GMT+02:00);
Number of background scans: 32
Background gain: 2.0
Sample spacing:  1.000
Number of scan points: 12415
Resolution points: 8192
Number of FFT points: 65536
Apodization: N-B fort;
Phase correction: Mertz;
Laser frequency: 15798.0 cm-1
Number of rejected sample scans: 0
Number of rejected background scans: 0
Bench serial number: ASB1000141;
##RESOLUTION=4.000
##XUNITS=1/CM
##YUNITS=ABSORBANCE
##FIRSTX=649.893372
##LASTX=4000.122314
##FIRSTY=0.071131
##MAXX=4000.122314
##MINX=649.893372
##MAXY=0.237382
##MINY=-0.000091
##XFACTOR=1.000000
##YFACTOR=1.000000E-009
##NPOINTS=6950
##DELTAX=0.482117
##ZPD=6100
##XYDATA=(X++(Y..Y))
649.893 71131248 71082272 71065024 71091832 71163224 71269288 71400024 
653.268 71555568 71750168 72011824 72368568 72836408 73410408 74065824 
656.643 74769272 75493688 76231160 76993224 77803200 78681288 79636256 
660.018 80663336 81753056 82901840 84120560 85429976 86850304 88384816 
663.393 90013872 91695456 93381288 95032768 96615184 98100328 99446064 
666.767 100579496 101405424 101842416 101877656 101579672 101060400 
669.660 100407736 99654544 98790416 97787832 96629744 95327392 93925680 
673.035 92485584 91073584 89735528 88488304 87329160 86247536 85236720 
676.410 84299552 83443168 82671184 81976288 81340832 80741824 80159216 
679.785 79583600 79015944 78462320 77927160 77406960 76889792 76362256 
683.159 75814328 75245856 74667344 74094672 73542728 73018184 72519560 
686.534 72039544 71572600 71117944 70682008 70274400 69903408 69569256 
689.909 69263720 68970824 68673160 68356592 68013696 67644816 67256264 
693.284 66857032 66457168 66067120 65698816 65364256 65076752 64848064 
696.659 64685792 64593508 64569860 64610580 64711140 64868188 65080144 
700.034 65345576 65661780 66022216 66416280 66831336 67253864 67673240 
703.408 68083760 68484080 68875952 69261344 69641280 70014304 70379664 
706.783 70737256 71090352 71444984 71808968 72188984 72589816 73016144 
710.158 73475072 73981080 74559936 75245776 76075592 77079592 78264128 
713.533 79601072 81017368 82408328 83644216 84595520 85168544 85318056 
716.908 85065808 84492304 83732728 82951848 82305600 81937752 81949080 
720.282 82386144 83241488 84448800 85891392 87397720 88770928 89814040 
723.657 90347864 90263624 89540800 88262584 86593688 84751672 82962480 
727.032 81396184 80157064 79271304 78704960 78388968 78248496 78225760 
730.407 78280472 78388808 78535008 78701896 78870968 79027624 79164616 
733.782 79286096 79403992 79531744 79676416 79835472 79999088 80156824 
737.156 80304136 80445120 80589696 80748368 80924336 81112568 81301640 
740.531 81480712 81646512 81805288 81970208 82152320 82355664 82572960 
743.906 82789968 82991840 83171816 83334248 83491880 83658760 83841952 
747.281 84039048 84240216 84434224 84616296 84790816 84968520 85159520 
750.656 85366208 85579776 85782792 85959160 86099800 86208288 86297648 
754.031 86384712 86480616 86587576 86699624 86809232 86914096 87019576 
757.405 87137288 87278232 87447680 87641952 87852184 88070104 88293688 
760.780 88528368 88783240 89062880 89362200 89666488 89958344 90227160 
764.155 90478592 90734296 91029248 91399112 91868512 92449016 93138928 
767.530 93929296 94809800 95772352 96812736 97934024 99156920 100532464 
770.905 102162912 104190944 106779320 110058280 114045608 118576904 
773.797 123250328 127494736 130609528 131941688 131101400 128044400 
776.690 123126120 116959112 110305440 103859184 98099616 93293904 89473496 
780.065 86513240 84204296 82338880 80756944 79351840 78073320 76903632 
783.440 75840608 74889216 74060128 73371760 72846520 72508872 72377760 
786.815 72461184 72758792 73267888 73990976 74942168 76147128 77635504 
790.189 79437048 81574344 84063008 86917936 90157304 93803736 97877152 
793.564 102378320 107270712 112456632 117778840 123013728 127872856 
796.457 132049856 135220784 137078064 137391664 136024080 132975416 
799.350 128386752 122536944 115801256 108574968 101266592 94228120 87719040 
802.724 81924032 76930056 72744496 69318520 66569580 64407080 62743940 
806.099 61514500 60672356 60184320 60023208 60154520 60524128 61060180 
809.474 61667272 62235668 62663936 62861292 62765068 62347572 61611328 
812.849 60586332 59319184 57871960 56312220 54705136 53116224 51599444 
816.224 50195012 48930076 47815604 46850964 46027616 45335604 44767068 
819.598 44318252 43989784 43783988 43702892 43747344 43917924 44217028 
822.973 44651416 45233736 45981276 46910280 48031940 49343476 50822808 
826.348 52419900 54056580 55630904 57013456 58071476 58685324 58764144 
829.723 58273280 57240588 55757768 53955908 51990672 50018824 48163968 
833.098 46518324 45132332 44016000 43149880 42492104 41991652 41590692 
836.473 41235092 40882516 40502908 40085512 39636968 39177796 38734284 
839.847 38330164 37982216 37695216 37465148 37282496 37138320 37027352 
843.222 36948156 36902052 36889932 36910132 36959340 37033484 37129728 
846.597 37248236 37390856 37559392 37753548 37969960 38203624 38450336 
849.972 38708748 38982096 39276476 39599620 39957040 40351804 40784744 
853.347 41256076 41768196 42327232 42940756 43617452 44364784 45187336 
856.721 46089180 47075904 48156048 49343476 50656380 52113976 53736264 
860.096 55540936 57541484 59747696 62160916 64769560 67538624 70404800 
863.471 73273184 76010576 78468832 80494448 81943912 82715720 82756688 
866.846 82074744 80737712 78871408 76646416 74244032 71852944 69642056 
870.221 67735896 66223972 65149896 64515464 64288572 64409272 64799368 
873.596 65359636 65982416 66559000 66979260 67154496 67024180 66562632 
876.970 65783628 64734408 63488664 62126740 60731804 59380948 58134804 
880.345 57044020 56147144 55469324 55026580 54822104 54846244 55075064 
883.720 55472148 55993856 56589972 57212576 57822636 58391028 58907144 
887.095 59378784 59833860 60313360 60865352 61536760 62360272 63349904 
890.470 64498088 65780192 67159600 68596480 70057640 71515488 72949160 
893.844 74342320 75676384 76928704 78071976 79070080 79880240 80454208 
897.219 80735560 80668880 80207160 79319024 78001664 76285072 74234512 
900.594 71938456 69502440 67039996 64650452 62421400 60421340 58692604 
903.969 57259908 56129344 55292228 54729076 54413336 54317876 54416864 
907.344 54691344 55130848 55731620 56494564 57421128 58510704 59759748 
910.719 61161976 62708528 64388328 66185036 68072096 70013728 71962464 
914.093 73865312 75677056 77366368 78926600 80377416 81764168 83151312 
917.468 84607520 86205872 88009104 90060504 92379616 94949920 97716704 
920.843 100577120 103396784 106028216 108327296 110197688 111609864 
923.736 112618456 113353184 114010400 114830232 116041976 117855672 
926.628 120424984 123817248 128000480 132818832 138005072 143147072 
929.521 147727168 151200144 153003360 152690688 150017360 144977088 
932.414 137833696 129065216 119320840 109267432 99511272 90559680 82735648 
935.789 76214176 71044848 67183200 64536960 62994196 62451392 62805236 
939.163 63943544 65736360 67999864 70495208 72954688 75077448 76592736 
942.538 77309232 77130528 76084112 74302528 72005328 69438864 66835000 
945.913 64390784 62230356 60415092 58953708 57819760 56969556 56354356 
949.288 55931924 55665064 55520868 55472524 55494624 55565600 55669548 
952.663 55795932 55940108 56101372 56281588 56482640 56705564 56950288 
956.037 57216432 57503580 57811660 58140676 58490112 58858008 59242348 
959.412 59640336 60050672 60473172 60909228 61360912 61829072 62313648 
962.787 62812508 63323216 63843660 64373760 64915204 65471112 66044324 
966.162 66635908 67244728 67867472 68500960 69142824 69793200 70454440 
969.537 71129808 71822136 72533072 73262632 74009920 74775056 75559136 
972.912 76364384 77193528 78048488 78930136 79838416 80773752 81737688 
976.286 82733888 83766840 84840608 85957944 87119632 88325488 89577536 
979.661 90880912 92244872 93683008 95208152 96830872 98556624 100384648 
983.036 102308488 104316096 106390584 108506048 110623144 112690904 
985.929 114640184 116390976 117866152 118994888 119728312 120047480 
988.821 119963704 119518352 118774344 117817816 116743984 115649488 
991.714 114631336 113769480 113123624 112732352 112609736 112751768 
994.607 113142504 113762584 114592904 115617368 116823632 118199392 
997.500 119731240 121404936 123204784 125115352 127122136 129207608 
1000.392 131348056 133511648 135653376 137721520 139664144 141434128 
1003.285 143000544 144350976 145492704 146449888 147260848 147978000 
1006.178 148659488 149370624 150178816 151141344 152304080 153694720 
1009.070 155320368 157172976 159234528 161486080 163909920 166492032 
1011.963 169220224 172079056 175048864 178108448 181235264 184410224 
1014.856 187617472 190836176 194034688 197161840 200139056 202873872 
1017.748 205266656 207226688 208695504 209652672 210123376 210172528 
1020.641 209905328 209458896 208980016 208628912 208553472 208866624 
1023.534 209645808 210915648 212653456 214794224 217248352 219917280 
1026.427 222694256 225478352 228171184 230669008 232875424 234702800 
1029.320 236081584 236975776 237381808 237327920 236860880 236040016 
1032.213 234929136 233587488 232075456 230447664 228743184 226979600 
1035.106 225140112 223173648 220992672 218492304 215571664 212141648 
1037.999 208146640 203566752 198415328 192736336 186601184 180109648 
1040.892 173376656 166531888 159710960 153030224 146588944 140460592 
1043.785 134688032 129295688 124293936 119684440 115466176 111636080 
1046.678 108188536 105114256 102401056 100033704 97994896 96266904 94831776 
1050.053 93669816 92759992 92079200 91601264 91300768 91153112 91135328 
1053.429 91227664 91409216 91654856 91934840 92209840 92433312 92558768 
1056.804 92539744 92337776 91928416 91300560 90460680 89431960 88256824 
1060.179 86992624 85706976 84477168 83376840 82470272 81811168 81433872 
1063.554 81355744 81577216 82084384 82850192 83834512 84989600 86256824 
1066.930 87570440 88867720 90087048 91176496 92099720 92831376 93358200 
1070.305 93675496 93784408 93691032 93406880 92949760 92343464 91616560 
1073.680 90804080 89943304 89074632 88243384 87494168 86870944 86413296 
1077.055 86148248 86088528 86229104 86550008 87016712 87586704 88217000 
1080.431 88862632 89480376 90031072 90476384 90784680 90938136 90937688 
1083.806 90810536 90609896 90418032 90332192 90455416 90893608 91733480 
1087.181 93040144 94847768 97151176 99898232 102981288 106250792 109506296 
1090.556 112516512 115062896 116944408 118018952 118224280 117578288 
1093.449 116177432 114170352 111751608 109123336 106467176 103943360 
1096.343 101661112 99679056 98009256 96620104 95447216 94399760 93381200 
1099.718 92292976 91044200 89568736 87824520 85802568 83526376 81051032 
1103.093 78455688 75826360 73255064 70823952 68596480 66622384 64932592 
1106.468 63542700 62457512 61673076 61180060 60964352 61008736 61293332 
1109.844 61793044 62480088 63321152 64275204 65296820 66332468 67321640 
1113.219 68205872 68928304 69441672 69716128 69737872 69511224 69054056 
1116.594 68395872 67572232 66619992 65577916 64481868 63362396 62246760 
1119.969 61155988 60106076 59110136 58178484 57318844 56536228 55830556 
1123.344 55194920 54614796 54070616 53540268 53004956 52456464 51899704 
1126.720 51354920 50852460 50430136 50124016 49960604 49954916 50106612 
1130.095 50401968 50814580 51310320 51850156 52390516 52889592 53310680 
1133.470 53625472 53820984 53900948 53886884 53812168 53718492 53648904 
1136.845 53637056 53706344 53864712 54104280 54402444 54724380 55029664 
1140.221 55272468 55409504 55405816 55234424 54881320 54343712 53628808 
1143.596 52751292 51730996 50592832 49363376 48070984 46744864 45411268 
1146.971 44092940 42808072 41568044 40378964 39243144 38160676 37131860 
1150.346 36158296 35243616 34392896 33611532 32904230 32274808 31725954 
1153.722 31259678 30878426 30584386 30379194 30263652 30236796 30296514 
1157.097 30440072 30665664 30972214 31360138 31830228 32382854 33016690 
1160.472 33729260 34515820 35370160 36284284 37246612 38241108 39247824 
1163.847 40240448 41190208 42068668 42847856 43504708 44021720 44385996 
1167.223 44591048 44635916 44525916 44271580 43888888 43397408 42817464 
1170.598 42169760 41473840 40746564 40003976 39261644 38533972 37836032 
1173.973 37181960 36583468 36050604 35590024 35205848 34900860 34677220 
1177.348 34537240 34483536 34518944 34645888 34866428 35182636 35597464 
1180.724 36115160 36740548 37478876 38334400 39309336 40404748 41621248 
1184.099 42960544 44426660 46025588 47763004 49642216 51659972 53805044 
1187.474 56053488 58368892 60703108 62990672 65156364 67120000 68798384 
1190.849 70123872 71051632 71567016 71688696 71464512 70965328 70265984 
1194.225 69440584 68550896 67637000 66719972 65802596 64875380 63922464 
1197.600 62928276 61882940 60783020 59632468 58439356 57213976 55965660 
1200.975 54701640 53428216 52151708 50880624 49628028 48410004 47244880 
1204.350 46151596 45145052 44234672 43423664 42708476 42081004 41530528 
1207.726 41047020 40621028 40244880 39912796 39619364 39360268 39132688 
1211.101 38935884 38772468 38648040 38571048 38551132 38597700 38719324 
1214.476 38922912 39213732 39595736 40071344 40641184 41303520 42054980 
1217.851 42890572 43805244 44795204 45858120 46992828 48198772 49474684 
1221.227 50818864 52230176 53709752 55262384 56896612 58624416 60457516 
1224.602 62405180 64471304 66653056 68939680 71310712 73736544 76175520 
1227.977 78570216 80854360 82950008 84773464 86249672 87311456 87909544 
1231.352 88019816 87645240 86821656 85615120 84127592 82487456 80832296 
1234.728 79313216 78070584 77223496 76876224 77104760 77961376 79480096 
1238.103 81675104 84542944 88057648 92170960 96803584 101838440 107134912 
1241.478 112517592 117783840 122730120 127139272 130804200 133556712 
1244.371 135267648 135874944 135387920 133887248 131511744 128435256 
1247.264 124867832 121023600 117105008 113303464 109761552 106565456 
1250.157 103734120 101214512 98891136 96600864 94178928 91478168 88402440 
1253.532 84929400 81107856 77050200 72897848 68810608 64932904 61368428 
1256.908 58183372 55396328 52987996 50909716 49097212 47482888 45997964 
1260.283 44585832 43203276 41820472 40423296 39009500 37585516 36162580 
1263.658 34753308 33370666 32025654 30729212 29491982 28323618 27232786 
1267.033 26225350 25302950 24462842 23699196 23005432 22375738 21806948 
1270.409 21298022 20848610 20457660 20122382 19838378 19601386 19407694 
1273.784 19255130 19141710 19064846 19019182 18997304 18990832 18991940 
1277.159 18996126 19002220 19012120 19029082 19055706 19093478 19142542 
1280.534 19202140 19270992 19346162 19421136 19485034 19522464 19515394 
1283.910 19448512 19313252 19112140 18858310 18574060 18287158 18022654 
1287.285 17801600 17638762 17542220 17517038 17565992 17690700 17891432 
1290.660 18165700 18508220 18909562 19357940 19839868 20338964 20836548 
1294.035 21312218 21742812 22107166 22389344 22581336 22686230 22716778 
1297.411 22694364 22641684 22580952 22530904 22504766 22512094 22559068 
1300.786 22648702 22779836 22945660 23134192 23327596 23505662 23650246 
1304.161 23746194 23783748 23758408 23668894 23516680 23305606 23042990 
1307.536 22740066 22412440 22079554 21759950 21469406 21218686 21012482 
1310.912 20851530 20735678 20665862 20644700 20675592 20760354 20898150 
1314.287 21085064 21316638 21589252 21902142 22257178 22656486 23100260 
1317.662 23585276 24104246 24648912 25212274 25790188 26381546 26985698 
1321.037 27599484 28215234 28819854 29396812 29930518 30408158 30823856 
1324.413 31180142 31489476 31774220 32063324 32393530 32801948 33317894 
1327.788 33958220 34717880 35568840 36459776 37327772 38111300 38758628 
1331.163 39242168 39559948 39734884 39805908 39821232 39831728 39880904 
1334.538 40006088 40235868 40587556 41068656 41675588 42396784 43213524 
1337.914 44105300 45054108 46044672 47065088 48105188 49154204 50199216 
1341.289 51225608 52215380 53148276 53999992 54738776 55328996 55731096 
1344.664 55905732 55822796 55464016 54826240 53920384 52770076 51407616 
1348.039 49868984 48196176 46434576 44630520 42837140 41109888 39500976 
1351.415 38061672 36831860 35836480 35086860 34580436 34305392 34242400 
1354.790 34368328 34653676 35060168 35544172 36055968 36544828 36969260 
1358.165 37297188 37510372 37603980 37584216 37466808 37274624 37041712 
1361.540 36813284 36641180 36583648 36691188 36995348 37507084 38215128 
1364.916 39095020 40115016 41243400 42447016 43683584 44902444 46039256 
1368.291 47017896 47766444 48222392 48343556 48115476 47549352 46681700 
1371.666 45566092 44277376 42905860 41546132 40299556 39253516 38465252 
1375.041 37957592 37716900 37707612 37886648 38221316 38697008 39318044 
1378.417 40104808 41088032 42305572 43793664 45584932 47695952 50113304 
1381.792 52772244 55539804 58231372 60607664 62417036 63446948 63530272 
1385.167 62586500 60637264 57830436 54431852 50776588 47227484 44066608 
1388.542 41452696 39424848 37928372 36863276 36116348 35590416 35206172 
1391.917 34901252 34631824 34365708 34082848 33777392 33456188 33135616 
1395.293 32833218 32562104 32326490 32122470 31942800 31780742 31634104 
1398.668 31505256 31400170 31324882 31283360 31275704 31299454 31351094 
1402.043 31428028 31530518 31662796 31832938 32053012 32336626 32694798 
1405.418 33133506 33651236 34239780 34886676 35578872 36306432 37062172 
1408.794 37841856 38642824 39461424 40293704 41135600 41983548 42834068 
1412.169 43680912 44510976 45303424 46030380 46661188 47173960 47560480 
1415.544 47830584 48007884 48125728 48220728 48326000 48475048 48700576 
1418.919 49031516 49491060 50087088 50808320 51628400 52513672 53433984 
1422.295 54366804 55306604 56264500 57265876 58339332 59505112 60766860 
1425.670 62110992 63513628 64948520 66396668 67843112 69273544 70669688 
1429.045 72002744 73235056 74330088 75260992 76023168 76636816 77145288 
1432.420 77603768 78064752 78575496 79173248 79893576 80782528 81901824 
1435.796 83324608 85119176 87310928 89867864 92709488 95731672 98825528 
1439.171 101874840 104760752 107335312 109428872 110887952 111580304 
1442.064 111432568 110439160 108653472 106172088 103108688 99590864 95737288 
1445.439 91647584 87417688 83140600 78924728 74915200 71272568 68145592 
1448.814 65636336 63770668 62509552 61776772 61497096 61612932 62087288 
1452.190 62896492 64009384 65379360 66954940 68679528 70509120 72421840 
1455.565 74407400 76460312 78560736 80671600 82740504 84718448 86581832 
1458.940 88325568 89958016 91492808 92945736 94329512 95647376 96890840 
1462.315 98028320 99003368 99748920 100201736 100335840 100181664 99827968 
1465.691 99387960 98951848 98571256 98251112 97968280 97687456 97372688 
1469.066 96986600 96476216 95763640 94742464 93287136 91302528 88775840 
1472.441 85817544 82632632 79446560 76422376 73625080 71052296 68683368 
1475.816 66519768 64602732 62999672 61769020 60942968 60514148 60450052 
1479.192 60713396 61283520 62163900 63376852 64947984 66889032 69188256 
1482.567 71814480 74728856 77896272 81298800 84928632 88774216 92808032 
1485.942 96959800 101099408 105048176 108567352 111382600 113227640 
1488.835 113864120 113146200 111070968 107804648 103656928 98989176 94144312 
1492.210 89358656 84744544 80331360 76088504 71973296 67973280 64119480 
1495.586 60492668 57205356 54358992 52010284 50156408 48754660 47743216 
1498.961 47066120 46685608 46576528 46720732 47100316 47692476 48469124 
1502.336 49400092 50445284 51555680 52669440 53689808 54485600 54889588 
1505.711 54718740 53848700 52289408 50203044 47820224 45332736 42840576 
1509.087 40368640 37912936 35477112 33081942 30775090 28616344 26653940 
1512.462 24919976 23419872 22137846 21047640 20120890 19332028 18657582 
1515.837 18078300 17580516 17157062 16809476 16543187 16361037 16257763 
1519.212 16216831 16212290 16219171 16223297 16233031 16276991 16390594 
1522.588 16593857 16881810 17229800 17606740 17989500 18368102 18751222 
1525.963 19159578 19618198 20142894 20734982 21384402 22076590 22800962 
1529.338 23553268 24336000 25154726 26013380 26913532 27853812 28830512 
1532.713 29840040 30878676 31941198 33016726 34091092 35145560 36161176 
1536.089 37115580 37985688 38750948 39389144 39883520 40223328 40408712 
1539.464 40447040 40350932 40139548 39835940 39466392 39055248 38616712 
1542.839 38149500 37638124 37063220 36413220 35697352 34946140 34201924 
1546.214 33500246 32851872 32243400 31643372 31019792 30355388 29660282 
1549.590 28969122 28328678 27773658 27312384 26927280 26587780 26266990 
1552.965 25953966 25658458 25403938 25213714 25094484 25030596 24984758 
1556.340 24909272 24749292 24449836 23970996 23309940 22528216 21741070 
1559.715 21066352 20563260 20225400 20010230 19868136 19757644 19646556 
1563.091 19516086 19360642 19190572 19027212 18895996 18816442 18792740 
1566.466 18813742 18857514 18902294 18932232 18943896 18947116 18961098 
1569.841 19005440 19090672 19216788 19375124 19555112 19746338 19939628 
1573.216 20125958 20293098 20427654 20518968 20565934 20583584 20602590 
1576.592 20659538 20777524 20959936 21193078 21457570 21737480 22025380 
1579.967 22323866 22642244 22992086 23381722 23812518 24278006 24765182 
1583.342 25255152 25725180 26150284 26502120 26753232 26881698 26874966 
1586.717 26735684 26483770 26158624 25812552 25504878 25296734 25237032 
1590.093 25361046 25686334 26210604 26909088 27730848 28604242 29432480 
1593.468 30105984 30524948 30604260 30297226 29604164 28573382 27290930 
1596.843 25856928 24375706 22931304 21582356 20367680 19306670 18405574 
1600.218 17661332 17063764 16598022 16247891 16000714 15849754 15794704 
1603.594 15838860 15985554 16233306 16573720 16990368 17458980 17950546 
1606.969 18427040 18845266 19160582 19327490 19310064 19087798 18659552 
1610.344 18047248 17293102 16456835 15599748 14774514 14017607 13342439 
1613.719 12745085 12210605 11722154 11266454 10839292 10447947 10107179 
1617.094 9833002 9635283 9513815 9459393 9457700 9490210 9537524 9581895 
1620.952 9607809 9607097 9581658 9543722 9511343 9501386 9522655 9572817 
1624.809 9642431 9719882 9797552 9872861 9946829 10022063 10099888 10180101 
1628.667 10261652 10345085 10433692 10531891 10643355 10767856 10900376 
1632.042 11030355 11144700 11230887 11279139 11285531 11253566 11195594 
1635.417 11129708 11074506 11043576 11041027 11062949 11100508 11143306 
1638.792 11180227 11200864 11198756 11172373 11126581 11071038 11017032 
1642.168 10972174 10937106 10904623 10861679 10793806 10688553 10541363 
1645.543 10358149 10156799 9962017 9798060 9682544 9620851 9609130 9636739 
1649.400 9690947 9755564 9810362 9831138 9788706 9658252 9436705 9163932 
1653.258 8916965 8764085 8727505 8781261 8882334 8991818 9086545 9156757 
1657.115 9202139 9227962 9240046 9242110 9233852 9211548 9170395 9106948 
1660.973 9021317 8917168 8801446 8683153 8571448 8474198 8396597 8340861 
1664.830 8305533 8285607 8272503 8255990 8223977 8166644 8078295 7960805 
1668.688 7823679 7681875 7551782 7444951 7366253 7313919 7282178 7263208 
1672.545 7246969 7223116 7180062 7108350 7004861 6877798 6746095 6632162 
1676.402 6552500 6510590 6497742 6498549 6497641 6485634 6460948 6429639 
1680.260 6400855 6380814 6367398 6348737 6305098 6216657 6073226 5886479 
1684.117 5690951 5531216 5435483 5403510 5414178 5440650 5462929 5469606 
1687.975 5457762 5430216 5392540 5350204 5307537 5268731 5238011 5219030 
1691.832 5213900 5220439 5231371 5233451 5211351 5152168 5053535 4929086 
1695.689 4808090 4722164 4686994 4696775 4727222 4748928 4732481 4659999 
1699.547 4532549 4377055 4237576 4150022 4126172 4152264 4204486 4259525 
1703.404 4301387 4321465 4317985 4295396 4262537 4230516 4208367 4201274 
1707.262 4210073 4231955 4262102 4295296 4328025 4358480 4387598 4417856 
1711.119 4452067 4491570 4536299 4583746 4631164 4676142 4717240 4753852 
1714.977 4784974 4807521 4816500 4807119 4777972 4734993 4691282 4663181 
1718.834 4661540 4688702 4738008 4798241 4857275 4906332 4941486 4963773 
1722.691 4977883 4989010 5001210 5015523 5030640 5044518 5056015 5065402 
1726.549 5073313 5079951 5083638 5081761 5072308 5055412 5034864 5016092 
1730.406 5003490 4996417 4987804 4963605 4906533 4803802 4655612 4482731 
1734.264 4320394 4204084 4150223 4151896 4188059 4234698 4273445 4291984 
1738.121 4285893 4257886 4216129 4170663 4130487 4101385 4084628 4079845 
1741.979 4084996 4098576 4118813 4143767 4171666 4201408 4232791 4266418 
1745.836 4303227 4343218 4385021 4425321 4460704 4488021 4505832 4514604 
1749.693 4516110 4512829 4507405 4502082 4499437 4501915 4511088 4526590 
1753.551 4545574 4561981 4567171 4553476 4515206 4453238 4374779 4292519 
1757.408 4219241 4161630 4119214 4084595 4048072 4000550 3937921 3862028 
1761.266 3780700 3703665 3639675 3593400 3564235 3549269 3544158 3544893 
1765.123 3548300 3550873 3549603 3542287 3528458 3511288 3495656 3487506 
1768.980 3488742 3496858 3504173 3501200 3479790 3439077 3386613 3338629 
1772.838 3311784 3315724 3349915 3405547 3470538 3534905 3593735 3646959 
1776.695 3696915 3746108 3794605 3839229 3875634 3900608 3914282 3920266 
1780.553 3925115 3933942 3948720 3967011 3983563 3993461 3993862 3986205 
1784.410 3974735 3965406 3962363 3967011 3978212 3993628 4011787 4031852 
1788.268 4053457 4074995 4092455 4099780 4089846 4057638 4002690 3931367 
1792.125 3855175 3786148 3733442 3699254 3680240 3670316 3663766 3656816 
1795.982 3647794 3636066 3620530 3599281 3570415 3532533 3486470 3435570 
1799.840 3384609 3338629 3301167 3272756 3252492 3238672 3230593 3228557 
1803.697 3233731 3246082 3264276 3285376 3305674 3322235 3334288 3342769 
1807.555 3350182 3358196 3367679 3376962 3384609 3389618 3392590 3396764 
1811.412 3405580 3421877 3445723 3474747 3505476 3534838 3561997 3588322 
1815.270 3616854 3651035 3692404 3740493 3792866 3845547 3895459 3939927 
1819.127 3978079 4008911 4032521 4048206 4056132 4056333 4049343 4035798 
1822.984 4016101 3991087 3962028 3931735 3904753 3886633 3881718 3891280 
1826.842 3911875 3936383 3954806 3957882 3940863 3905857 3861994 3822381 
1830.699 3799685 3799719 3821513 3858518 3902447 3947349 3990652 4033156 
1834.557 4077404 4125168 4176451 4229312 4281844 4333412 4386360 4445573 
1838.414 4515775 4600389 4699420 4809363 4924495 5038886 5147708 5247972 
1842.271 5339134 5421962 5499974 5578704 5665136 5766728 5888360 6030017 
1846.129 6187046 6350485 6509345 6652753 6773859 6869854 6942705 6996914 
1849.986 7036716 7063826 7076994 7072313 7046583 6998833 6931460 6849522 
1853.844 6757840 6659582 6554687 6441140 6316865 6182004 6039827 5896623 
1857.701 5758065 5628647 5509235 5397874 5291840 5189689 5091852 5000741 
1861.559 4918999 4847491 4785275 4729835 4679123 4632503 4591079 4556958 
1865.416 4530808 4511121 4493612 4473291 4446878 4415614 4384987 4363400 
1869.273 4357543 4369725 4396802 4431313 4465257 4493779 4514771 4529502 
1873.131 4540384 4548922 4554949 4557293 4553978 4544302 4529134 4510117 
1876.988 4488222 4462846 4431949 4392585 4343653 4286362 4224192 4162199 
1880.846 4103928 4050213 3999112 3947617 3893286 3837056 3783173 3736717 
1884.703 3702128 3679872 3666406 3654744 3638472 3613046 3578600 3539682 
1888.561 3502136 3472643 3455809 3452837 3463491 3486303 3519272 3560360 
1892.418 3606497 3653642 3696815 3732907 3760713 3782505 3803162 3827997 
1896.275 3860423 3900541 3945611 3991522 4035798 4077705 4119114 4162835 
1900.133 4210073 4259157 4307243 4350347 4386594 4417354 4446276 4477308 
1903.990 4512829 4551601 4589505 4621084 4642484 4652229 4652531 4646569 
1907.848 4637728 4627112 4614654 4599652 4582306 4565497 4552304 4546043 
1911.705 4547650 4554815 4563387 4569548 4571256 4568945 4564124 4557125 
1915.563 4545473 4524011 4486548 4429338 4355367 4273311 4196523 4135772 
1919.420 4096335 4074494 4061684 4047303 4024060 3991588 3954806 3921437 
1923.277 3897298 3883624 3876002 3868714 3857348 3841803 3826560 3817234 
1927.135 3817133 3824889 3834516 3838159 3830872 3812053 3785881 3759677 
1930.992 3739424 3726891 3719873 3714259 3706740 3697984 3692103 3693239 
1934.850 3702763 3717567 3730233 3733041 3722045 3699354 3673323 3654544 
1938.707 3650668 3663532 3687993 3714961 3735179 3744270 3742766 3735647 
1942.564 3728930 3725354 3724117 3722647 3718436 3711953 3707208 3708912 
1946.422 3719840 3739758 3764523 3789725 3813323 3837156 3865371 3902848 
1950.279 3950192 4002356 4050547 4084628 4098610 4093592 4075965 4055028 
1954.137 4038374 4029344 4025197 4020716 4011552 3997441 3982058 3971090 
1957.994 3967111 3969987 3974701 3975839 3970388 3961861 3957314 3966075 
1961.852 3994330 4042822 4105801 4175614 4244301 4306574 4360622 4405103 
1965.709 4436702 4451799 4444836 4414074 4363935 4305034 4250458 4211311 
1969.566 4192475 4190970 4199936 4211177 4221449 4234564 4257652 4297806 
1973.424 4357275 4432015 4513197 4594227 4673362 4754221 4845180 4951272 
1977.281 5069492 5187576 5287647 5353693 5377544 5361777 5315487 5251560 
1981.139 5180903 5108615 5036305 4965281 4897888 4840120 4799380 4779815 
1984.996 4781021 4797001 4818979 4839484 4856873 4874331 4898993 4936358 
1988.854 4985793 5040160 5089371 5123802 5139963 5142377 5140332 5143148 
1992.711 5156090 5177114 5199145 5214906 5221177 5219936 5218259 5223591 
1996.568 5239856 5265646 5294691 5319948 5337994 5349097 5357349 5367312 
2000.426 5380026 5391063 5393143 5378718 5345474 5296636 5241566 5190259 
2004.283 5151363 5128060 5118539 5118371 5123936 5133190 5146233 5162796 
2008.141 5179495 5190594 5190963 5177818 5153978 5127758 5109218 5105363 
2011.998 5118304 5142042 5167222 5186101 5195557 5198575 5202498 5214336 
2015.855 5237341 5269872 5307101 5344669 5383481 5427900 5484135 5556184 
2019.713 5642276 5733824 5819211 5887789 5933167 5955908 5961047 5953556 
2023.570 5937601 5913853 5881341 5841140 5798425 5759509 5731608 5718279 
2027.428 5715727 5716096 5710221 5692529 5664767 5635697 5615389 5612469 
2031.285 5628883 5659463 5695047 5728552 5756756 5782006 5810179 5844264 
2035.143 5883524 5922620 5954329 5974720 5986477 5996253 6013185 6043960 
2039.000 6088380 6140533 6191449 6232891 6260488 6276120 6283986 6288323 
2042.857 6290979 6290777 6284289 6269934 6249665 6227917 6210808 6202943 
2046.715 6204523 6212657 6221295 6225631 6221799 6208019 6181735 6140566 
2050.572 6081122 6002031 5906061 5802018 5702265 5622203 5573334 5558533 
2054.430 5571253 5597734 5621632 5630058 5618913 5591760 5557795 5526148 
2058.287 5502457 5487256 5477592 5470345 5463701 5459842 5461788 5471317 
2062.145 5487491 5506349 5521920 5531383 5534471 5534974 5538498 5548969 
2066.002 5566621 5588739 5609515 5624150 5630729 5630695 5626533 5620961 
2069.859 5614348 5604481 5589008 5567159 5540478 5513363 5490041 5472425 
2073.717 5459339 5446756 5428907 5402537 5368084 5328803 5290163 5256624 
2077.574 5229057 5205717 5183317 5159075 5132788 5107207 5085717 5070966 
2081.432 5063692 5061547 5061211 5061011 5060608 5061580 5066408 5075224 
2085.289 5085617 5093025 5091718 5077973 5051524 5015221 4973660 4931566 
2089.146 4891922 4854729 4819615 4785878 4754388 4727892 4709502 4700794 
2093.004 4701598 4709502 4721360 4734658 4748627 4763199 4778944 4795125 
2096.861 4809464 4819046 4822095 4819414 4814791 4814355 4822865 4843069 
2100.719 4874062 4911426 4949965 4986128 5018539 5047970 5076163 5102848 
2104.576 5126082 5143316 5151966 5152436 5148278 5145495 5149686 5164741 
2108.434 5190024 5222082 5256624 5290163 5321658 5352586 5384891 5418943 
2112.291 5453568 5484740 5508631 5523463 5530477 5533296 5536988 5545512 
2116.148 5560010 5579644 5602366 5626298 5651406 5679000 5709751 5743795 
2120.006 5779151 5811790 5838051 5855884 5865589 5869687 5871400 5872844 
2123.863 5873986 5873616 5869485 5860988 5849738 5837850 5827338 5818372 
2127.721 5807928 5790903 5762866 5720797 5665572 5601560 5534437 5470512 
2131.578 5413843 5367044 5331252 5308745 5301634 5311965 5340309 5382945 
2135.436 5432296 5479236 5514906 5534169 5537726 5530477 5519068 5509168 
2139.293 5503195 5500812 5500041 5499269 5498162 5499370 5504604 5514705 
2143.150 5528464 5543633 5557325 5568803 5579341 5590014 5601124 5610354 
2147.008 5612267 5601158 5575247 5536518 5493531 5456956 5435114 5431960 
2150.865 5444844 5465445 5483766 5492759 5488497 5471653 5445045 5411629 
2154.723 5373485 5335948 5307504 5303814 5344434 5449038 5627103 5874288 
2158.580 6165670 6464580 6733980 6944860 7084673 7156819 7174874 7154259 
2162.438 7109798 7052443 6987722 6921798 6860025 6807617 6768138 6742730 
2166.295 6727486 6717491 6707093 6693095 6675195 6656050 6637343 6619781 
2170.152 6602489 6581632 6555360 6524145 6490208 6458089 6432498 6414978 
2174.010 6405764 6404049 6407882 6416054 6428193 6442586 6454760 6459636 
2177.867 6450153 6422174 6377283 6322412 6268254 6226438 6204489 6202809 
2181.725 6216825 6237597 6257799 6274607 6289869 6306544 6328396 6354688 
2185.582 6381486 6403679 6418240 6424931 6428697 6435995 6452002 6478571 
2189.439 6513415 6551424 6588360 6622405 6653661 6683640 6712915 6738355 
2193.297 6754980 6758244 6745927 6721159 6692120 6667052 6653863 6655007 
2197.154 6667860 6684919 6699758 6707026 6705613 6697099 6684010 6667388 
2201.012 6647504 6623112 6594752 6565956 6542746 6531780 6537633 6560002 
2204.869 6593002 6628730 6658270 6676002 6681588 6678492 6671830 6666884 
2208.727 6667119 6672469 6682631 6696797 6714059 6734553 6757739 6781062 
2212.584 6801424 6815459 6820676 6817209 6807852 6795803 6784697 6776451 
2216.441 6770595 6765547 6760802 6755855 6752321 6751749 6754811 6760701 
2220.299 6767768 6773119 6774802 6772951 6768205 6761744 6753903 6743470 
2224.156 6728394 6706992 6679401 6646965 6613389 6581026 6550348 6520041 
2228.014 6487147 6448908 6405999 6362254 6323723 6296996 6286137 6291247 
2231.871 6307989 6329405 6348502 6360808 6364775 6361715 6354587 6346787 
2235.729 6339458 6334381 6332095 6332969 6337440 6345745 6356504 6368171 
2239.586 6378897 6388077 6396449 6406941 6421569 6441712 6466295 6491486 
2243.443 6511767 6523506 6525221 6519066 6510220 6504099 6503897 6510455 
2247.301 6520378 6529089 6532554 6529056 6518864 6504939 6490208 6476654 
2251.158 6465387 6456677 6450893 6449447 6454088 6466127 6485634 6510758 
2255.016 6537263 6560910 6577494 6584962 6583314 6574635 6560809 6544663 
2258.873 6528248 6513045 6500398 6491788 6487887 6488695 6493168 6499255 
2262.730 6504939 6509648 6513583 6518729 6527643 6541972 6561818 6586005 
2266.588 6611976 6637579 6662106 6685524 6708608 6731894 6754004 6772312 
2270.445 6784259 6787928 6783451 6773119 6761037 6751110 6745591 6744985 
2274.303 6747441 6751211 6754407 6756258 6757403 6758715 6760902 6764335 
2278.160 6769114 6775004 6782812 6793918 6808727 6827610 6849152 6870494 
2282.018 6888773 6901834 6908972 6911462 6911664 6911227 6911261 6911496 
2285.875 6910520 6907288 6901902 6895000 6888705 6885103 6885339 6889345 
2289.732 6896482 6905504 6915873 6927858 6941931 6958765 6978496 7000618 
2293.590 7023920 7047695 7071606 7095450 7119734 7144356 7168407 7190977 
2297.447 7210718 7226990 7240433 7251820 7262366 7272474 7281504 7288007 
2301.305 7290399 7287771 7280425 7270351 7259839 7250371 7243161 7237468 
2305.162 7232043 7225844 7218567 7211122 7204991 7201420 7200982 7203071 
2309.020 7206540 7209775 7212267 7214120 7215637 7217624 7220353 7223149 
2312.877 7225339 7226720 7227225 7227798 7229146 7231909 7235513 7239321 
2316.734 7242083 7243262 7243498 7244340 7247575 7254684 7265668 7279617 
2320.592 7294880 7309302 7320726 7327533 7327533 7318063 7296565 7260917 
2324.449 7210246 7146781 7074940 7000955 6931427 6872177 6825624 6791865 
2328.307 6768441 6752556 6741586 6734855 6732702 6736403 6746566 6762484 
2332.164 6782206 6803948 6825287 6845584 6865141 6884464 6904292 6925030 
2336.021 6945971 6967182 6988429 7010080 7031935 7054363 7075950 7095383 
2339.879 7111145 7122766 7130378 7135430 7139236 7142133 7143582 7142200 
2343.736 7137249 7129906 7123911 7125460 7141628 7178243 7237872 7319344 
2347.594 7418290 7528384 7643227 7756752 7863928 7961278 8045992 8116812 
2351.451 8173632 8218574 8254537 8286012 8317522 8352110 8391597 8436021 
2355.309 8484166 8534851 8587129 8640733 8695965 8753098 8811387 8870091 
2359.166 8928533 8986508 9044998 9105391 9168873 9235476 9304359 9373117 
2363.023 9439651 9501962 9559777 9613568 9664282 9711886 9756038 9794874 
2366.881 9827071 9851033 9866795 9874930 9876387 9871811 9861236 9844594 
2370.738 9822156 9795586 9767627 9742212 9723576 9715172 9719984 9739671 
2374.596 9775151 9827443 9897064 9984665 10089884 10212021 10348817 10497911 
2378.453 10656937 10824005 10997831 11178221 11364433 11555456 11749865 
2381.828 11945415 12140101 12331772 12518514 12697659 12866436 13020698 
2385.204 13155821 13268028 13354808 13415804 13453465 13471647 13474621 
2388.579 13465837 13447074 13418265 13378556 13326381 13260991 13182769 
2391.954 13092881 12992838 12884594 12770165 12652013 12533212 12417478 
2395.329 12308286 12208900 12121361 12046443 11983937 11933427 11894979 
2398.705 11869847 11860245 11868179 11895047 11941056 12004714 12083509 
2402.080 12174346 12274984 12383589 12499826 12623223 12754468 12893946 
2405.455 13042584 13201452 13371859 13554605 13750252 13958408 14177824 
2408.830 14406668 14643583 14887176 15136429 15390872 15648797 15907733 
2412.206 16164210 16413579 16651109 16872648 17074724 17254554 17410452 
2415.581 17540670 17643836 17719516 17768046 17790968 17790864 17771120 
2418.956 17734532 17684004 17621268 17547706 17464294 17372860 17274378 
2422.331 17170816 17063524 16953640 16842266 16731095 16622568 16520642 
2425.707 16430199 16356152 16302861 16273173 16267875 16286487 16327871 
2429.082 16390869 16474867 16579777 16705407 16851258 17016626 17199774 
2432.457 17399242 17613642 17841956 18083412 18337616 18604110 18882742 
2435.832 19174156 19479524 19800608 20139666 20498300 20876700 21274288 
2439.208 21688958 22119054 22563848 23024088 23501780 23999606 24519808 
2442.583 25063310 25629778 26217820 26825550 27451496 28094220 28752408 
2445.958 29424290 30107262 30798388 31494248 32191728 32888186 33581392 
2449.333 34269360 34949516 35619008 36274556 36913380 37532840 38131084 
2452.708 38706140 39255220 39774356 40257608 40697984 41087852 41419524 
2456.084 41685872 41881516 42001472 42042020 42000628 41875384 41665336 
2459.459 41371124 40993488 40534520 39996492 39382436 38695956 37941644 
2462.834 37125220 36253628 35334432 34377044 33390272 32383748 31367868 
2466.209 30351976 29345902 28359484 27401238 26479686 25601976 24773812 
2469.585 23999746 23282532 22623464 22022348 21477762 20987198 20546376 
2472.960 20150530 19793848 19470308 19174746 18902572 18650248 18415322 
2476.335 18195794 17989706 17795180 17610364 17433732 17264930 17103158 
2479.710 16948506 16800764 16658856 16521744 16388357 16258417 16132675 
2483.086 16013468 15903333 15804291 15717570 15642304 15576565 15517909 
2486.461 15464309 15414560 15368696 15327024 15289990 15257283 15228662 
2489.836 15203681 15182475 15166039 15155540 15152109 15156192 15166828 
2493.211 15182475 15201347 15222108 15244620 15269398 15296957 15327368 
2496.587 15359839 15392383 15423384 15451639 15476841 15500225 15523197 
2499.962 15546447 15570005 15592879 15613726 15631279 15645294 15656216 
2503.337 15665250 15672980 15679643 15684761 15687957 15689228 15689675 
2506.712 15691290 15696030 15705271 15719116 15735848 15752511 15765980 
2510.088 15773298 15772095 15760997 15739042 15705511 15660098 15602976 
2513.463 15534736 15457408 15373090 15284121 15192700 15100269 15007171 
2516.838 14914128 14821996 14732215 14647318 14569359 14500116 14440236 
2520.213 14389748 14347040 14310740 14279305 14251878 14227637 14205965 
2523.589 14186589 14169232 14154410 14143558 14138698 14141950 14154649 
2526.964 14176558 14206171 14240306 14275744 14310123 14342417 14372624 
2530.339 14402215 14432460 14464557 14498815 14535644 14575047 14617504 
2533.714 14663905 14714151 14768310 14824876 14882512 14939813 14996539 
2537.090 15053100 15111728 15174411 15242698 15317242 15397017 15480550 
2540.465 15566296 15652884 15739627 15826249 15912270 15996933 16079446 
2543.840 16158983 16235715 16310189 16383711 16457213 16530968 16604530 
2547.215 16676657 16745558 16810442 16871270 16929040 16984718 17039608 
2550.591 17093678 17146930 17198256 17247554 17295030 17341478 17387516 
2553.966 17433732 17479470 17523246 17563612 17598702 17627582 17650530 
2557.341 17668060 17680312 17687454 17688698 17683384 17670372 17649494 
2560.716 17620680 17584762 17542428 17493856 17439458 17379550 17314374 
2564.092 17245210 17173402 17100572 17028270 16957772 16889734 16825252 
2567.467 16765324 16711295 16664881 16627148 16598642 16578952 16567145 
2570.842 16561912 16562566 16568899 16581224 16599778 16624564 16654380 
2574.217 16687501 16722107 16756784 16791086 16825838 16862416 16902550 
2577.593 16947334 16997364 17052426 17111876 17175230 17241832 17311478 
2580.968 17383930 17458912 17536286 17615780 17697082 17780196 17865154 
2584.343 17951306 18038196 18124866 18210444 18294658 18377470 18459296 
2587.718 18540966 18622716 18703932 18783952 18861148 18934690 19004366 
2591.094 19070902 19135824 19200616 19266524 19333932 19402392 19470862 
2594.469 19538370 19604262 19668848 19732920 19797490 19863904 19933140 
2597.844 20006204 20083966 20167120 20256158 20351638 20453598 20561802 
2601.219 20675974 20795912 20920922 21051118 21186050 21325094 21467736 
2604.594 21613208 21761030 21911026 22063412 22218606 22376854 22537884 
2607.970 22700646 22863718 23024928 23182980 23336268 23483976 23625088 
2611.345 23758444 23882490 23995332 24094686 24178962 24247174 24299240 
2614.720 24335860 24358076 24367190 24364210 24349946 24325242 24291496 
2618.095 24249976 24202398 24150484 24095912 24040016 23984128 23929088 
2621.471 23876084 23826062 23779790 23737830 23700282 23667354 23638734 
2624.846 23614944 23596506 23584576 23580134 23584472 23598080 23621170 
2628.221 23653568 23694332 23743394 23800092 23864182 23935180 24012492 
2631.596 24095036 24181486 24270824 24362038 24454570 24548522 24644390 
2634.972 24742802 24844608 24950364 25060678 25175968 25295962 25419922 
2638.347 25546764 25675156 25803620 25930752 26055808 26178400 26298530 
2641.722 26416122 26531316 26643898 26753690 26860620 26964930 27067504 
2645.097 27169398 27272160 27376676 27483866 27594046 27707256 27823218 
2648.473 27942000 28063608 28188222 28316050 28447244 28581840 28719944 
2651.848 28861672 29007766 29158480 29314706 29476734 29644956 29818924 
2655.223 29998500 30183158 30372480 30566220 30764172 30966236 31172132 
2658.598 31381364 31593836 31808622 32025476 32244008 32463864 32684938 
2661.974 32906484 33128354 33350020 33571152 33791684 34011568 34231140 
2665.349 34450820 34670864 34891880 35114232 35338024 35563732 35791176 
2668.724 36020468 36251936 36485756 36722016 36961288 37203612 37449112 
2672.099 37697132 37946852 38196820 38445844 38692044 38934112 39170616 
2675.475 39400464 39622812 39837176 40043728 40243100 40436568 40626196 
2678.850 40813936 41002268 41193484 41389492 41592588 41804968 42028916 
2682.225 42267112 42521956 42795748 43089940 43405136 43740928 44096496 
2685.600 44470448 44860964 45266796 45686624 46119060 46562880 47017044 
2688.976 47480672 47953192 48434488 48924364 49422812 49929828 50445360 
2692.351 50969216 51501468 52042664 52593028 53153256 53723404 54303084 
2695.726 54891736 55488072 56091188 56700280 57315064 57935112 58559724 
2699.101 59188236 59818876 60450088 61080316 61708824 62334952 62958688 
2702.477 63579336 64195456 64804368 65402656 65985880 66549576 67089528 
2705.852 67601768 68082288 68527224 68932536 69294264 69609344 69875504 
2709.227 70091472 70257104 70372888 70439320 70457288 70427632 70351456 
2712.602 70229952 70064880 69857288 69608296 69318280 68987176 68614248 
2715.978 68199280 67742640 67245432 66709964 66139036 65536456 64906044 
2719.353 64252152 63579300 62891892 62194832 61492668 60790068 60091768 
2722.728 59402832 58728220 58072912 57442116 56840068 56270048 55734372 
2726.103 55234124 54769860 54341384 53949080 53593720 53276368 52997880 
2729.479 52759000 52559444 52398028 52272816 52181752 52122604 52094100 
2732.854 52095000 52124960 52183060 52268668 52380236 52516288 52674752 
2736.229 52853220 53048720 53258500 53478916 53706116 53936552 54166284 
2739.604 54392228 54611832 54822484 55022592 55210532 55385112 55545796 
2742.979 55692372 55826076 55948776 56062648 56170672 56275252 56378308 
2746.355 56481692 56586804 56694616 56805968 56921392 57040964 57164460 
2749.730 57290868 57419388 57549768 57682188 57818284 57960444 58111584 
2753.105 58275440 58455160 58653804 58874056 59117844 59386416 59680672 
2756.480 60000380 60345036 60712288 61099996 61504804 61922260 62348072 
2759.856 62776400 63200832 63614740 64010880 64382172 64722828 65027372 
2763.231 65291508 65512264 65686828 65813660 65891624 65920824 65902500 
2766.606 65839300 65734864 65593832 65420688 65220884 64999088 64760940 
2769.981 64512008 64257412 64002664 63752556 63510524 63279636 63061312 
2773.357 62856740 62666536 62490916 62329824 62182292 62047076 61921344 
2776.732 61801680 61684036 61563788 61436020 61295696 61137412 60955432 
2780.107 60744832 60501236 60222148 59907564 59559988 59184512 58787360 
2783.482 58375904 57957416 57537740 57122436 56715080 56318784 55935056 
2786.858 55565300 55209216 54866656 54536652 54218460 53911268 53614900 
2790.233 53329412 53055120 52792076 52540444 52300100 52070380 51850980 
2793.608 51641500 51441488 51249952 51065844 50887028 50711120 50534572 
2796.983 50354600 50167824 49971312 49763184 49541900 49306360 49055848 
2800.359 48790320 48509876 48214912 47905832 47583288 47247540 46899056 
2803.734 46538240 46166040 45784072 45394348 44999604 44602612 44206532 
2807.109 43814372 43428828 43052768 42689024 42340748 42011180 41703416 
2810.484 41420364 41163540 40933776 40730404 40552484 40397912 40265168 
2813.860 40152708 40059276 39984684 39928488 39890564 39870700 39868700 
2817.235 39884536 39918428 39971028 40043292 40136568 40252192 40391876 
2820.610 40555944 40744672 40957368 41192432 41447848 41721212 42010668 
2823.985 42314372 42630904 42958932 43296652 43641416 43989636 44336340 
2827.361 44676128 45002800 45310228 45593176 45847144 46068032 46253828 
2830.736 46403128 46516152 46594196 46640120 46657792 46651776 46627208 
2834.111 46589508 46543924 46495680 46449808 46410612 46381928 46366960 
2837.486 46368436 46388968 46431000 46497856 46593676 46723576 46893560 
2840.862 47110656 47381848 47715740 48121212 48608404 49189344 49877640 
2844.237 50686504 51628776 52713468 53942480 55306676 56783312 58334820 
2847.612 59903724 61420256 62805308 63973024 64847224 65366224 65489956 
2850.987 65207488 64535184 63515896 62207376 60681196 59013332 57273136 
2854.363 55526440 53829568 52224232 50742436 49403544 48214620 47173776 
2857.738 46270708 45491028 44816620 44229576 43713592 43253492 42836520 
2861.113 42452496 42092724 41750392 41421636 41104312 40798972 40508508 
2864.488 40236668 39987916 39766616 39576536 39420056 39299108 39214676 
2867.864 39166808 39155096 39177940 39232880 39316228 39423140 39547896 
2871.239 39683692 39823596 39961072 40089728 40205844 40307232 40395004 
2874.614 40472720 40546448 40623792 40711884 40817900 40946848 41102088 
2877.989 41285304 41496260 41734088 41996796 42281832 42586752 42908640 
2881.365 43244744 43592908 43951100 44317228 44689240 45064476 45439520 
2884.740 45810988 46174960 46527988 46867832 47193276 47503996 47800880 
2888.115 48085752 48360964 48629564 48895548 49162700 49435808 49719640 
2891.490 50018676 50337860 50682784 51059248 51474532 51936560 52453660 
2894.865 53032844 53678712 54390988 55163352 55982508 56827836 57670496 
2898.241 58478512 59216984 59851580 60355540 60710728 60911092 60963820 
2901.616 60888372 60713512 60471000 60195660 59919128 59667212 59462216 
2904.991 59320588 59254768 59274824 59388280 59601036 59918328 60344576 
2908.366 60883952 61541036 62320800 63227624 64264640 65431744 66723952 
2911.742 68128536 69626032 71186952 72772344 74338984 75836104 77212336 
2915.117 78422344 79427304 80201736 80736432 81037016 81122232 81018688 
2918.492 80757864 80368120 79872072 79285696 78616200 77864400 77027256 
2921.867 76100816 75083200 73977072 72790800 71538576 70240080 68916296 
2925.243 67589840 66281244 65006748 63779340 62607744 61496944 60449744 
2928.618 59467228 58549828 57697212 56909152 56185004 55523468 54922904 
2931.993 54381188 53895472 53462576 53079116 52741340 52445880 52189372 
2935.368 51968600 51780196 51620340 51484272 51366372 51260056 51158576 
2938.744 51056080 50947792 50831676 50707844 50578496 50447704 50319440 
2942.119 50197280 50083368 49977480 49876936 49776784 49669784 49547060 
2945.494 49400204 49221888 49007996 48759068 48480756 48184036 47882448 
2948.869 47591868 47327124 47099168 46915152 46776488 46680260 46619096 
2952.245 46582908 46560924 46541448 46513788 46468980 46399328 46299644 
2955.620 46166668 45998956 45796480 45560648 45293532 44997912 44677376 
2958.995 44336380 43979372 43611444 43237792 42862704 42490204 42123500 
2962.370 41764916 41416720 41080928 40759340 40454244 40167896 39902624 
2965.746 39660456 39443024 39251304 39085664 38945272 38828224 38731424 
2969.121 38650828 38581876 38519632 38459856 38399008 38334544 38265060 
2972.496 38190452 38111516 38029880 37947864 37868068 37792548 37722356 
2975.871 37656224 37590320 37516872 37425924 37305316 37141892 36924312 
2979.247 36643960 36296456 35882292 35407332 34882328 34321136 33740720 
2982.622 33158970 32592066 32054938 31558738 31110370 30713138 30367646 
2985.997 30072780 29827194 29630662 29483436 29385820 29335692 29326156 
2989.372 29343526 29367810 29373128 29330020 29212594 29000930 28685716 
2992.748 28270926 27772740 27218146 26636994 26060556 25514928 25017118 
2996.123 24575764 24191188 23857916 23567190 23310116 23079048 22867978 
2999.498 22673034 22491262 22320762 22159500 22005966 21858584 21716302 
3002.873 21578282 21444064 21313298 21185772 21061448 20940882 20824866 
3006.249 20714756 20611656 20516918 20431128 20354172 20285286 20223214 
3009.624 20166738 20114366 20065366 20018764 19973800 19929950 19886728 
3012.999 19843614 19800852 19758788 19718252 19680738 19647664 19620554 
3016.374 19600726 19589010 19585580 19589876 19600726 19616048 19633554 
3019.750 19650786 19665414 19675746 19680566 19679108 19670752 19654806 
3023.125 19630816 19598230 19557296 19508914 19454956 19398234 19341244 
3026.500 19286788 19236530 19191266 19150610 19113974 19080252 19048436 
3029.875 19017728 18987404 18956496 18923994 18888696 18849556 18805818 
3033.250 18757242 18704382 18648174 18590278 18532804 18477932 18427836 
3036.626 18384832 18350510 18326074 18311870 18307204 18310796 18320786 
3040.001 18335406 18353032 18372700 18393890 18416600 18441110 18467630 
3043.376 18496256 18527030 18559292 18592352 18624828 18655714 18683870 
3046.751 18708568 18729948 18748836 18766342 18783952 18802600 18822150 
3050.127 18841978 18860180 18875026 18884680 18888002 18884438 18874436 
3053.502 18858726 18837998 18813464 18785820 18756170 18725622 18695250 
3056.877 18665986 18638282 18612342 18587960 18565170 18543836 18524678 
3060.252 18508290 18495392 18486230 18480214 18476376 18473160 18469116 
3063.628 18463652 18457084 18450204 18444636 18441562 18442148 18446366 
3067.003 18453904 18463964 18476168 18489894 18505144 18521946 18540826 
3070.378 18561504 18583984 18607776 18632298 18657202 18682384 18708152 
3073.753 18735308 18764716 18797480 18834088 18874784 18919012 18965736 
3077.129 19013608 19061452 19108262 19153518 19196978 19238850 19279168 
3080.504 19318138 19355654 19391722 19426126 19458768 19489194 19516780 
3083.879 19541004 19561144 19577190 19589738 19600520 19611854 19626136 
3087.254 19645480 19670892 19701886 19737082 19774496 19812330 19849406 
3090.630 19885478 19921000 19956452 19992256 20028410 20064846 20101456 
3094.005 20138694 20177290 20218596 20263448 20312368 20364936 20420118 
3097.380 20476522 20532828 20587926 20641642 20693730 20744540 20794312 
3100.755 20843116 20891302 20939072 20987060 21035572 21084788 21134738 
3104.131 21185006 21235004 21284554 21333414 21381720 21430070 21478632 
3107.506 21527444 21576332 21624666 21672170 21718916 21765350 21812592 
3110.881 21861474 21912874 21967520 22025208 22085968 22149318 22215048 
3114.256 22281834 22348738 22414078 22476430 22534220 22587304 22636030 
3117.632 22682040 22727496 22774772 22825546 22880552 22939616 23001624 
3121.007 23065106 23128530 23191088 23252050 23311480 23369344 23426376 
3124.382 23483172 23540290 23598184 23657034 23716518 23776046 23835092 
3127.757 23893062 23949814 24005628 24060888 24116050 24171360 24226536 
3131.133 24281266 24335194 24388464 24441636 24495584 24551432 24609988 
3134.508 24671568 24736208 24803490 24873096 24944470 25017258 25090866 
3137.883 25163926 25234856 25301932 25363926 25420590 25472940 25523010 
3141.258 25573474 25626438 25683558 25745078 25810758 25879544 25950414 
3144.634 26022912 26096340 26170202 26243618 26315606 26385174 26452040 
3148.009 26516630 26580136 26644498 26711230 26781284 26854910 26930840 
3151.384 27007734 27083798 27157968 27229578 27299080 27366972 27434556 
3154.759 27502610 27572332 27644856 27720676 27800220 27883134 27968610 
3158.135 28055408 28142332 28228634 28314390 28400160 28487080 28576072 
3161.510 28667628 28761330 28856256 28951022 29044430 29136050 29225920 
3164.885 29314530 29402768 29491130 29579546 29667412 29753844 29837486 
3168.260 29917418 29992500 30062340 30126936 30186604 30241946 30293600 
3171.635 30342098 30387760 30430476 30469854 30505470 30536928 30564336 
3175.011 30587622 30607210 30623530 30637006 30648134 30657594 30666340 
3178.386 30675408 30686218 30699624 30715946 30734866 30755638 30776940 
3181.761 30797712 30817702 30836486 30854804 30872984 30891412 30910232 
3185.136 30929374 30948872 30969332 30991110 31015058 31041642 31070506 
3188.512 31101400 31132974 31164264 31194632 31223932 31252488 31280580 
3191.887 31308714 31336848 31364802 31392336 31419334 31445694 31471592 
3195.262 31497206 31522538 31547620 31572066 31596116 31620030 31643976 
3198.637 31668284 31693052 31717718 31741638 31764202 31785022 31804346 
3202.013 31823170 31842314 31862568 31884212 31906784 31929712 31952358 
3205.388 31974864 31997264 32020304 32044240 32069172 32094646 32120154 
3208.763 32145448 32171104 32197616 32226234 32257106 32289546 32322276 
3212.138 32353260 32380678 32403846 32423124 32439976 32456006 32472826 
3215.514 32490786 32509710 32528638 32546960 32564316 32580852 32597282 
3218.889 32614104 32631644 32649968 32669042 32688976 32710162 32732952 
3222.264 32757786 32784260 32811634 32838936 32865134 32890148 32914526 
3225.639 32939688 32966856 32996886 33029490 33063848 33098068 33130500 
3229.015 33160254 33187330 33212222 33235866 33258900 33281580 33304084 
3232.390 33326086 33347658 33369270 33391416 33414784 33439904 33467282 
3235.765 33497058 33529558 33564888 33602764 33643184 33684752 33726468 
3239.140 33766792 33804648 33839640 33872056 33902796 33932780 33962804 
3242.516 33992864 34023040 34052816 34082024 34110804 34139660 34168976 
3245.891 34198732 34228452 34257816 34286140 34313856 34341936 34371772 
3249.266 34404408 34440312 34478440 34516788 34553528 34586320 34614704 
3252.641 34638960 34660492 34680948 34701728 34723336 34745372 34766912 
3256.017 34786908 34804424 34819032 34830700 34839316 34845136 34848580 
3259.392 34850448 34851672 34853644 34856944 34862008 34868580 34875292 
3262.767 34880748 34883480 34882328 34877376 34868904 34857808 34845136 
3266.142 34831384 34816808 34801728 34786148 34770392 34754848 34739740 
3269.518 34724988 34709804 34693440 34674416 34651880 34625288 34595112 
3272.893 34562320 34528488 34495480 34464740 34437444 34414128 34394152 
3276.268 34376256 34358864 34340176 34319488 34296216 34271584 34246988 
3279.643 34224116 34204504 34188696 34175932 34164820 34153672 34140984 
3283.019 34125928 34108512 34089264 34068944 34048268 34027732 34007376 
3286.394 33987312 33967716 33949120 33931884 33916516 33903080 33891440 
3289.769 33881196 33872240 33864572 33858660 33855224 33854864 33858196 
3293.144 33864968 33874708 33886744 33900140 33914296 33928480 33942276 
3296.520 33955424 33967964 33979680 33991432 34003580 34017088 34032356 
3299.895 34049804 34069196 34089836 34110980 34131984 34152812 34173924 
3303.270 34196544 34221640 34250216 34282732 34318952 34358468 34400500 
3306.645 34444544 34490064 34536988 34585316 34634656 34684500 34734244 
3310.021 34782812 34829876 34875152 34919172 34962872 35007228 35053452 
3313.396 35102232 35153712 35207680 35263848 35321564 35380476 35440544 
3316.771 35501524 35563268 35625304 35686704 35746528 35803808 35857996 
3320.146 35908744 35956540 36001788 36045024 36086748 36127044 36166184 
3323.521 36204572 36242424 36280280 36318504 36357048 36395240 36432320 
3326.897 36467272 36499488 36529364 36557768 36586028 36615620 36646912 
3330.272 36679616 36712136 36742536 36768748 36788944 36802212 36808236 
3333.647 36807264 36799800 36786636 36768748 36747260 36723388 36698544 
3337.022 36673664 36648644 36623196 36596048 36565844 36531456 36492172 
3340.398 36448028 36399276 36346496 36289720 36228560 36162872 36091936 
3343.773 36015572 35933540 35846376 35754264 35657748 35557332 35453956 
3347.148 35348704 35243220 35138876 35036860 34937736 34840864 34745124 
3350.523 34648864 34550476 34449636 34346236 34240748 34134208 34027408 
3353.899 33920384 33813208 33705804 33598432 33491298 33385548 33282294 
3357.274 33182572 33087090 32996278 32910272 32829038 32752354 32679792 
3360.649 32610998 32545100 32480754 32417126 32352940 32287228 32219670 
3364.024 32149944 32078162 32005000 31931102 31857680 31786554 31719074 
3367.400 31656452 31599182 31546660 31497174 31448900 31399530 31347462 
3370.775 31291906 31233046 31171278 31107166 31041072 30972712 30902014 
3374.150 30828764 30752470 30673346 30591070 30505292 30415336 30320568 
3377.525 30220206 30114364 30003472 29888276 29769526 29647122 29520318 
3380.901 29387346 29246582 29096582 28937032 28769084 28594262 28415230 
3384.276 28233760 28051662 27869780 27687832 27505962 27323640 27140192 
3387.651 26955412 26768738 26580278 26389786 26197686 26004442 25810900 
3391.026 25617546 25424772 25232642 25041126 24850220 24660484 24472340 
3394.402 24286766 24104282 23924710 23747384 23571178 23395114 23218632 
3397.777 23042502 22868048 22697016 22530694 22369284 22212048 22057068 
3401.152 21902386 21746190 21587822 21427146 21264824 21101830 20938900 
3404.527 20776342 20614748 20454362 20295944 20140568 19989168 19841984 
3407.903 19699114 19559272 19420894 19282008 19141640 18998932 18854574 
3411.278 18709536 18565516 18424206 18287020 18154646 18027526 17905070 
3414.653 17786514 17670822 17556712 17443494 17330856 17218630 17106982 
3418.028 16996364 16887150 16779342 16673282 16569072 16466815 16367197 
3421.404 16270524 16177280 16087251 16000234 15914779 15830098 15745364 
3424.779 15659960 15574230 15488721 15403952 15320880 15239712 15160446 
3428.154 15083013 15007068 14932097 14857893 14784319 14710483 14636317 
3431.529 14561581 14486584 14411772 14337827 14265266 14194291 14124903 
3434.905 14056209 13987151 13917214 13846502 13775459 13705658 13638365 
3438.280 13574637 13514508 13457327 13401520 13345275 13286783 13225021 
3441.655 13159715 13091618 13021518 12950643 12879985 12809851 12740240 
3445.030 12670333 12599823 12528472 12456791 12385839 12317625 12253477 
3448.406 12194724 12141464 12092503 12045898 11999367 11950899 11899099 
3451.781 11843798 11785508 11725218 11663643 11601463 11539225 11477029 
3455.156 11415557 11355489 11297706 11242822 11190630 11140008 11089257 
3458.531 11036404 10979820 10918690 10853628 10785790 10717453 10650180 
3461.906 10585464 10523642 10464918 10408476 10353704 10299753 10245979 
3465.282 10192075 10137974 10083949 10030405 9978155 9927573 9878794 9831171 
3469.139 9783521 9734351 9682307 9626712 9568109 9507685 9447202 9388454 
3472.997 9332829 9280731 9231719 9185116 9140007 9095646 9052035 9009104 
3476.854 8967193 8926773 8887338 8848719 8810272 8771186 8730615 8688460 
3480.711 8644653 8599904 8555497 8513156 8474671 8441427 8413657 8390551 
3484.569 8370215 8350184 8327757 8301412 8270410 8235053 8197099 8158473 
3488.426 8121201 8087038 8057062 8032085 8012374 7997727 7987433 7980582 
3492.284 7975688 7971200 7965800 7958916 7950951 7942785 7935968 7931953 
3496.141 7931278 7934551 7941368 7951221 7964113 7979400 7997220 8017268 
3499.999 8038667 8060573 8081873 8102026 8121302 8140815 8162761 8189367 
3503.856 8222828 8264128 8312896 8367884 8426697 8486464 8544988 8600343 
3507.713 8651954 8700190 8746877 8794346 8845303 8902051 8965231 9034781 
3511.571 9108673 9184643 9260659 9335469 9408837 9481438 9554594 9628473 
3515.428 9703043 9776574 9847339 9913403 9973884 10029014 10080015 10128343 
3519.286 10174640 10218704 10258802 10292289 10316141 10327881 10326252 
3522.661 10311526 10284994 10248591 10204151 10152763 10094360 10028200 
3526.036 9952626 9866252 9768779 9661132 9545551 9425362 9303851 9183255 
3529.894 9065026 8948928 8833502 8716856 8597707 8474604 8347043 8215062 
3533.751 8078565 7937824 7793419 7646498 7498650 7352268 7209673 7072650 
3537.608 6942470 6819330 6702820 6591724 6485667 6383974 6286440 6192692 
3541.466 6101753 6012345 5922418 5830159 5734092 5633783 5529269 5421593 
3545.323 5312267 5203169 5096177 4993736 4897753 4809832 4730169 4657889 
3549.181 4590275 4524313 4456352 4384150 4307443 4227538 4147748 4071651 
3553.038 4002256 3940729 3886533 3837825 3792800 3749450 3707475 3666573 
3556.896 3627279 3589458 3552910 3516766 3480124 3442149 3402742 3362537 
3560.753 3322201 3283139 3246583 3213269 3184329 3159263 3136968 3114541 
3564.610 3087711 3051072 2999822 2931165 2846176 2750500 2653611 2565210 
3568.468 2493756 2442439 2410652 2393560 2384431 2377301 2367606 2352915 
3572.325 2332660 2308309 2281795 2255249 2230236 2207423 2186709 2167328 
3576.183 2148115 2127837 2105329 2080191 2052759 2024329 1996734 1971736 
3580.040 1951100 1935790 1925706 1920281 1918717 1919881 1922311 1924441 
3583.897 1923742 1916886 1899714 1868399 1820516 1756270 1680059 1599139 
3587.755 1522889 1460583 1417664 1395459 1391271 1399747 1413908 1428036 
3591.612 1436979 1437577 1428269 1409354 1382263 1349889 1315456 1282123 
3595.470 1252681 1228856 1211145 1199284 1192273 1188187 1186027 1184864 
3599.327 1184366 1185130 1188286 1195463 1207856 1226098 1249491 1277105 
3603.185 1306549 1335032 1359960 1378141 1386883 1383360 1366142 1333736 
3607.042 1286975 1228723 1163966 1099751 1042753 997916 966999 947971 936216 
3611.382 926321 913504 895940 874325 852081 833225 820909 816062 816527 
3615.721 817987 815199 803879 781174 747152 704005 657545 614076 580034 
3620.061 560260 556478 567360 589357 617759 648353 677589 704205 728632 
3624.400 752396 776328 799630 817921 824262 809622 765972 690598 590584 
3628.740 483495 392119 336241 323409 348245 396762 453178 504062 540321 
3633.080 558933 561720 554288 542610 531729 523568 517961 512853 506417 
3637.419 498157 488803 480411 474838 472980 475302 480908 489002 499484 
3641.759 512720 529970 552297 580067 611853 645267 676261 700288 712900 
3646.098 710610 691195 654824 603292 540520 471919 403826 343139 296584 
3650.438 269993 266777 287300 328184 382833 443559 501110 547487 576384 
3654.778 584347 571971 544634 511924 483296 466711 465185 477558 499252 
3659.117 524596 548847 568554 583152 592874 600605 608833 619982 635843 
3663.457 657446 684591 717613 756113 800526 850023 903344 957568 1008909 
3667.796 1054511 1094636 1136259 1194433 1291495 1451673 1690870 2012578 
3671.654 2407520 2858983 3346208 3847820 4340608 4791071 5155185 5384522 
3675.511 5436691 5296905 4983413 4538442 4009847 3439444 2864620 2315804 
3679.369 1821148 1405465 1082046 851318 700819 610725 559165 529572 512720 
3683.708 505754 508905 521544 539458 555217 559762 544501 504825 442166 
3688.048 363234 279078 200606 135572 87151 55337 38569 35090 43606 61666 
3692.870 86819 115222 142764 166828 185722 199877 210982 221060 231701 
3697.209 243106 254278 262633 265418 259948 244531 218806 184628 145880 
3701.549 108096 77441 58750 55072 66339 90133 122812 160033 198783 236442 
3706.371 272314 305404 335014 359520 376400 382701 375869 353949 317904 
3710.710 270225 216286 163248 118172 87151 74193 79926 102462 137130 178861 
3715.532 221557 260113 291246 313295 326824 333224 334948 332859 327255 
3719.872 317308 302652 283985 263959 246156 234188 230276 233525 240619 
3724.211 246189 245559 235945 218176 196529 177502 168320 173690 194706 
3728.551 228585 269927 311206 344896 365754 370861 361642 342442 319695 
3732.890 298739 281067 263528 241614 210253 168320 120790 76678 46588 37409 
3737.712 50234 81252 124204 172728 222751 272679 321651 367645 405915 427042 
3742.534 419347 372685 285212 170010 55271 -25379 -50360 -19482 50797 136268 
3747.356 214960 269065 289721 276923 238962 188739 139118 98717 70382 54508 
3752.177 51062 61501 87515 128711 181513 239161 293434 336507 363267 372022 
3756.999 364494 345327 319198 289721 259815 231536 208463 194706 194242 
3761.339 208496 235381 268700 300165 321386 327388 318103 299137 278580 
3765.678 265418 264423 274933 290715 303846 307526 298242 277917 251991 
3770.018 228453 214297 213004 224342 245327 271784 299303 324868 346057 
3774.358 362173 373050 379152 381109 379152 372951 361742 344863 322746 
3778.697 297314 272480 253383 244498 247880 261870 281830 301591 314788 
3783.037 317573 309449 293036 273375 255737 243802 238929 239890 244100 
3787.376 249670 255140 260345 265816 271817 278050 283918 288693 292307 
3791.716 295589 299635 305238 312301 319098 323044 321684 313892 301093 
3796.056 287234 278315 278813 290914 311538 334517 349970 347615 319562 
3800.395 263561 186816 103655 35256 -1457 298 36747 95071 159205 213071 
3805.217 244498 247681 224872 186418 147438 123574 122712 145416 185590 
3809.557 235182 287168 336871 383165 426213 466147 501508 527980 539492 
3813.896 530070 495935 439314 368938 300629 251228 232000 244697 281299 
3818.236 328051 368109 386614 373050 324171 247018 158939 82312 35156 25547 
3823.058 49969 97690 154034 206341 245924 268899 277287 277122 276094 280736 
3827.879 293898 314423 338297 360382 376002 382900 381142 373216 363002 
3832.219 354977 352589 358160 371492 390494 411587 429198 436860 429231 
3836.559 403362 360018 304674 246554 195932 160332 143228 143262 155791 
3840.898 174949 195037 212971 226928 237039 244929 252587 262136 275364 
3845.238 293235 316014 343437 374609 408469 444422 481472 519753 558004 
3849.577 594267 623898 640024 632824 592476 511260 390627 243570 97557 
3853.917 -17858 -82098 -90910 -54866 9410 86322 164409 236707 299933 353087 
3858.739 395634 427705 449065 460011 461835 456362 445848 432382 416794 
3863.078 398918 378854 357663 339093 328615 331068 349008 379252 414306 
3867.418 442498 452283 435068 389101 321850 249471 190894 159006 157116 
3871.758 177767 209126 237967 255969 260975 257395 254013 259649 279973 
3876.097 315252 361012 409331 452050 482235 495238 489997 469332 439646 
3880.437 409000 385619 374974 378489 393081 412217 427938 431984 419281 
3884.776 389698 349671 310875 286040 284416 307692 350268 401471 449463 
3889.116 483860 497461 488770 461039 423095 384591 354480 338165 336507 
3893.456 348278 369900 398453 431022 464688 496764 524298 544501 555250 
3897.795 556245 548316 534681 518890 504228 492186 482301 471687 457457 
3902.135 436694 408569 375007 340486 310941 292075 288262 300231 325962 
3906.474 361046 400012 437357 468602 491390 505057 510929 511526 510497 
3910.814 510962 515507 525591 541349 561620 583783 604819 621177 629638 
3915.154 628012 616067 595528 569881 543473 520980 504692 495736 493380 
3919.493 496366 503233 513085 525260 538928 552496 563345 568819 566331 
3923.833 555217 537269 516369 497427 485021 481439 486348 496897 510000 
3928.172 522042 531231 536970 539691 540022 538098 533520 525591 514810 
3932.512 502735 491987 485817 486381 494143 507644 523667 539259 551634 
3936.852 559928 564307 566597 568255 569981 571540 571407 568123 560492 
3941.191 548184 531895 513483 495338 479581 468436 463162 463991 470493 
3945.531 480875 492982 504062 511791 514909 513151 508142 502204 497925 
3949.870 497494 501640 510232 522208 535975 550307 563909 575588 584513 
3954.210 589655 590452 586935 579901 571275 563577 558734 558136 562051 
3958.550 569483 578507 587034 593471 596888 596988 594400 590120 585276 
3962.889 580730 577678 577114 579337 584446 591845 600804 609796 617892 
3967.229 624362 629173 632724 635611 638431 641451 644836 648088 651240 
3971.568 653994 656384 658707 660498 661892 662987 664348 666405 670222 
3975.908 676693 686118 698264 712269 726906 740846 753193 763449 771415 
3980.248 777058 780377 781108 778983 774004 766503 757607 748479 740115 
3984.587 732913 726906 721529 716219 710411 704138 697600 691826 687246 
3988.927 684790 684558 686815 691228 697534 704769 712137 718210 721927 
3993.266 722425 719504 713995 706860 699791 693883 689569 686815 685023 
3997.606 683197 681173 678584 675697 672478 668695 664116 
##END=
