
##TITLE=1675_3_c
##JCAMP-DX=5.01  $$ Nicolet v. 1
##DATATYPE=INFRARED SPECTRUM
##ORIGIN=UniL
##OWNER=Nicolet
##LONGDATE=2011/09/16
##TIME=12:01:13
##SPECTROMETER/DATA SYSTEM=Nicolet iS5
##DATA PROCESSING=
Ratio against background
%Transmittance->Absorbance
Truncated
ElementMultiply or ElementDivide
##COMMENTS=
Number of sample scans: 32
Collection length: 51.15 sec
Sample gain: 2.0
Background collected on: Ven Sep 16 11:51:09 2011 (GMT+02:00);
Number of background scans: 32
Background gain: 2.0
Sample spacing:  1.000
Number of scan points: 12415
Resolution points: 8192
Number of FFT points: 65536
Apodization: N-B fort;
Phase correction: Mertz;
Laser frequency: 15798.0 cm-1
Number of rejected sample scans: 0
Number of rejected background scans: 0
Bench serial number: ASB1000141;
##RESOLUTION=4.000
##XUNITS=1/CM
##YUNITS=ABSORBANCE
##FIRSTX=649.893372
##LASTX=4000.122314
##FIRSTY=0.076860
##MAXX=4000.122314
##MINX=649.893372
##MAXY=0.271935
##MINY=-0.001110
##XFACTOR=1.000000
##YFACTOR=1.000000E-009
##NPOINTS=6950
##DELTAX=0.482117
##ZPD=6100
##XYDATA=(X++(Y..Y))
649.893 76859568 76571432 76314216 76120240 76004688 75969008 76009632 
653.268 76128888 76341712 76672784 77142272 77755008 78490624 79308928 
656.643 80164920 81025592 81884376 82758096 83676560 84662792 85725832 
660.018 86859088 88052448 89304968 90634264 92067112 93626904 95312744 
663.393 97092704 98907696 100694168 102403272 103999560 105464000 106772672 
666.767 107880888 108722960 109238152 109412504 109292576 108958040 
669.660 108471680 107853960 107089368 106150968 105023656 103722472 
672.553 102297128 100815888 99352848 97960808 96661704 95455048 94329512 
675.928 93276456 92295472 91390192 90560912 89796272 89076016 88374984 
679.302 87674032 86967072 86261112 85570088 84905752 84269824 83652936 
682.677 83040984 82421760 81792448 81161296 80543664 79954392 79401008 
686.052 78882216 78389840 77915664 77454872 77009648 76585784 76188392 
689.427 75816656 75463728 75116752 74763368 74394416 74007088 73603920 
692.802 73191128 72775480 72363832 71964224 71587136 71246056 70956864 
696.177 70734728 70589688 70526432 70542872 70633824 70793456 71018200 
699.551 71307592 71661688 72078816 72552336 73069928 73615616 74172768 
702.926 74727440 75271976 75804344 76325832 76837976 77340432 77829528 
706.301 78301896 78754608 79188824 79609312 80022872 80436624 80856848 
709.676 81291168 81752128 82259944 82847424 83553760 84418168 85469384 
713.051 86709984 88106504 89581728 91028552 92318344 93323768 93953976 
716.425 94165184 93978328 93472368 92780584 92066424 91486632 91185936 
719.800 91265520 91770760 92690336 93952208 95434456 96961368 98335288 
723.175 99361464 99865752 99745624 98987384 97680480 95994208 94149584 
726.550 92373056 90833040 89628680 88779216 88243504 87947192 87814056 
729.925 87790128 87843136 87959280 88130040 88342256 88575208 88807344 
733.300 89021840 89214104 89390648 89563320 89740744 89923744 90105440 
736.674 90277528 90436352 90586752 90739560 90907256 91095040 91299336 
740.049 91509296 91713304 91906304 92092552 92283752 92490744 92718344 
743.424 92960512 93204872 93438640 93656296 93863736 94073952 94300360 
746.799 94548272 94812352 95078960 95334200 95570776 95792600 96010816 
750.174 96236960 96474184 96714608 96941736 97140480 97303864 97438328 
753.548 97559672 97686128 97828344 97985592 98147672 98302840 98445960 
756.923 98582272 98725240 98888344 99079488 99295784 99527976 99766008 
760.298 100007128 100256824 100525824 100821360 101141648 101475064 
763.191 101806352 102126736 102442032 102773760 103153984 103614528 
766.083 104175192 104843128 105613992 106479576 107433280 108472400 
768.976 109598104 110818024 112155776 113667784 115465528 117705408 
771.869 120567240 124195800 128610712 133628816 138801120 143489072 
774.762 146910816 148341936 147357264 143924368 138456672 131646008 
777.654 124337400 117285280 110996304 105738200 101521736 98194112 95519160 
781.029 93271648 91285112 89454928 87737968 86125256 84622856 83242448 
784.404 82000824 80922152 80033904 79365568 78939632 78766880 78848800 
787.779 79184176 79777064 80642592 81806888 83299088 85146744 87369840 
791.154 89982400 92999336 96442584 100340680 104721576 109592648 114919808 
794.528 120600216 126461864 132255536 137654000 142305104 145832352 
797.421 147876544 148168288 146549280 143025136 137768528 131111176 
800.314 123492656 115367856 107197752 99372048 92170632 85787752 80309960 
803.689 75738192 72014120 69044616 66727808 64965420 63681072 62819444 
807.063 62339924 62210508 62393476 62832192 63451348 64150856 64813488 
810.438 65330172 65602004 65559804 65172680 64441436 63397096 62087708 
813.813 60577724 58936784 57232992 55534988 53900948 52375676 50991724 
817.188 49764744 48698312 47787452 47024208 46401212 45913836 45559796 
820.563 45337960 45245872 45280768 45441104 45730136 46157564 46741284 
823.938 47504660 48468532 49646972 51036960 52612812 54317612 56063896 
827.312 57738800 59200272 60303384 60918720 60948800 60358552 59182048 
830.687 57522908 55527156 53365944 51209392 49189344 47401356 45895276 
834.062 44678332 43727444 42998292 42439088 41992200 41603560 41230612 
837.437 40841528 40422676 39977672 39523912 39085444 38685128 38339028 
840.812 38052376 37821432 37637148 37490544 37376268 37292496 37239932 
844.186 37218852 37227512 37263072 37322644 37405700 37514488 37652828 
847.561 37823344 38025288 38254168 38503156 38766888 39043900 39337920 
850.936 39656320 40007464 40397076 40827004 41296088 41803288 42350100 
854.311 42943352 43592504 44309412 45104432 45984736 46955536 48022392 
857.686 49193056 50480084 51900376 53472508 55216704 57152444 59296244 
861.060 61661808 64254536 67065588 70060400 73171912 76297392 79291304 
864.435 81991056 84228864 85848352 86740000 86848040 86183968 84823888 
867.810 82906016 80616864 78152888 75718856 73497440 71623784 70195296 
871.185 69259248 68817248 68832472 69235120 69932952 70806328 71723752 
874.560 72550464 73149448 73410248 73258432 72664352 71648600 70274640 
877.935 68639008 66846020 65002932 63208608 61539776 60059920 58816840 
881.309 57841112 57151496 56751704 56629912 56757560 57091636 57580824 
884.684 58165984 58791496 59411756 59993188 60523480 61010912 61486752 
888.059 61996856 62595188 63334792 64253116 65367028 66669516 68134272 
891.434 69721136 71385688 73090904 74805680 76507568 78180016 79805176 
894.809 81361256 82820120 84141624 85274144 86155232 86707512 86851240 
898.183 86515432 85647288 84232168 82298712 79923560 77215616 74308184 
901.558 71345616 68455496 65750352 63317812 61212332 59464724 58081816 
904.933 57051692 56348808 55938788 55786928 55860592 56135076 56596540 
908.308 57239228 58063368 59070540 60260784 61631260 63176608 64888500 
911.683 66755520 68758480 70864952 73029592 75192392 77285008 79248752 
915.058 81041808 82652592 84102936 85446920 86763424 88138408 89664408 
918.432 91423448 93474800 95850680 98541736 101492976 104593984 107695936 
921.807 110632672 113238864 115400696 117077496 118322040 119271608 
924.700 120138616 121186328 122668552 124820352 127817136 131739792 
927.593 136558368 142101696 148068752 153987808 159260400 163253040 
930.485 165313312 164929168 161831888 156039280 147886272 137949760 
933.378 126991616 115776176 104980816 95157488 86642784 79605368 74075176 
936.753 69983632 67214216 65634876 65127300 65576492 66858852 68831888 
940.128 71293656 73982568 76606728 78840896 80395952 81072232 80776256 
943.502 79549776 77545648 75008168 72205888 69386856 66758760 64449548 
946.877 62519036 60971868 59775792 58881532 58235012 57790160 57506268 
950.252 57348448 57287996 57298804 57359072 57453312 57571632 57709888 
953.627 57867872 58047088 58248916 58473320 58719612 58986652 59274364 
957.002 59583288 59914372 60267980 60643020 61037568 61448768 61875072 
960.377 62316020 62772960 63248472 63744112 64260224 64795172 65346428 
963.751 65911560 66489876 67082608 67692448 68322152 68972496 69641944 
967.126 70326800 71023192 71728248 72441968 73166816 73906672 74665096 
970.501 75444248 76244984 77067328 77912208 78782096 79680680 80611912 
973.876 81579056 82582776 83622528 84697472 85808064 86957240 88150016 
977.251 89392072 90688440 92042624 93457168 94936112 96486680 98119848 
980.625 99851320 101696248 103667784 105774000 108016328 110389552 112881560 
984.000 115473136 118132280 120809032 123436968 125924960 128165928 
986.893 130055368 131495144 132415432 132786168 132618728 131965800 
989.786 130911232 129570304 128070432 126539096 125102672 123863744 
992.678 122897536 122251896 121943744 121968224 122305864 122933464 
995.571 123827912 124970016 126344872 127937720 129732552 131712464 
998.464 133858784 136153296 138578656 141113360 143727712 146380896 
1001.356 149014080 151557856 153940624 156094528 157971728 159548752 
1004.249 160829728 161843776 162642192 163297776 163891936 164515584 
1007.142 165261344 166206512 167412704 168916736 170729648 172842816 
1010.035 175235872 177887456 180778080 183893888 187223328 190750992 
1012.927 194456352 198315280 202299824 206384880 210546096 214750624 
1015.820 218949968 223068864 226994384 230594192 233724800 236253760 
1018.713 238092832 239208144 239632720 239458496 238838016 237968992 
1021.605 237060784 236337648 236001792 236203408 237041568 238544032 
1024.498 240676368 243349248 246441888 249823312 253351776 256894112 
1027.391 260320896 263496640 266296112 268606048 270338048 271447776 
1030.284 271934720 271841536 271235456 270201184 268828352 267198176 
1033.177 265389808 263469792 261481200 259436400 257303232 255007952 
1036.070 252433296 249445520 245921200 241757312 236897680 231333296 
1038.963 225098016 218261440 210923200 203212112 195269440 187248720 
1041.856 179305472 171570080 164151184 157127584 150543296 144422720 
1044.750 138775280 133601680 128900096 124666504 120893152 117567864 
1047.643 114673624 112189880 110093152 108359736 106966384 105888568 
1050.536 105101264 104577712 104288504 104205520 104301680 104551496 
1053.429 104932680 105420504 105983592 106583408 107168624 107677432 
1056.322 108048616 108220456 108141992 107780568 107121592 106173480 
1059.215 104966936 103557744 102021576 100446728 98934320 97580336 96468152 
1062.590 95667896 95224568 95161488 95480816 96165880 97183368 98482784 
1065.965 100003760 101671784 103403216 105117848 106736664 108192696 
1068.858 109437912 110437456 111170848 111627896 111805272 111706400 
1071.751 111341152 110728224 109894336 108872376 107704136 106435672 
1074.645 105118736 103814824 102586488 101499304 100615632 99982440 99630000 
1078.020 99565904 99776848 100229904 100878280 101670024 102544696 103437984 
1081.395 104285760 105019432 105577392 105916856 106020808 105911320 
1084.288 105649408 105338056 105103376 105081976 105414248 106216176 
1087.181 107575544 109540536 112108464 115218648 118742328 122500344 
1090.074 126253280 129726752 132663008 134827664 136056928 136281392 
1092.967 135524608 133899464 131576016 128773808 125718312 122610056 
1095.860 119624344 116879656 114438624 112313536 110470904 108843640 
1098.753 107338872 105859608 104308808 102598904 100668256 98480296 96032272 
1102.129 93353720 90506344 87575432 84652008 81832016 79199608 76818872 
1105.504 74739008 72989808 71585608 70530832 69821448 69448352 69397848 
1108.879 69652288 70190192 70983784 72001416 73204192 74543488 75964520 
1112.254 77401096 78777056 80017216 81047120 81803248 82244288 82349496 
1115.630 82121464 81581296 80765688 79720528 78493800 77137568 75700440 
1119.005 74223904 72745632 71293616 69888888 68547824 67282336 66101768 
1122.380 65012632 64016448 63108480 62275708 61500604 60762860 60046452 
1125.755 59346380 58671668 58047012 57506304 57089936 56834328 56764432 
1129.131 56891628 57210724 57702544 58334404 59065072 59847436 60627360 
1132.506 61352132 61974384 62456828 62782184 62955468 63005416 62976612 
1135.881 62924712 62906908 62967724 63137948 63427316 63824892 64299868 
1139.256 64804868 65285036 65677888 65924288 65976320 65796928 65366336 
1142.632 64680524 63748680 62590404 61232472 59708840 58055912 56312932 
1146.007 54521212 52717736 50936096 49204112 47540444 45957520 44461712 
1149.382 43055148 41738648 40512728 39378768 38338852 37394720 36547820 
1152.757 35798952 35148900 34598556 34149836 33804936 33565568 33432498 
1156.133 33404476 33479378 33654568 33928732 34302096 34776492 35353984 
1159.508 36035984 36821364 37707072 38687120 39753292 40895220 42097800 
1162.883 43340696 44598684 45838752 47024616 48120180 49088940 49899944 
1166.258 50528732 50956216 51171920 51173156 50966760 50567292 49996888 
1169.634 49283532 48455380 47540888 46566712 45554720 44525404 43497932 
1173.009 42489656 41518644 40601960 39754056 38987132 38309860 37727384 
1176.384 37242712 36857580 36573268 36391168 36312848 36339508 36472496 
1179.759 36713468 37065312 37532624 38120592 38834892 39679808 40657664 
1183.135 41769544 43015964 44399392 45925032 47600556 49434100 51431636 
1186.510 53592296 55906640 58351720 60890316 63471796 66025652 68469224 
1189.885 70713128 72663488 74242216 75396400 76105952 76388128 76292888 
1193.260 75896000 75278008 74518704 73684320 72817528 71940560 71055816 
1196.635 70153080 69215104 68225600 67174528 66058516 64881420 63650952 
1200.011 62375804 61062508 59714884 58335500 56928112 55500724 54068512 
1203.386 52652120 51276424 49968116 48748952 47634648 46632596 45741920 
1206.761 44955760 44263508 43654748 43119252 42648488 42235196 41872940 
1210.136 41555940 41280272 41044400 40850480 40703480 40611676 40584356 
1213.512 40630304 40757812 40973572 41283188 41691232 42200652 42812528 
1216.887 43524704 44332528 45229216 46207424 47261176 48386704 49581932 
1220.262 50846240 52178796 53578952 55047080 56586652 58205952 59917608 
1223.637 61738884 63687324 65777108 68017144 70407992 72940768 75595144 
1227.013 78339912 81128984 83898016 86570712 89056088 91254200 93073272 
1230.388 94428664 95255184 95517144 95210256 94369776 93067568 91418576 
1233.763 89569064 87676456 85913968 84441880 83396432 82897184 83032552 
1237.138 83865504 85440464 87781488 90894880 94763144 99343936 104559088 
1240.514 110285456 116369280 122611688 128776088 134619904 139878672 
1243.407 144297056 147664960 149819792 150681936 150260496 148653136 
1246.300 146028288 142595536 138605280 134308992 129941432 125720608 
1249.193 121806528 118292792 115195792 112450536 109921648 107421440 
1252.086 104763072 101781808 98373816 94519768 90281368 85790416 81208512 
1255.461 76714616 72467296 68577664 65113588 62090500 59482352 57231744 
1258.836 55264792 53504924 51874612 50310364 48764184 47203544 45614116 
1262.212 43995576 42358172 40717852 39092444 37500220 35956176 34474460 
1265.587 33067640 31745632 30516808 29385964 28353576 27415778 26565694 
1268.962 25796272 25101048 24476022 23919284 23429106 23003022 22636764 
1272.337 22324912 22062018 21844090 21668270 21532354 21433306 21365780 
1275.713 21322694 21296070 21278952 21267538 21261030 21261168 21270634 
1279.088 21290920 21322624 21365258 21417712 21478492 21544296 21607950 
1282.463 21657126 21675306 21643298 21545690 21374830 21135224 20842490 
1285.838 20521400 20201448 19909204 19666454 19488984 19386074 19364558 
1289.214 19429244 19583672 19829358 20163960 20581116 21069414 21613906 
1292.589 22197508 22799250 23395150 23959722 24463788 24881692 25193876 
1295.964 25391150 25477612 25469038 25391432 25272748 25140402 25017924 
1299.339 24922326 24866220 24858010 24902114 24997988 25138718 25311274 
1302.715 25496200 25671394 25816524 25914114 25952488 25925546 25830626 
1306.090 25668514 25443040 25162240 24838888 24490114 24137102 23799742 
1309.465 23494294 23231566 23015598 22847022 22725436 22652018 22630130 
1312.840 22663922 22756092 22906120 23110324 23364310 23664382 24009936 
1316.216 24402764 24845344 25338074 25878206 26459154 27073570 27715486 
1319.591 28381660 29071036 29782088 30509414 31241842 31962060 32648000 
1322.966 33279184 33837852 34314504 34710020 35037504 35323148 35601924 
1326.341 35919144 36320772 36843836 37510588 38317788 39235492 40207188 
1329.717 41163140 42034868 42764340 43320044 43698056 43922104 44033564 
1333.092 44084796 44131960 44224036 44403320 44702128 45139612 45722888 
1336.467 46445788 47292800 48240720 49264160 50341284 51452636 52583000 
1339.842 53718864 54847032 55953336 57023244 58040496 58987032 59840780 
1343.218 60570864 61141416 61510724 61636604 61485836 61038024 60289180 
1346.593 59250932 57948744 56418152 54699124 52838512 50887664 48899332 
1349.968 46933760 45052972 43315288 41776548 40479556 39451044 38702444 
1353.343 38230684 38022504 38056248 38305084 38733812 39295808 39937532 
1356.719 40598288 41215636 41738504 42127332 42359048 42428200 42343268 
1360.094 42126420 41809240 41437640 41070112 40770948 40610036 40645804 
1363.469 40913280 41422548 42158408 43090636 44181004 45390996 46680260 
1366.844 47998040 49285092 50467988 51462784 52193072 52595268 52630988 
1370.219 52291916 51598436 50597188 49351424 47945272 46477020 45047128 
1373.595 43760240 42703720 41931800 41461700 41273824 41327424 41575848 
1376.970 41985192 42540816 43248040 44128296 45213732 46543660 48156716 
1380.345 50088056 52356276 54947720 57793380 60750552 63620992 66148260 
1383.720 68064080 69143720 69212616 68190288 66105008 63118860 59517272 
1387.096 55656212 51918036 48597544 45858340 43737192 42173120 41057948 
1390.471 40270620 39708488 39288372 38945892 38635904 38324952 37991256 
1393.846 37626740 37236248 36834784 36440568 36068748 35726348 35412652 
1397.221 35123248 34854504 34606920 34385832 34199628 34055360 33956892 
1400.597 33902972 33889072 33909852 33961944 34045724 34166472 34333904 
1403.972 34561420 34863264 35249904 35725232 36285108 36918540 37611204 
1407.347 38349168 39122792 39925980 40755884 41610384 42485492 43375732 
1410.722 44274660 45176304 46075176 46964732 47832876 48660880 49423704 
1414.098 50094080 50652436 51092340 51424516 51672808 51870432 52053644 
1417.473 52255140 52506640 52837948 53273072 53829496 54510168 55300804 
1420.848 56174632 57099496 58047880 59000048 59952640 60918452 61923368 
1424.223 62995920 64156428 65410092 66746204 68146016 69589664 71064864 
1427.599 72562056 74069680 75568280 77023648 78389360 79619424 80677856 
1430.974 81552584 82259184 82838720 83347576 83842472 84379136 85007048 
1434.349 85776896 86753024 88013408 89641760 91704832 94213592 97113584 
1437.724 100303072 103664960 107085088 110444544 113619192 116448600 
1440.617 118743416 120328240 121050176 120823168 119640056 117563520 
1443.510 114707456 111206680 107212560 102866000 98284768 93580288 88855968 
1446.886 84227304 79843800 75868776 72452144 69695816 67624456 66197416 
1450.261 65336792 64965688 65023832 65470496 66276608 67404368 68801176 
1453.636 70412240 72181280 74068416 76058816 78148760 80334192 82587904 
1457.011 84855560 87064680 89152664 91091848 92880896 94535136 96075016 
1460.387 97522264 98895752 100206864 101456104 102623624 103664496 104520432 
1463.762 105130552 105461944 105528856 105397824 105159640 104888768 
1466.655 104626408 104372936 104103600 103783352 103378032 102852736 
1469.548 102158056 101219240 99932640 98177504 95865936 92998808 89705056 
1472.923 86209256 82750960 79498920 76516656 73796224 71310360 69055264 
1476.299 67068220 65414480 64151124 63309916 62884772 62845328 63158868 
1479.674 63810228 64808904 66183068 67961816 70158104 72759456 75732984 
1483.049 79039352 82644776 86534640 90705952 95150072 99839096 104695048 
1486.424 109569744 114258192 118485320 121933168 124292352 125282720 
1489.317 124727088 122610056 119108152 114563744 109383904 103960456 
1492.210 98569552 93349768 88347048 83537776 78881896 74369800 70035952 
1495.586 65966672 62280792 59085196 56439244 54339092 52738836 51572132 
1498.961 50778116 50314008 50149640 50260960 50625072 51214048 51995828 
1502.336 52937688 53998196 55128140 56266804 57318616 58152688 58598780 
1505.711 58464448 57609728 56025140 53859316 51341084 48671184 45962972 
1509.087 43254264 40552304 37869620 35234020 32699514 30330658 28178038 
1512.462 26274276 24623490 23207482 21997634 20963100 20076540 19312800 
1515.837 18651424 18077746 17584070 17171782 16846330 16610449 16458383 
1519.212 16372839 16326942 16294982 16262406 16237674 16249403 16332241 
1522.588 16504947 16761020 17074206 17412626 17753032 18086520 18422996 
1525.963 18784298 19195490 19671170 20210994 20802794 21431218 22085690 
1529.338 22762796 23466524 24203520 24978686 25794478 26650804 27546490 
1532.713 28481172 29453898 30459760 31485558 32511890 33515458 34475216 
1536.089 35370268 36182532 36898840 37505964 37995740 38362884 38606864 
1539.464 38728016 38727944 38615408 38407804 38130940 37811132 37465004 
1542.839 37093244 36682212 36213792 35676740 35078488 34445908 33815964 
1546.214 33219266 32664220 32137848 31611760 31058334 30463954 29839970 
1549.590 29219434 28644942 28146750 27730672 27379146 27063944 26761196 
1552.965 26462008 26176362 25925686 25730136 25593928 25500696 25415708 
1556.340 25295998 25094412 24766936 24285854 23659726 22953240 22271932 
1559.715 21713968 21320258 21074770 20932814 20847288 20779992 20701932 
1563.091 20596752 20461134 20306534 20155042 20031776 19955274 19928874 
1566.466 19941258 19971892 20001382 20017480 20020846 20023900 20046036 
1569.841 20103920 20203322 20338928 20498994 20671594 20847010 21017628 
1573.216 21176274 21313054 21417086 21480860 21507354 21515188 21536706 
1576.592 21607220 21746122 21952046 22207794 22492378 22789996 23094424 
1579.967 23410012 23747210 24118818 24533340 24992864 25491420 26017108 
1583.342 26552204 27074204 27557786 27972108 28286202 28474450 28520376 
1586.717 28424320 28204980 27902284 27569860 27269690 27065882 27011120 
1590.093 27144460 27487324 28039962 28778784 29651520 30582822 31469740 
1593.468 32195046 32651432 32747176 32431658 31704422 30616490 29259200 
1596.843 27739502 26168936 24637832 23208706 21923122 20800776 19847360 
1600.218 19058266 18422028 17922922 17544636 17275480 17109810 17048636 
1603.594 17095920 17254450 17521590 17887182 18332398 18830524 19349974 
1606.969 19849616 20283098 20603040 20761466 20721846 20464400 19990626 
1610.344 19326242 18517382 17627582 16720282 15849067 15049945 14334951 
1613.719 13699058 13126587 12601153 12111004 11654521 11241257 10887465 
1617.094 10608008 10410342 10290694 10236344 10230814 10254324 10287369 
1620.470 10312850 10316989 10293951 10248489 10195297 10153882 10140416 
1623.845 10161106 10210698 10276783 10346442 10412345 10473404 10533113 
1627.220 10596158 10665528 10741227 10821253 10904318 10991408 11085280 
1630.595 11188250 11299169 11412700 11517891 11601804 11652173 11660443 
1633.971 11625048 11553380 11462707 11375624 11313247 11288116 11300767 
1637.346 11342768 11401713 11465054 11520749 11558382 11571517 11558348 
1640.721 11523607 11476179 11426578 11381780 11341985 11300291 11244488 
1644.096 11161732 11042522 10885699 10701084 10509011 10334668 10199673 
1647.472 10115930 10083135 10092529 10130547 10183222 10234207 10263925 
1650.847 10249846 10166330 9995955 9746483 9469959 9248643 9144812 9167044 
1654.704 9276906 9424955 9570175 9690302 9777456 9832900 9863235 9874997 
1658.562 9871912 9853439 9815819 9754818 9668551 9559471 9434402 9302971 
1662.419 9176250 9063538 8970812 8899953 8849327 8814464 8788058 8760435 
1666.277 8720946 8658410 8564149 8435142 8276927 8103106 7931987 7781916 
1670.134 7663799 7579733 7523732 7486582 7457794 7426413 7382935 7318401 
1673.991 7227360 7111179 6981594 6858611 6761946 6703425 6681319 6683539 
1677.849 6692422 6692456 6674589 6638184 6590008 6539113 6491385 6443797 
1681.706 6383806 6292491 6152833 5960510 5735771 5520343 5360570 5279967 
1685.564 5269805 5301198 5342656 5373082 5381938 5368419 5337726 5297374 
1689.421 5253975 5211787 5174096 5143215 5121154 5108145 5101004 5091886 
1693.279 5068251 5016193 4926070 4799614 4654473 4521635 4430442 4391514 
1697.136 4393154 4406610 4400819 4348774 4238513 4079946 3909668 3776188 
1700.993 3711619 3717935 3771709 3843475 3907896 3950325 3965406 3955542 
1704.851 3928893 3897331 3872759 3863331 3871656 3895927 3931534 3972327 
1708.708 4012690 4049176 4080314 4107440 4133363 4160928 4191639 4225230 
1712.566 4259425 4291314 4318721 4340574 4356472 4365642 4365776 4353091 
1716.423 4324444 4281309 4231720 4189832 4170596 4181870 4222285 4281777 
1720.281 4347335 4406810 4452703 4483602 4503086 4517985 4534491 4556121 
1724.138 4582004 4608727 4632102 4650153 4662712 4671085 4675841 4675606 
1727.995 4667501 4648780 4618673 4580196 4538275 4497027 4456050 4409187 
1731.853 4344256 4247647 4111922 3944440 3771308 3628482 3545527 3528324 
1735.710 3561295 3617088 3670215 3703966 3709714 3688193 3647226 3599214 
1739.568 3556017 3525518 3510319 3508382 3516532 3531698 3552276 3576896 
1743.425 3603991 3631589 3658153 3682980 3706740 3730835 3756268 3782773 
1747.282 3808342 3830036 3845046 3851965 3851397 3846082 3839697 3835853 
1751.140 3837190 3845514 3860891 3882454 3907294 3931167 3947450 3948587 
1754.997 3928692 3884527 3819173 3741329 3663399 3596508 3544960 3505710 
1758.855 3469637 3426753 3368814 3293855 3206459 3117111 3037725 2977202 
1762.712 2938804 2920090 2915220 2917588 2922358 2925294 2923059 2912885 
1766.570 2892938 2863619 2827799 2790615 2757369 2730127 2706654 2681282 
1770.427 2647010 2600508 2545679 2493756 2461465 2462332 2499821 2566577 
1774.284 2648911 2732894 2808590 2873092 2928496 2979337 3028949 3077266 
1778.142 3120548 3153789 3173815 3181659 3182393 3184095 3192640 3210231 
1781.999 3233464 3255730 3270953 3275493 3270720 3260905 3252692 3250556 
1785.857 3255930 3267581 3282437 3298196 3312819 3324739 3331517 3328946 
1789.714 3311851 3275427 3218543 3145445 3066621 2996319 2945709 2920057 
1793.572 2915920 2924493 2935568 2940939 2936635 2921758 2897274 2864119 
1797.429 2822630 2772741 2715256 2652478 2588909 2530181 2481126 2444871 
1801.286 2420981 2407187 2400856 2400490 2405854 2417249 2433975 2453901 
1805.144 2473228 2488324 2496722 2498688 2496555 2494122 2493722 2496122 
1809.001 2499788 2502254 2502387 2501221 2502354 2510352 2527915 2555111 
1812.859 2588675 2624042 2657078 2686116 2712222 2738729 2769573 2806489 
1816.716 2849611 2897007 2945009 2990980 3032453 3068423 3097555 3118980 
1820.573 3131195 3133497 3125688 3108801 3084407 3053941 3019207 2981539 
1824.431 2943407 2907881 2878929 2859650 2850645 2849011 2848811 2842474 
1828.288 2823664 2790748 2748699 2708288 2682249 2680682 2705920 2752967 
1832.146 2811691 2872191 2927729 2976434 3020508 3063785 3109636 3158595 
1836.003 3209196 3259235 3307945 3357394 3412393 3477786 3556919 3649632 
1839.861 3752224 3858718 3962931 4060513 4148918 4228609 4301755 4373474 
1843.718 4450293 4539514 4648110 4779346 4931801 5098993 5271113 5436792 
1847.575 5585886 5712303 5814745 5895918 5960846 6013253 6053805 6079777 
1851.433 6086196 6068790 6026489 5961786 5880132 5786639 5684572 5573804 
1855.290 5452393 5318304 5172453 5018707 4863843 4714125 4573801 4443364 
1859.148 4320528 4202312 4087404 3976607 3872792 3778929 3695979 3623069 
1863.005 3557955 3498495 3444420 3396864 3357494 3326075 3299932 3273991 
1866.863 3242911 3204423 3162066 3124453 3102461 3104163 3131228 3178188 
1870.720 3234599 3290050 3337861 3375326 3403477 3424649 3440179 3449263 
1874.577 3450532 3441949 3423781 3398300 3368948 3338195 3306476 3271554 
1878.435 3229792 3179055 3119247 3053374 2985709 2919823 2856548 2794283 
1882.292 2730460 2663379 2594909 2530148 2474794 2432942 2404588 2384997 
1886.150 2366607 2342554 2309475 2268871 2226306 2188641 2162134 2149180 
1890.007 2149047 2159636 2178384 2204393 2236931 2275100 2316071 2355646 
1893.865 2390261 2417882 2439773 2460066 2483725 2514151 2551178 2591842 
1897.722 2631576 2667313 2698619 2728159 2760003 2797185 2839872 2885733 
1901.579 2930564 2971430 3007429 3040060 3071159 3102027 3130861 3154724 
1905.437 3169810 3174616 3169776 3159063 3146313 3133864 3121750 3108367 
1909.294 3091782 3072261 3052773 3037057 3028516 3026714 3027915 3025546 
1913.152 3013902 2990880 2958119 2920090 2880796 2841473 2799419 2749766 
1917.009 2688550 2617242 2542646 2475761 2425245 2394692 2379400 2370405 
1920.866 2357312 2333859 2300615 2263809 2231335 2208622 2194868 2183313 
1924.724 2166296 2138392 2100434 2058818 2022465 1997499 1984950 1979491 
1928.581 1973234 1959621 1936788 1907834 1879048 1855787 1839382 1826539 
1932.439 1812032 1791969 1766717 1740601 1718712 1704375 1696491 1689872 
1936.296 1678696 1660435 1637219 1616034 1603995 1604227 1613673 1623384 
1940.154 1622752 1604294 1567946 1520761 1473848 1437178 1414639 1403636 
1944.011 1397653 1390673 1381365 1373122 1371493 1380235 1398750 1421753 
1947.868 1442664 1457524 1467165 1476208 1491003 1514311 1543239 1570473 
1951.726 1587200 1588065 1574796 1554113 1534361 1521293 1514810 1508725 
1955.583 1494661 1466933 1425875 1377942 1332539 1296048 1270093 1249823 
1959.441 1229055 1203304 1174997 1150279 1138286 1143867 1166790 1199616 
1963.298 1234338 1264909 1290332 1314260 1341380 1371360 1399847 1416202 
1967.156 1411016 1381299 1332439 1276607 1227061 1193204 1175462 1168950 
1971.013 1164996 1158485 1150843 1147754 1156790 1182339 1223140 1273583 
1974.870 1329116 1390107 1461713 1552450 1667353 1801784 1940516 2061847 
1978.728 2147049 2186110 2181548 2144918 2092177 2036447 1984351 1937487 
1982.585 1894489 1855222 1822213 1800120 1791536 1795562 1807041 1819418 
1986.443 1828169 1834791 1845405 1868765 1909797 1966777 2029556 2085452 
1990.300 2123575 2140956 2143919 2144485 2154941 2180082 2216881 2255415 
1994.157 2285192 2300615 2302980 2300082 2301880 2314572 2338423 2368639 
1998.015 2397991 2421747 2438340 2449536 2456900 2459033 2450202 2422713 
2001.872 2371471 2297217 2208222 2117581 2038544 1979458 1941781 1920547 
2005.730 1908500 1900546 1895554 1895521 1902443 1915156 1927569 1933693 
2009.587 1928335 1912327 1891494 1874256 1865404 1865704 1868565 1865737 
2013.445 1853092 1833094 1814361 1809004 1824908 1862043 1912327 1962849 
2017.302 2004190 2035415 2063978 2101699 2158904 2237097 2327263 2414217 
2021.159 2481926 2521050 2531015 2519383 2496155 2469696 2442838 2414550 
2025.017 2382632 2347984 2313872 2285459 2265474 2250986 2234866 2208622 
2028.874 2168194 2117115 2066508 2029855 2018570 2035881 2076729 2129402 
2032.732 2184079 2234899 2282827 2333426 2391127 2457300 2527315 2595042 
2036.589 2655578 2709621 2761137 2816694 2879462 2947544 3014902 3073261 
2040.447 3116977 3145112 3162367 3175083 3187934 3202120 3215405 3223984 
2044.304 3226721 3226688 3229224 3240541 3263075 3293622 3325574 3351083 
2048.161 3365876 3369015 3363371 3350616 3330115 3297728 3249354 3183895 
2052.019 3107566 3032052 2973832 2946243 2953749 2989546 3038626 3082004 
2055.876 3104797 3102094 3078634 3045899 3016304 2996953 2989579 2990413 
2059.734 2995051 3000622 3008496 3021609 3041729 3068256 3096788 3121216 
2063.591 3138270 3147515 3153055 3160498 3173815 3193241 3215004 3233698 
2067.448 3245782 3251791 3256197 3264276 3279633 3301034 3323170 3338729 
2071.306 3342602 3333887 3316492 3296426 3278465 3264143 3250789 3233230 
2075.163 3207961 3174750 3137102 3101793 3074062 3056177 3046133 3039727 
2079.021 3032386 3022343 3010532 3000289 2994550 2994083 2997019 2999521 
2082.878 2998954 2994317 2987277 2980305 2975567 2972831 2969629 2962222 
2086.736 2947577 2925193 2897040 2866454 2836404 2808623 2782345 2756768 
2090.593 2731094 2706454 2685483 2671447 2666046 2668846 2677848 2690050 
2094.450 2703553 2717657 2732261 2747165 2760470 2768840 2768973 2759603 
2098.308 2742831 2724558 2712622 2713189 2728726 2757069 2791982 2826465 
2102.165 2856048 2879629 2899075 2917822 2937002 2955517 2971030 2980605 
2106.023 2984375 2985742 2990680 3004793 3031051 3067922 3110336 3152454 
2109.880 3189736 3221213 3248786 3275727 3303805 3332719 3359298 3380068 
2113.738 3393258 3400504 3405647 3413328 3426753 3446458 3470238 3494954 
2117.595 3518236 3540249 3562799 3587554 3615050 3643450 3668377 3685854 
2121.452 3693974 3693072 3686556 3678335 3670449 3662630 3652472 3636768 
2125.310 3614015 3585650 3554480 3523982 3494988 3465629 3431229 3387247 
2129.167 3330482 3261706 3184496 3104063 3025312 2950546 2880963 2816694 
2133.025 2760070 2714856 2685783 2675581 2682516 2699185 2716089 2723258 
2136.882 2714789 2691884 2660579 2628976 2602975 2584042 2569143 2553678 
2140.740 2534181 2510485 2487191 2468929 2459399 2457933 2460199 2459766 
2144.597 2451968 2434841 2409985 2379967 2347185 2310774 2268438 2218613 
2148.454 2162400 2104496 2052459 2011280 1982687 1963149 1944343 1917518 
2152.312 1877217 1822779 1756803 1684749 1609948 1533563 1458056 1388213 
2156.169 1336561 1321671 1365078 1480830 1669548 1912260 2176386 2425812 
2160.027 2631576 2780344 2874192 2925394 2948478 2956418 2957018 2953449 
2163.884 2948578 2945276 2947144 2957185 2976134 3000622 3025980 3047234 
2167.741 3061883 3070625 3075931 3079735 3081838 3080703 3072394 3055609 
2171.599 3031785 3005560 2983407 2969662 2965392 2967594 2971731 2973332 
2175.456 2971063 2966126 2960955 2956184 2949412 2935334 2907681 2864887 
2179.314 2810357 2752867 2704020 2674281 2668280 2685616 2720891 2767239 
2183.171 2820762 2879596 2942373 3007529 3070425 3124153 3163201 3185597 
2187.029 3195310 3201018 3213636 3241142 3286177 3344405 3407885 3467833 
2190.886 3518704 3559024 3590394 3615685 3634997 3647728 3651904 3647761 
2194.743 3638138 3629517 3627479 3635866 3653374 3674726 3691067 3696848 
2198.601 3689229 3670683 3646792 3623269 3603457 3587955 3575159 3564536 
2202.458 3558055 3560293 3576596 3609571 3657618 3713557 3768501 3813657 
2206.316 3844344 3861326 3869015 3873294 3878643 3887335 3898200 3909802 
2210.173 3921036 3931468 3941899 3952766 3962798 3969351 3970354 3964737 
2214.031 3954405 3943237 3935045 3932303 3934878 3939525 3942501 3942267 
2217.888 3939692 3938990 3944708 3959487 3982927 4011519 4039577 4062353 
2221.745 4077939 4086970 4091786 4094194 4093759 4088174 4074594 4051550 
2225.603 4020214 3984466 3949556 3918628 3892952 3870686 3847686 3822281 
2229.460 3794337 3766696 3743769 3729632 3725956 3731303 3741897 3754096 
2233.318 3764690 3772779 3778895 3784243 3789992 3796075 3803429 3813189 
2237.175 3827128 3847085 3874330 3907294 3942735 3976206 4004530 4026334 
2241.032 4044360 4061350 4081518 4106302 4134568 4162300 4186018 4203282 
2244.890 4214557 4222854 4231453 4242026 4254573 4265783 4272107 4271538 
2248.747 4264344 4253736 4243766 4237776 4237074 4240654 4246777 4254071 
2252.605 4263139 4275854 4294660 4320595 4352623 4386795 4418224 4441957 
2256.462 4455448 4458092 4451933 4439313 4423279 4406174 4390041 4376553 
2260.320 4367349 4363600 4364973 4370060 4376051 4380301 4381808 4381406 
2264.177 4382276 4388401 4402492 4425053 4453841 4484975 4514537 4540518 
2268.034 4563220 4584784 4607722 4632872 4658860 4683009 4702301 4715264 
2271.892 4722599 4726954 4731677 4739013 4749096 4760318 4770502 4777939 
2275.749 4782227 4785008 4788358 4794321 4803802 4816533 4831610 4848430 
2279.607 4867093 4887868 4911359 4937464 4964811 4991524 5016126 5037814 
2283.464 5056552 5073682 5089606 5104357 5117097 5126820 5132855 5136141 
2287.322 5138018 5141002 5146702 5155889 5167289 5179864 5191969 5203403 
2291.179 5215375 5229627 5247670 5270475 5296569 5324040 5350908 5375799 
2295.036 5398746 5420889 5443770 5468264 5494571 5521853 5549069 5575381 
2298.894 5600050 5622874 5643182 5660201 5672286 5678429 5678295 5672823 
2302.751 5664062 5654494 5645498 5637610 5629655 5619752 5606528 5589981 
2306.609 5571219 5552761 5536887 5524839 5516181 5509470 5502591 5494168 
2310.466 5483900 5472458 5461184 5451588 5444240 5439073 5436221 5435248 
2314.323 5436188 5438738 5442059 5444442 5443871 5438838 5428605 5414481 
2318.181 5399216 5386266 5378718 5378047 5383851 5394317 5406529 5417634 
2322.038 5424747 5425149 5415722 5393479 5355772 5301332 5231371 5150022 
2325.896 5063491 4979022 4903550 4840757 4792311 4756499 4730772 4712215 
2329.753 4699420 4691884 4690344 4695033 4705383 4719853 4737237 4755762 
2333.611 4774924 4795393 4817170 4840087 4863105 4884718 4903550 4919233 
2337.468 4932404 4944066 4955729 4967158 4977748 4986396 4992462 4996283 
2341.325 4999669 5005065 5014349 5028160 5046328 5068285 5094802 5128664 
2345.183 5174733 5238380 5323101 5428706 5550915 5681786 5812261 5933637 
2349.040 6038719 6123125 6185231 6225732 6246841 6252522 6247379 6235614 
2352.898 6221497 6208624 6199212 6194776 6195851 6202674 6215716 6234975 
2356.755 6261161 6294475 6335087 6382058 6434482 6491150 6551659 6616417 
2360.613 6686366 6762316 6844070 6931090 7021260 7112088 7201757 7289220 
2364.470 7374476 7458030 7539780 7618914 7693477 7761069 7819496 7867336 
2368.327 7904351 7931379 7949433 7960300 7965058 7965429 7963572 7962391 
2372.185 7965293 7976330 7998436 8034988 8087848 8158372 8247243 8354980 
2376.042 8481091 8624509 8783865 8956674 9140650 9333811 9534441 9741704 
2379.900 9955270 10174572 10398668 10626242 10854851 11081677 11303794 
2383.275 11517857 11719840 11906114 12072437 12214830 12331123 12419967 
2386.650 12482298 12520526 12537953 12537646 12522128 12492904 12450790 
2390.025 12396374 12330238 12253409 12167020 12072402 11970381 11861743 
2393.401 11747617 11629642 11511018 11395352 11286347 11187230 11099692 
2396.776 11024067 10959941 10906832 10865076 10836166 10822544 10826484 
2400.151 10849381 10891271 10950495 11024747 11111318 11208276 11314404 
2403.526 11429912 11554911 11690293 11836852 11995415 12166884 12352020 
2406.902 12551049 12763442 12988025 13222869 13466042 13716396 13973567 
2410.277 14237429 14508304 14785416 15066307 15347482 15623550 15888933 
2413.652 16138280 16367093 16571240 16748175 16895486 17011800 17096918 
2417.027 17152066 17179952 17183916 17167748 17134626 17086442 17024618 
2420.403 16949678 16862278 16764086 16656790 16543085 16425140 16305372 
2423.778 16185911 16069407 15958775 15858173 15772026 15704000 15656834 
2427.153 15631724 15628118 15644880 15681257 15737565 15815081 15915947 
2430.528 16041385 16191551 16365236 16559675 16772006 16999842 17241866 
2433.904 17497476 17767080 18051046 18349750 18664048 18994674 19342872 
2437.279 19710416 20098818 20508686 20940186 21392234 21863880 22354632 
2440.654 22865184 23396862 23951496 24530500 25134364 25762762 26414786 
2444.029 27089264 27785314 28501976 29238252 29991968 30760116 31539246 
2447.405 32325562 33115376 33905732 34693616 35475676 36248224 37006892 
2450.780 37747224 38466048 39161152 39831804 40477376 41096372 41685508 
2454.155 42238664 42747884 43203896 43597560 43920232 44165780 44328856 
2457.530 44405112 44391980 44286440 44086520 43790732 43398544 42910324 
2460.906 42328184 41655528 40897408 40060584 39153104 38184228 37163584 
2464.281 36101692 35008232 33893304 32767468 31640556 30522672 29424752 
2467.656 28356052 27326496 26344790 25418024 24551572 23749030 23011300 
2471.031 22337890 21726544 21174014 20675938 20227310 19822458 19455580 
2474.406 19121178 18814054 18529866 18265352 18018026 17785960 17567684 
2477.782 17362102 17167818 16984200 16809512 16642192 16480822 16323192 
2481.157 16167788 16014190 15862539 15714649 15573371 15441511 15321326 
2484.532 15214249 15120029 15037561 14965432 14902469 14847744 14800946 
2487.907 14761626 14728924 14701538 14678299 14657976 14640498 14626687 
2491.283 14617469 14614043 14617092 14626173 14641115 14660992 14685600 
2494.658 14715385 14750759 14791484 14836293 14882992 14928565 14970370 
2498.033 15006931 15037939 15064695 15088811 15111659 15133890 15155505 
2501.408 15175818 15194313 15210852 15225779 15239369 15251963 15263495 
2504.784 15274066 15283984 15294418 15306602 15322116 15341441 15363581 
2508.159 15386547 15407042 15421907 15429186 15427915 15417924 15399592 
2511.534 15372884 15336841 15290231 15231819 15160961 15078759 14987210 
2514.909 14888684 14785759 14680494 14574122 14467880 14363581 14263109 
2518.285 14169403 14084514 14009839 13945373 13890084 13841815 13798819 
2521.660 13759658 13723680 13690510 13660145 13632313 13606876 13583902 
2525.035 13564450 13549922 13541923 13541684 13549374 13564450 13585030 
2528.410 13609372 13636792 13666881 13700050 13736812 13776724 13818897 
2531.786 13862135 13905274 13948075 13991668 14037832 14087937 14142908 
2535.161 14202165 14264273 14327965 14392111 14457158 14524509 14595367 
2538.536 14670965 14751445 14835813 14922701 15011355 15101229 15192391 
2541.911 15285219 15379132 15472789 15564167 15651545 15733957 15811885 
2545.287 15886527 15959945 16033340 16107194 16180890 16253153 16323468 
2548.662 16391659 16458761 16526012 16594339 16663572 16732369 16798594 
2552.037 16860040 16915466 16964664 17008354 17048154 17085786 17122286 
2555.412 17158374 17194120 17228628 17261208 17289860 17312478 17326788 
2558.788 17330650 17322926 17303376 17273344 17234488 17189190 17139312 
2562.163 17085822 17028788 16968144 16903718 16835930 16765807 16694320 
2565.538 16622879 16552584 16484262 16418809 16357252 16300591 16250057 
2568.913 16206617 16170539 16141685 16119642 16103756 16094128 16091034 
2572.289 16095228 16106678 16125660 16150970 16181130 16215112 16252156 
2575.664 16292334 16336473 16385261 16439319 16498340 16561568 16627835 
2579.039 16696006 16765635 16836482 16908956 16983408 17060424 17140036 
2582.414 17222768 17308858 17398622 17492200 17588902 17687904 17787480 
2585.790 17886286 17983386 18078404 18171574 18263554 18354450 18444050 
2589.165 18531526 18615800 18695908 18771774 18843846 18913336 18981346 
2592.540 19048780 19115914 19182778 19249344 19315886 19382920 19451838 
2595.915 19523572 19599028 19678762 19763226 19852528 19947226 20047528 
2599.291 20153516 20265322 20382160 20503440 20628544 20757226 20889528 
2602.666 21026426 21168516 21315872 21468328 21625120 21785034 21947760 
2606.041 22113128 22281558 22453610 22629016 22806828 22985066 23161452 
2609.416 23333784 23500206 23660006 23812518 23956992 24092618 24217778 
2612.792 24330288 24428526 24510764 24576396 24625382 24658172 24675600 
2616.167 24678336 24667184 24643338 24608340 24564090 24512938 24457304 
2619.542 24399222 24340662 24282948 24227168 24174232 24124912 24079450 
2622.917 24037810 23999884 23965360 23934234 23907240 23885570 23871218 
2626.292 23865722 23870728 23886726 23913752 23951074 23997364 24051958 
2629.668 24114196 24183622 24260066 24342728 24431014 24523910 24620858 
2633.043 24721336 24825626 24933978 25046884 25164522 25286864 25413352 
2636.418 25543638 25677160 25813782 25953156 26094792 26238340 26382674 
2639.793 26526632 26668808 26808068 26943602 27074876 27201814 27324626 
2643.169 27444086 27560928 27676248 27791284 27906878 28024236 28143462 
2646.544 28264808 28388310 28514148 28642358 28773650 28908700 29047974 
2649.919 29191862 29340442 29493080 29649818 29810266 29974856 30144090 
2653.294 30318826 30499854 30687604 30882090 31082820 31289592 31501446 
2656.670 31718146 31939342 32165002 32395244 32630142 32869990 33114374 
2660.045 33363294 33615832 33871092 34128008 34385076 34641008 34895040 
2663.420 35146532 35395540 35642244 35887400 36131612 36375604 36620524 
2666.795 36867136 37116052 37367856 37622692 37880540 38140996 38403856 
2670.171 38668684 38935488 39204304 39475356 39748572 40023632 40299704 
2673.546 40575876 40850808 41123180 41391680 41654836 41911364 42160264 
2676.921 42400584 42632224 42855716 43072744 43285524 43496976 43710408 
2680.296 43928812 44155544 44393516 44645684 44914828 45203180 45512772 
2683.672 45844828 46199836 46577188 46976064 47395296 47833356 48289080 
2687.047 48760924 49247272 49746540 50257204 50778116 51308676 51849188 
2690.422 52400088 52962208 53535920 54121468 54718176 55325568 55943084 
2693.797 56570156 57207060 57853712 58510360 59176808 59853024 60538752 
2697.173 61233660 61937356 62649468 63368952 64094476 64824448 65556840 
2700.548 66290392 67023948 67757000 68488736 69218128 69942600 70658888 
2703.923 71362688 72049288 72714408 73353792 73963592 74539872 75077960 
2707.298 75572936 76019496 76412976 76749520 77026856 77244000 77401216 
2710.674 77499664 77540656 77526168 77458040 77338136 77168440 76949752 
2714.049 76682352 76365448 75997984 75578616 75107144 74584368 74012464 
2717.424 73394712 72734736 72036848 71305440 70544896 69760744 68958792 
2720.799 68145744 67328256 66512816 65705524 64911544 64135844 63382760 
2724.175 62657312 61963416 61305120 60685696 60107252 59571008 59077488 
2727.550 58626728 58219024 57854740 57534256 57258128 57025736 56836068 
2730.925 56687404 56577592 56504900 56467956 56465580 56497204 56561700 
2734.300 56657768 56783384 56936236 57113704 57313212 57532328 57768396 
2737.676 58018152 58277864 58543612 58810276 59073348 59328868 59573024 
2741.051 59803020 60017384 60214804 60395368 60559552 60709468 60847284 
2744.426 60976020 61098776 61217824 61335380 61452928 61571544 61692172 
2747.801 61815356 61941784 62071656 62204928 62341300 62480124 62621908 
2751.177 62766984 62917360 63075648 63244948 63428996 63631200 63854792 
2754.552 64102812 64377836 64681560 65015480 65380164 65774568 66196568 
2757.927 66643356 67110840 67594104 68088184 68586904 69083192 69569912 
2761.302 70038792 70481608 70890968 71259800 71582760 71855832 72075808 
2764.677 72241064 72350528 72404576 72404576 72353112 72253816 72111096 
2768.053 71929888 71715664 71474232 71211544 70934696 70649768 70363456 
2771.428 70081112 69807056 69544592 69295744 69061552 68842992 68640136 
2774.803 68453128 68281120 68122640 67975528 67836056 67700312 67563872 
2778.178 67421088 67266432 67093356 66895068 66665188 66397980 66090772 
2781.554 65743148 65358364 64942600 64503356 64048932 63587548 63125612 
2784.929 62668368 62219536 61781736 61356712 60945712 60548660 60165212 
2788.304 59794464 59435276 59086824 58749200 58422864 58109048 57808668 
2791.679 57522608 57250948 56993056 56748120 56514712 56291584 56077016 
2795.055 55869108 55665588 55463224 55258620 55048244 54828988 54598188 
2798.430 54354076 54095872 53822892 53535020 53232396 52914896 52582556 
2801.805 52235332 51873756 51497588 51107436 50703708 50287148 49859244 
2805.180 49421736 48977212 48528512 48079168 47633056 47193940 46765676 
2808.556 46352100 45956524 45582028 45231200 44906156 44607716 44336492 
2811.931 44092388 43875072 43684024 43518808 43378952 43263524 43171768 
2815.306 43102348 43054084 43025696 43016476 43026280 43055876 43106588 
2818.681 43180108 43278128 43401912 43552760 43730816 43936144 44168056 
2822.057 44425376 44706352 45008976 45330784 45669512 46022792 46388524 
2825.432 46764164 47146664 47532608 47916856 48294040 48657768 49001320 
2828.807 49318944 49605332 49855640 50067492 50239160 50370524 50463112 
2832.182 50519536 50543880 50540680 50515332 50473348 50420464 50362564 
2835.558 50305044 50253224 50212232 50186268 50178872 50193336 50232168 
2838.933 50298424 50395416 50527724 50700880 50922124 51199288 51541836 
2842.308 51960052 52464728 53068112 53783628 54623892 55601112 56723688 
2845.683 57992440 59397400 60914144 62502316 64101124 65636612 67025572 
2849.059 68178536 69017504 69480664 69529776 69157672 68385672 67262448 
2852.434 65851560 64229684 62477140 60665844 58862860 57123944 55489280 
2855.809 53988176 52637012 51440552 50394936 49488684 48706988 48031644 
2859.184 47444672 46929400 46470052 46053220 45668072 45305484 44959032 
2862.560 44625048 44302180 43991724 43696848 43421760 43171072 42949128 
2865.935 42760024 42606304 42490168 42412860 42374460 42374536 42411140 
2869.310 42481584 42581672 42706168 42848696 43001804 43157788 43309356 
2872.685 43449772 43575180 43684024 43778712 43864220 43948132 44039248 
2876.061 44145168 44272316 44424640 44604080 44810852 45044040 45303128 
2879.436 45586884 45894504 46224748 46575900 46945164 47330004 47726980 
2882.811 48132468 48543224 48955332 49365084 49769016 50163324 50545072 
2886.186 50912028 51263148 51598288 51918448 52225768 52522680 52812880 
2889.562 53100724 53390444 53687444 53997404 54325688 54678832 55063856 
2892.937 55488448 55962304 56495732 57099532 57783424 58554224 59412976 
2896.312 60352572 61356980 62399444 63441688 64440472 65347776 66116236 
2899.687 66709192 67101708 67285856 67271816 67086244 66768036 66359684 
2903.063 65907204 65451928 65027140 64661028 64374028 64181200 64093596 
2906.438 64119516 64265140 64535452 64934792 65467300 66137380 66950032 
2909.813 67909200 69017664 70274360 71672824 73198696 74830280 76535832 
2913.188 78273920 79998496 81655464 83189432 84550672 85694624 86590488 
2916.563 87223832 87596064 87723128 87630928 87351608 86915912 86349864 
2919.939 85673352 84897816 84028352 83066408 82012344 80868256 79641112 
2923.314 78342056 76987488 75597824 74193944 72797272 71426696 70097352 
2926.689 68821368 67606952 66459252 65381244 64374068 63437432 62570012 
2930.064 61770432 61036228 60364832 59753020 59197200 58693100 58236448 
2933.440 57822976 57448548 57110264 56805704 56533244 56291172 56077352 
2936.815 55888288 55719076 55563944 55416772 55272320 55127236 54981076 
2940.190 54835640 54694912 54563700 54446536 54346492 54263996 54196464 
2943.565 54137756 54078984 54008964 53914680 53785204 53611300 53388724 
2946.941 53119220 52810708 52477440 52135720 51804164 51499864 51234928 
2950.316 51017172 50847768 50723332 50634976 50571388 50520092 50468508 
2953.691 50405172 50321784 50211788 50071544 49899532 49695488 49459644 
2957.066 49192868 48896140 48570976 48219948 47847228 47457496 47056632 
2960.442 46650564 46244356 45842504 45448572 45064840 44694012 44337996 
2963.817 43998948 43679296 43381224 43106664 42857768 42635876 42442340 
2967.192 42277888 42141864 42032384 41945924 41877248 41820620 41769804 
2970.567 41720120 41668072 41612240 41552988 41491704 41430532 41371524 
2973.943 41316384 41266172 41220812 41178588 41135564 41085300 41017344 
2977.318 40919652 40778228 40579188 40311520 39968048 39547172 39052856 
2980.693 38494760 37887552 37247980 36595220 35948476 35324332 34737656 
2984.068 34199304 33715796 33290238 32922712 32611888 32356008 32154832 
2987.444 32008424 31916556 31876116 31878792 31908066 31940732 31947188 
2990.819 31894728 31755112 31508002 31145718 30675266 30117278 29503330 
2994.194 28866914 28241576 27654496 27122170 26652354 26243970 25890938 
2997.569 25584122 25314154 25073596 24856150 24657012 24472412 24299240 
3000.945 24134476 23976004 23822352 23672778 23527278 23386372 23250754 
3004.320 23120982 22997466 22880412 22770162 22666504 22569294 22478070 
3007.695 22392344 22311206 22234298 22161312 22092452 22027996 21968462 
3011.070 21913780 21863496 21816598 21771864 21728144 21685094 21642740 
3014.446 21602308 21565432 21534094 21510140 21495064 21489668 21493706 
3017.821 21506658 21526922 21552166 21579988 21607882 21633270 21653956 
3021.196 21668026 21674122 21670884 21656986 21631700 21594892 21547188 
3024.571 21490434 21427354 21361778 21296976 21236292 21181944 21134806 
3027.947 21094908 21061308 21032372 21006290 20981252 20955416 20927044 
3031.322 20894778 20857542 20815134 20767758 20716146 20661692 20605750 
3034.697 20550128 20496388 20446340 20401746 20364208 20334902 20314554 
3038.072 20303096 20300040 20304416 20315144 20331498 20352992 20379452 
3041.448 20410568 20446304 20485728 20528140 20572258 20616800 20660684 
3044.823 20702766 20741830 20777106 20808112 20834914 20858412 20880036 
3048.198 20901730 20924922 20950304 20977218 21004064 21028338 21047780 
3051.573 21060406 21065310 21062562 21052754 21037068 21016132 20991510 
3054.948 20964352 20936328 20909344 20885600 20866096 20851390 20840752 
3058.324 20832688 20825456 20817532 20808286 20797790 20786630 20775508 
3061.699 20765116 20755662 20747252 20740092 20734738 20732028 20732968 
3065.074 20738146 20747426 20760422 20775890 20792886 20810824 20829802 
3068.449 20850244 20873050 20898636 20927182 20958302 20991406 21025662 
3071.825 21060440 21095362 21130492 21166080 21202750 21241230 21282082 
3075.200 21325722 21372464 21421888 21473550 21526574 21580196 21633756 
3078.575 21687184 21740302 21793080 21845414 21896880 21946992 21995160 
3081.950 22041102 22084782 22126202 22165218 22201308 22233846 22262130 
3085.326 22285952 22306600 22325820 22346506 22371274 22402042 22439304 
3088.701 22482120 22528288 22575750 22622906 22669368 22715416 22762098 
3092.076 22810250 22860050 22911532 22964488 23018778 23074926 23133634 
3095.451 23195702 23261384 23330080 23400358 23470686 23539206 23605008 
3098.827 23667844 23727892 23785776 23842234 23897440 23951600 24005034 
3102.202 24057912 24110656 24163444 24216412 24269492 24322508 24375566 
3105.577 24429226 24484084 24541368 24601574 24664904 24731086 24798964 
3108.952 24867692 24936574 25005640 25075316 25146196 25218736 25293082 
3112.328 25368846 25445850 25523748 25602538 25681834 25761428 25840050 
3115.703 25916366 25988860 26056792 26120304 26180760 26240170 26301066 
3119.078 26365174 26433202 26504480 26577706 26651332 26724268 26795944 
3122.453 26866612 26936904 27007136 27077836 27148940 27220370 27292024 
3125.829 27364078 27436568 27509704 27583384 27657534 27732050 27806790 
3129.204 27881968 27957444 28033282 28108960 28183836 28257136 28328430 
3132.579 28397684 28465606 28533362 28602472 28673930 28748478 28826262 
3135.954 28907108 28990588 29076068 29163052 29250338 29336934 29421134 
3139.330 29501912 29578660 29651698 29722370 29792450 29863750 29937652 
3142.705 30014654 30094442 30176268 30259390 30343414 30428486 30514818 
3146.080 30602660 30691942 30782168 30873090 30964314 31055700 31147818 
3149.455 31240916 31335030 31430058 31525388 31620170 31713478 31805090 
3152.831 31894586 31982176 32068138 32152728 32236334 32319922 32404312 
3156.206 32490856 32581136 32676008 32775830 32879784 32986946 33095744 
3159.581 33204998 33314026 33422836 33531706 33641032 33750748 33860488 
3162.956 33969504 34077296 34183676 34289044 34394116 34499856 34606448 
3166.332 34713464 34819860 34923804 35023532 35117860 35206064 35288320 
3169.707 35365776 35439468 35510908 35580924 35649620 35716452 35780348 
3173.082 35839792 35893664 35940772 35980804 36013776 36040524 36062160 
3176.457 36080160 36096288 36112388 36130136 36150912 36175800 36205152 
3179.833 36238212 36274088 36310936 36347144 36381404 36413184 36442192 
3183.208 36469288 36495164 36520900 36546848 36573772 36602068 36631884 
3186.583 36663352 36696272 36730492 36765252 36799872 36833916 36867136 
3189.958 36899600 36931740 36964100 36997152 37031064 37066068 37102084 
3193.333 37139292 37177844 37217548 37257980 37298056 37336692 37372368 
3196.709 37404256 37432424 37457708 37481764 37505820 37531216 37557912 
3200.084 37585300 37612288 37637904 37661792 37684304 37706312 37728684 
3203.459 37752032 37776248 37801152 37826384 37852160 37878260 37905016 
3206.834 37932460 37959976 37986808 38012160 38035700 38057768 38079212 
3210.210 38101064 38123956 38147328 38170228 38191356 38209484 38224824 
3213.585 38238392 38252072 38267740 38286448 38307836 38330672 38353220 
3216.960 38373996 38392348 38408524 38423368 38438024 38453232 38469416 
3220.335 38486540 38505400 38526076 38549540 38576264 38606212 38638444 
3223.711 38671544 38703748 38733920 38761596 38787612 38813044 38839096 
3227.086 38866452 38895336 38925160 38955204 38985108 39014684 39043900 
3230.461 39073156 39102340 39130984 39158688 39185376 39211304 39237520 
3233.836 39265052 39295080 39328092 39364008 39402204 39442012 39482468 
3237.212 39523076 39563684 39604084 39644160 39683800 39723048 39762116 
3240.587 39801516 39841972 39883920 39927764 39972880 40018436 40063056 
3243.962 40105896 40146092 40183960 40220200 40255680 40291236 40327336 
3247.337 40363948 40400860 40437916 40474644 40511056 40546812 40581808 
3250.713 40615640 40648532 40680372 40711848 40743652 40776408 40810548 
3254.088 40846000 40881900 40917064 40950016 40979616 41004852 41025684 
3257.463 41042360 41055764 41066944 41077216 41087592 41099176 41112220 
3260.838 41126492 41141464 41156036 41169008 41179460 41186708 41190168 
3264.214 41190024 41185724 41177676 41165944 41150612 41132504 41112616 
3267.589 41092256 41072552 41054160 41037336 41021092 41004340 40985664 
3270.964 40964216 40939492 40912004 40882768 40853064 40824128 40796864 
3274.339 40771568 40748200 40726040 40703840 40680516 40654900 40626228 
3277.715 40594792 40561400 40527788 40495780 40467192 40442896 40423040 
3281.090 40406676 40392132 40378132 40363292 40346968 40329300 40310428 
3284.465 40290472 40269312 40247172 40223616 40198648 40172696 40146236 
3287.840 40119892 40094088 40068832 40044164 40020400 39997620 39976800 
3291.216 39959112 39945488 39937136 39934192 39936624 39943820 39955224 
3294.591 39970156 39988208 40008956 40031880 40056440 40082060 40107572 
3297.966 40132500 40156084 40177964 40198540 40217908 40236520 40255316 
3301.341 40275092 40296616 40320716 40348420 40380132 40416060 40456424 
3304.717 40500728 40548340 40598760 40651152 40704748 40758540 40811896 
3308.092 40864276 40915500 40965816 41015704 41066108 41117572 41171012 
3311.467 41226892 41285664 41347616 41412820 41481200 41552660 41626392 
3314.842 41701516 41776916 41851852 41925596 41998072 42069144 42139016 
3318.218 42207152 42272960 42335192 42393676 42447712 42498204 42546296 
3321.593 42593480 42641068 42689648 42739148 42789164 42838824 42887976 
3324.968 42936292 42983916 43030924 43076660 43120168 43160564 43197092 
3328.343 43229960 43259936 43288672 43317480 43346952 43376868 43406088 
3331.719 43432268 43453580 43467828 43473868 43470936 43458744 43437872 
3335.094 43409312 43374964 43336776 43297528 43259424 43223628 43190172 
3338.469 43157824 43124336 43087380 43045084 42996136 42940352 42878172 
3341.844 42809896 42735748 42655724 42569356 42476868 42378188 42274016 
3345.219 42165380 42052972 41937600 41820584 41702432 41584528 41467824 
3348.595 41353228 41241140 41130936 41021420 40910256 40795444 40675932 
3351.970 40551032 40421480 40288652 40154556 40020764 39888712 39759684 
3355.345 39634576 39514040 39399012 39289968 39186968 39089724 38997684 
3358.720 38910008 38826160 38745404 38667780 38593248 38521552 38452288 
3362.096 38384596 38317712 38250696 38183432 38115892 38048576 37982288 
3365.471 37917776 37855920 37797320 37742308 37691096 37643540 37599064 
3368.846 37557116 37516404 37476276 37435784 37394072 37350772 37305244 
3372.221 37256500 37203364 37144348 37078916 37006532 36927592 36843152 
3375.597 36754252 36661948 36566132 36466408 36361156 36249088 36128696 
3378.972 35999192 35860012 35711096 35552228 35383136 35203800 35014192 
3382.347 34814836 34607240 34392860 34173568 33950764 33725536 33497918 
3385.722 33267736 33034426 32797736 32557174 32313354 32066960 31819318 
3389.098 31571496 31324812 31080080 30837800 30597790 30359864 30123136 
3392.473 29887140 29651414 29416346 29182258 28949890 28719308 28490620 
3395.848 28263004 28035756 27808310 27580770 27354198 27130456 26911098 
3399.223 26697382 26489652 26286808 26087016 25888370 25689180 25488644 
3402.599 25287006 25084934 24883098 24682230 24482332 24283016 24084668 
3405.974 23887322 23692094 23500066 23312212 23128844 22949118 22771420 
3409.349 22593830 22414778 22233566 22051002 21868862 21689482 21515050 
3412.724 21346918 21185040 21028582 20875830 20725460 20576322 20428348 
3416.100 20281744 20137238 19995276 19855614 19717526 19580068 19442446 
3419.475 19304592 19167508 19032510 18901742 18776930 18658862 18547120 
3422.850 18440488 18336824 18234286 18131636 18027766 17923334 17819274 
3426.225 17716204 17615160 17516726 17420212 17325408 17231282 17136624 
3429.601 17040402 16941754 16839856 16734745 16627148 16518749 16411342 
3432.976 16307436 16208543 16115826 16029455 15947983 15869549 15792128 
3436.351 15713895 15633477 15550670 15465819 15380162 15294418 15209720 
3439.726 15126376 15044765 14964231 14884364 14804820 14725222 14645741 
3443.102 14567132 14489941 14414409 14340567 14267080 14192922 14116620 
3446.477 14037251 13954884 13871166 13788216 13708564 13634091 13565202 
3449.852 13500905 13438872 13376711 13312134 13244013 13172385 13098243 
3453.227 13022952 12947776 12873637 12800876 12729458 12659450 12591057 
3456.603 12524072 12458667 12393885 12328567 12261180 12189919 12113933 
3459.978 12033567 11949809 11864875 11781389 11701424 11626443 11557089 
3463.353 11492305 11431444 11372937 11315696 11258871 11202496 11146876 
3466.728 11092215 11038784 10986038 10932893 10877817 10818807 10754779 
3470.104 10685395 10611437 10535150 10459419 10387130 10320382 10260329 
3473.479 10206356 10156934 10110028 10063636 10016197 9967306 9917166 
3476.854 9866727 9817175 9769118 9723102 9678749 9635113 9591108 9545957 
3480.711 9499185 9451232 9403115 9356696 9313906 9275823 9242923 9214120 
3484.569 9187485 9160683 9131344 9098522 9061846 9022636 8982448 8943752 
3488.426 8908003 8876348 8848956 8825352 8804693 8785927 8768515 8751677 
3492.284 8735450 8719696 8705025 8692179 8682173 8676156 8674500 8677947 
3496.141 8685858 8697993 8713848 8732813 8754721 8779367 8806316 8834923 
3499.999 8864072 8892614 8919705 8945174 8970001 8995776 9025004 9060155 
3503.856 9103124 9154964 9215102 9282559 9355478 9431456 9508668 9585486 
3507.713 9660962 9735266 9809278 9884928 9964017 10048308 10138178 10233019 
3511.571 10331207 10430163 10528395 10624985 10720170 10815139 10911351 
3514.946 11009283 11109040 11208922 11307330 11402291 11492952 11578697 
3518.321 11659932 11736622 11807945 11872605 11928217 11972458 12003454 
3521.697 12020350 12022904 12012515 11990170 11956995 11913572 11859495 
3525.072 11794019 11716129 11624605 11518946 11399739 11268324 11127329 
3528.447 10980092 10829882 10678738 10528360 10378307 10227660 10074623 
3531.822 9918251 9757563 9592463 9423025 9249489 9072030 8891296 8708067 
3535.680 8524274 8342483 8165800 7997287 7838759 7690711 7552524 7421728 
3539.537 7296161 7173527 7052005 6930619 6808425 6685121 6560271 6433607 
3543.395 6305468 6176089 6046379 5916876 5788285 5661241 5536115 5413810 
3547.252 5295295 5181976 5074520 4973559 4878285 4787118 4697880 4608526 
3551.109 4518219 4427195 4337194 4250391 4169325 4094997 4027605 3965874 
3554.967 3908364 3853369 3800187 3748381 3698051 3649432 3601820 3554948 
3558.824 3507580 3458548 3407083 3353454 3297995 3241976 3187300 3134932 
3562.682 3085909 3039760 2995284 2949312 2897974 2837304 2764505 2679248 
3566.539 2584942 2488224 2398124 2322333 2266040 2229803 2210554 2202295 
3570.396 2198132 2192737 2182081 2164964 2141422 2113453 2082522 2050462 
3574.254 2017838 1984717 1950468 1914823 1877617 1839615 1801717 1765186 
3578.111 1731087 1700250 1672941 1648494 1626311 1605857 1586469 1568345 
3581.969 1551685 1536555 1522856 1509190 1493198 1471753 1441068 1398185 
3585.826 1342011 1274114 1199251 1124433 1057799 1006418 974305 961686 
3589.684 965338 980083 999444 1017046 1027773 1027641 1014788 989481 954181 
3594.023 913073 871039 832528 800560 776129 758404 745227 734373 723122 
3598.363 710112 695111 678286 661029 645466 633686 627348 628045 635744 
3602.702 649880 668463 688408 706528 719139 722857 714725 693352 658043 
3607.042 610094 552795 490959 430292 376466 332859 300662 277553 260014 
3611.382 243769 225535 204219 180949 158840 141107 129705 124237 121618 
3615.721 116978 104649 80655 42976 -6527 -63513 -119663 -166764 -198129 
3620.061 -209886 -202832 -181304 -151197 -118338 -87166 -60001 -37075 -16864 
3624.400 2253 20742 36979 46025 41552 16335 -34491 -110222 -201308 -290455 
3629.222 -358362 -391169 -386369 -352204 -303136 -252937 -212204 -187166 
3633.080 -178357 -182497 -193492 -205448 -214423 -219457 -221941 -224325 
3636.937 -229127 -236843 -246844 -256779 -264594 -268865 -269064 -265819 
3640.794 -260421 -253500 -244659 -233896 -220451 -204388 -187365 -172428 
3644.652 -163088 -163518 -177330 -206309 -250089 -306282 -370578 -437083 
3648.509 -499771 -552622 -589849 -606823 -600040 -569002 -516649 -448999 
3652.367 -375080 -303633 -243831 -202633 -183954 -188094 -211012 -244957 
3656.224 -279130 -304660 -315785 -311878 -295554 -271978 -246248 -222239 
3660.082 -202136 -186637 -175508 -167493 -161233 -155403 -148713 -140399 
3663.939 -129965 -116251 -98926 -76864 -50095 -19482 13419 46191 77573 
3668.279 109820 151515 217811 329510 506583 760196 1089188 1481461 1920281 
3672.618 2387629 2866621 3340098 3781435 4152866 4408317 4502584 4412467 
3676.476 4146343 3738154 3232529 2672247 2097871 1543705 1041424 618091 
3680.333 288063 51857 -104194 -200414 -259660 -299229 -328432 -350549 
3684.190 -365513 -374054 -380112 -390640 -413249 -454725 -517146 -596632 
3688.048 -683977 -767203 -836292 -885597 -914827 -926928 -925408 -913273 
3691.905 -891979 -863211 -829215 -792836 -757644 -726386 -700981 -681496 
3695.763 -666774 -655095 -644608 -634781 -626080 -620720 -621216 -630116 
3699.620 -649107 -677890 -713617 -750962 -783476 -804577 -810298 -799814 
3703.478 -776034 -743950 -709151 -676401 -648379 -625881 -607882 -593621 
3707.335 -582205 -574760 -573039 -579822 -597095 -625881 -663730 -707200 
3711.192 -749904 -785030 -806693 -810761 -795945 -764193 -719538 -668263 
3715.050 -616319 -570061 -534388 -511817 -502584 -504338 -513936 -527405 
3718.907 -542860 -559770 -578565 -599941 -623135 -645732 -664094 -675111 
3722.765 -677261 -672100 -663763 -657742 -658304 -667138 -682422 -698863 
3726.622 -709945 -709681 -695059 -667303 -631208 -593521 -561821 -542860 
3730.479 -540311 -555170 -583959 -621017 -659132 -693306 -722251 -749209 
3734.337 -778845 -814796 -856564 -898559 -931623 -946336 -937971 -907487 
3738.194 -860565 -804610 -746695 -691652 -641696 -598385 -564038 -543323 
3742.052 -544150 -575620 -644442 -747655 -868501 -978108 -1045940 -1056617 
3745.909 -1015298 -942303 -862119 -795482 -757578 -753807 -780962 -827628 
3749.767 -879215 -922432 -949345 -958437 -951262 -929871 -894955 -846412 
3753.624 -786155 -718149 -649041 -585812 -535314 -501392 -485672 -486168 
3757.481 -499208 -520555 -546434 -573469 -598551 -617146 -625054 -618767 
3761.339 -598121 -566586 -530814 -499142 -479152 -474551 -484613 -503511 
3765.196 -523864 -538160 -542893 -540014 -535447 -536142 -546897 -569267 
3769.054 -599213 -629984 -653441 -662936 -656683 -635972 -605003 -568903 
3772.911 -532501 -499010 -470546 -447906 -431058 -419704 -413448 -412620 
3776.769 -417818 -429701 -448568 -473194 -500499 -525519 -543257 -549379 
3780.626 -542893 -526412 -505099 -484778 -471076 -466541 -470976 -481303 
3784.483 -493516 -503411 -508839 -509236 -506357 -502088 -497620 -493482 
3788.341 -489379 -485407 -481733 -479350 -479251 -481766 -486433 -491662 
3792.198 -495733 -497289 -496924 -496097 -497620 -503544 -514465 -528332 
3796.056 -541039 -547393 -544415 -531575 -513638 -497487 -492523 -507283 
3799.913 -546831 -609966 -687252 -762969 -818269 -839798 -825511 -782616 
3803.771 -725493 -669454 -628429 -610793 -618337 -644806 -676996 -700021 
3807.628 -700782 -675210 -627072 -565461 -500036 -438804 -386667 -344755 
3811.485 -312805 -289726 -275852 -272740 -283104 -309527 -351840 -405901 
3815.343 -463066 -511321 -539815 -544316 -528001 -500797 -475511 -465581 
3819.200 -481369 -528067 -603018 -694794 -784303 -850347 -879017 -867708 
3823.058 -824552 -762771 -697209 -639645 -596268 -568638 -552986 -542330 
3826.915 -529556 -510130 -483222 -451845 -420962 -395473 -379119 -372763 
3830.772 -375147 -383191 -393454 -402491 -408383 -410105 -408383 -405503 
3834.630 -404411 -409575 -425762 -456545 -502617 -561060 -624855 -684076 
3838.487 -729462 -754899 -759761 -748019 -725691 -699492 -674317 -651886 
3842.345 -632101 -613010 -592032 -567149 -537366 -502948 -465283 -426192 
3846.202 -387296 -350416 -316248 -285057 -257441 -233068 -213562 -202070 
3850.060 -203892 -226908 -280356 -371472 -502683 -664921 -836656 -985017 
3853.917 -1080745 -1109863 -1078432 -1004720 -910165 -812282 -720696 -640472 
3857.774 -571815 -513836 -464986 -424272 -391931 -368161 -352833 -345947 
3861.632 -346841 -354853 -370048 -391931 -419340 -449297 -476107 -493714 
3865.489 -497620 -486996 -466541 -444894 -433574 -442114 -475742 -532402 
3869.347 -601430 -666211 -710541 -725691 -713650 -684440 -650430 -622572 
3873.204 -606194 -599841 -597095 -589187 -569267 -534388 -487426 -434765 
3877.062 -384913 -345185 -321182 -315122 -325784 -348430 -375345 -398452 
3880.919 -411032 -409740 -395572 -373988 -352932 -340683 -344457 -367698 
3884.776 -408483 -458564 -505529 -537101 -545606 -530847 -499374 -461345 
3888.634 -427218 -404874 -398552 -407655 -427152 -448568 -463827 -466640 
3892.491 -454526 -429138 -393553 -352668 -310355 -270157 -235452 -208429 
3896.349 -191373 -185246 -190313 -204819 -226246 -250553 -274461 -295554 
3900.206 -313566 -330088 -348066 -369850 -396863 -428609 -462073 -492324 
3904.063 -514300 -523599 -517841 -497289 -464721 -423974 -379152 -334326 
3907.921 -292508 -255620 -224524 -199123 -178489 -161200 -145599 -130594 
3911.778 -115291 -99688 -84847 -72822 -66528 -68317 -80872 -104657 -138411 
3916.118 -178688 -219821 -256547 -283965 -299759 -304163 -299031 -287408 
3919.975 -271912 -254891 -237506 -220914 -205912 -193956 -186405 -184053 
3923.833 -187001 -193492 -200944 -206508 -208131 -205084 -198593 -191041 
3927.690 -184616 -181006 -180609 -183126 -187365 -192499 -197997 -203991 
3931.548 -210416 -216675 -221212 -222471 -218795 -210052 -197500 -183556 
3935.405 -171236 -162690 -159279 -160405 -164644 -170043 -174548 -177694 
3939.262 -179450 -181006 -183391 -187266 -193062 -200249 -208164 -215682 
3943.120 -221875 -225551 -226279 -223663 -218099 -211012 -203991 -198924 
3946.977 -197367 -199487 -204753 -211343 -217172 -220285 -219821 -215847 
3950.835 -209091 -200414 -190213 -178522 -165340 -150998 -136755 -124433 
3954.692 -116019 -112707 -114297 -119199 -124168 -126354 -123042 -113899 
3958.550 -99953 -84119 -69410 -58908 -54137 -55330 -61359 -70105 -79150 
3962.889 -86603 -91109 -91672 -88558 -82628 -75008 -66793 -58908 -52017 
3967.229 -45821 -39924 -33596 -26705 -19349 -12160 -5864 -728 3180 6593 
3972.051 10404 15241 21040 27402 33267 38006 40823 42314 43341 44799 47317 
3977.354 51195 56265 61832 67333 72271 76546 79827 82113 83141 82544 80258 
3982.658 76579 72370 68427 65544 63986 63853 64417 64980 64914 63754 61004 
3987.962 56828 50963 44070 36217 28463 22034 18091 17561 20808 26839 34261 
3993.266 40988 45130 45727 42479 36515 29059 21703 15672 11431 8946 7620 
3998.570 6958 5964 3545 -530 -6527 
##END=
