
##TITLE=1675_2_e
##JCAMP-DX=5.01  $$ Nicolet v. 1
##DATATYPE=INFRARED SPECTRUM
##ORIGIN=UniL
##OWNER=Nicolet
##LONGDATE=2011/09/16
##TIME=11:47:44
##SPECTROMETER/DATA SYSTEM=Nicolet iS5
##DATA PROCESSING=
Ratio against background
%Transmittance->Absorbance
Truncated
ElementMultiply or ElementDivide
##COMMENTS=
Number of sample scans: 32
Collection length: 51.15 sec
Sample gain: 2.0
Background collected on: Ven Sep 16 11:34:41 2011 (GMT+02:00);
Number of background scans: 32
Background gain: 2.0
Sample spacing:  1.000
Number of scan points: 12415
Resolution points: 8192
Number of FFT points: 65536
Apodization: N-B fort;
Phase correction: Mertz;
Laser frequency: 15798.0 cm-1
Number of rejected sample scans: 0
Number of rejected background scans: 0
Bench serial number: ASB1000141;
##RESOLUTION=4.000
##XUNITS=1/CM
##YUNITS=ABSORBANCE
##FIRSTX=649.893372
##LASTX=4000.122314
##FIRSTY=0.080930
##MAXX=4000.122314
##MINX=649.893372
##MAXY=0.270771
##MINY=-0.002502
##XFACTOR=1.000000
##YFACTOR=1.000000E-009
##NPOINTS=6950
##DELTAX=0.482117
##ZPD=6100
##XYDATA=(X++(Y..Y))
649.893 80930448 80702280 80489544 80344640 80297720 80355968 80512480 
653.268 80759704 81100984 81551032 82123104 82818352 83616136 84479144 
656.643 85370400 86270080 87187024 88154360 89213776 90391600 91690664 
660.018 93092448 94571424 96114984 97734176 99453856 101297432 103261688 
663.393 105310064 107376208 109392424 111308864 113094352 114737224 
666.285 116219128 117493896 118483360 119101528 119309376 119141984 
669.178 118685496 118018872 117180592 116169640 114968976 113572064 
672.071 112002400 110317016 108589608 106895264 105283840 103772328 
674.963 102357096 101026864 99779432 98624392 97576144 96642664 95814000 
678.338 95063944 94355904 93654448 92938264 92201640 91451456 90696976 
681.713 89943512 89189192 88428640 87659432 86888152 86128448 85399000 
685.088 84713816 84076880 83481880 82916920 82370400 81836288 81315584 
688.463 80812704 80330208 79865584 79409960 78951720 78482952 78001904 
691.838 77513960 77028440 76553688 76094264 75650704 75222840 74814376 
695.212 74434888 74100096 73827568 73631120 73518912 73491512 73545872 
698.587 73678232 73887464 74175600 74544000 74989504 75501216 76059640 
701.962 76640960 77222624 77788336 78332216 78856904 79369584 79875456 
705.337 80374744 80862592 81332040 81777888 82200928 82606264 83002872 
708.712 83398272 83797216 84203968 84626880 85082768 85602088 86224336 
712.086 86988568 87923944 89033024 90282392 91598024 92880120 94011776 
715.461 94881656 95413608 95574784 95389424 94931584 94321776 93706568 
718.836 93227288 93013912 93158056 93699288 94623992 95861016 97292960 
722.211 98753648 100059448 101032760 101517472 101423584 100742048 99555648 
725.586 98018728 96332336 94704136 93289960 92184392 91409416 90930048 
728.961 90679168 90585280 90596304 90679168 90819312 91009144 91237560 
732.335 91488144 91742440 91986024 92214304 92432456 92650432 92875528 
735.710 93108216 93341272 93566064 93777584 93978624 94178392 94387080 
739.085 94609608 94842528 95075000 95294960 95496544 95683592 95867792 
742.460 96062856 96277656 96511760 96757000 97002264 97240192 97471256 
745.835 97702016 97940216 98188792 98443344 98693792 98930832 99151136 
749.209 99359840 99568024 99785776 100015480 100249640 100474288 100677328 
752.584 100854384 101013104 101168040 101334368 101518928 101716888 
755.477 101914472 102097944 102260896 102408392 102554472 102713112 
758.370 102892416 103089656 103294168 103494832 103688224 103880736 
761.262 104086424 104317488 104578768 104863792 105160736 105459272 
764.155 105760392 106078208 106437408 106864240 107377016 107983992 
767.048 108683640 109469544 110334400 111271184 112273328 113336880 
769.940 114470672 115712192 117149696 118915400 121169072 124048080 
772.833 127586472 131648216 135871136 139728256 142567376 143776528 
775.726 142987376 140153152 135598896 129887848 123719880 117727688 
778.619 112339280 107780192 104055552 101029288 98493552 96253752 94170208 
781.993 92162848 90209544 88321264 86523840 84844920 83311848 81952640 
785.368 80792744 79854272 79152008 78689912 78465576 78474664 78718424 
788.743 79207640 79962240 81004472 82356464 84034904 86053144 88427704 
792.118 91181680 94344872 97946144 101996520 106470728 111284848 116295424 
795.493 121292856 125999392 130114152 133313032 135282896 135785072 
798.385 134673632 131942720 127732072 122322904 116094568 109443584 
801.278 102773640 96422472 90624992 85530504 81184184 77552312 74546400 
804.653 72057184 69981640 68238240 66782916 65603392 64708136 64108184 
808.028 63799568 63748108 63889800 64129120 64353204 64459004 64358392 
811.402 63995948 63353272 62441752 61295812 59961120 58492388 56945868 
814.777 55374912 53832460 52363452 51002380 49772768 48684936 47738336 
818.152 46926076 46239456 45672016 45220868 44886684 44671024 44574928 
821.527 44597620 44738636 45000048 45388424 45916120 46599140 47451880 
824.902 48482644 49686500 51041248 52500472 53993804 55431000 56696652 
828.277 57672428 58250772 58348464 57934164 57033668 55733128 54156596 
831.651 52452388 50769920 49226712 47908092 46856536 46073556 45527712 
835.026 45163400 44915160 44709624 44478448 44170220 43751920 43216856 
838.401 42583832 41892316 41190132 40522916 39926960 39421508 39010336 
841.776 38686252 38437412 38251964 38120448 38036172 37993352 37985724 
845.151 38007204 38053604 38123672 38219648 38345980 38506200 38699728 
848.525 38921972 39164884 39420892 39685728 39960672 40251716 40567440 
851.900 40915792 41301844 41728072 42195760 42706464 43264952 43877124 
855.275 44549928 45289852 46101596 46989872 47961368 49025396 50196388 
858.650 51491732 52929904 54529476 56308104 58280972 60461856 62857964 
862.025 65464676 68253640 71166728 74111256 76953192 79541224 81717456 
865.400 83334040 84286672 84521728 84048896 82939144 81322456 79374832 
868.774 77281840 75237976 73417384 71950336 70930800 70404328 70371016 
872.149 70790528 71587840 72663136 73886872 75116944 76209120 77017840 
875.524 77427592 77362056 76793488 75747536 74294976 72542352 70604224 
878.899 68598272 66631928 64787900 63131696 61708592 60544584 59652160 
882.274 59029768 58664580 58532084 58598360 58824880 59166820 59581156 
885.648 60030360 60484328 60926876 61359268 61800764 62285692 62857808 
889.023 63562764 64434364 65490684 66728620 68127872 69655552 71274792 
892.398 72954168 74668720 76400768 78137808 79866256 81568304 83218608 
895.773 84778896 86196776 87405616 88319472 88845640 88896832 88401136 
899.148 87325912 85685472 83546688 81015808 78228928 75337792 72479000 
902.523 69773744 67316808 65167644 63360676 61905904 60795256 60007988 
905.897 59515868 59289972 59301332 59527384 59953852 60572768 61382088 
909.272 62381960 63572504 64952104 66516788 68258952 70166040 72215864 
912.647 74371416 76582544 78784328 80904304 82880184 84667184 86251048 
916.022 87651000 88919568 90134512 91381528 92752024 94325888 96158112 
919.397 98274128 100657024 103245840 105928824 108562496 110993096 113075608 
922.771 114718848 115904360 116703496 117264792 117803480 118576904 
925.664 119826064 121766264 124547536 128226296 132750048 137935520 
928.557 143485728 148957024 153804288 157464800 159368608 159075152 
931.450 156355616 151227552 143980272 135114256 125296024 115202192 
934.342 105441152 96517008 88745768 82293184 77198880 73410168 70827384 
937.717 69334064 68824080 69194352 70334352 72117352 74364576 76843160 
941.092 79292416 81419160 82959432 83726296 83625056 82681376 81022840 
944.467 78862312 76439176 73979112 71674552 69647264 67956968 66612424 
947.841 65587744 64839952 64321884 63993224 63818448 63766220 63810044 
951.216 63923656 64083612 64272092 64476296 64690216 64913280 65148048 
954.591 65397688 65664708 65950788 66256972 66585036 66937468 67316616 
957.966 67723736 68158104 68616504 69094616 69587760 70093536 70611992 
961.341 71145304 71696080 72266496 72856624 73465064 74089360 74728376 
964.716 75382128 76052304 76740824 77448616 78174976 78917864 79675144 
968.090 80446000 81231720 82035320 82859936 83707296 84577000 85466800 
971.465 86374848 87301200 88249672 89226672 90239848 91295248 92395640 
974.840 93540672 94727704 95954856 97222328 98532760 99890768 101301320 
978.215 102768728 104296920 105891616 107561448 109319376 111182232 
981.108 113166664 115287136 117552056 119963008 122514360 125192360 
984.000 127975208 130827832 133695080 136504048 139156416 141536160 
986.893 143531088 145035760 145975344 146317504 146074112 145301808 
989.786 144090960 142566496 140867696 139134448 137506656 136097456 
992.678 134989856 134236000 133853648 133835168 134156976 134790880 
995.571 135709664 136890512 138316144 139970544 141836320 143896080 
998.464 146130016 148518832 151043792 153680928 156397696 159149520 
1001.356 161872576 164492016 166931680 169119120 171003136 172559264 
1004.249 173791392 174730256 175430608 175969824 176435392 176925104 
1007.142 177538848 178359632 179454064 180861632 182594352 184642336 
1010.035 186982160 189588256 192435888 195504272 198775792 202229056 
1012.927 205839280 209580144 213424832 217350512 221336048 225350736 
1015.820 229345552 233240368 236914112 240224592 243017824 245153392 
1018.713 246540208 247146032 247012528 246244288 245010592 243527824 
1021.605 242021472 240729280 239861648 239571056 239953808 241032416 
1024.498 242766048 245060176 247791312 250828528 254031744 257270336 
1027.391 260416752 263336000 265901632 267998192 269533760 270459680 
1030.284 270771200 270505376 269724576 268508256 266941104 265100448 
1033.177 263062688 260893936 258638672 256314016 253896240 251322864 
1036.070 248492704 245289808 241609024 237364800 232514400 227057024 
1038.963 221029344 214498816 207556896 200320928 192917440 185482256 
1041.856 178151392 171035312 164222848 157772640 151712480 146052928 
1044.750 140794144 135933072 131470040 127407192 123747024 120490224 
1047.643 117633632 115169792 113087776 111373904 110012176 108982656 
1050.536 108262080 107823680 107636544 107670936 107898552 108292856 
1053.429 108830608 109486088 110225576 111007600 111776384 112465608 
1056.322 113008768 113339160 113401368 113158368 112591872 111707640 
1059.215 110534920 109130744 107574608 105960968 104399688 102996064 
1062.108 101842376 101016952 100571056 100532464 100906544 101678032 
1065.001 102813144 104258720 105949160 107801928 109722904 111621000 
1067.894 113406440 115003440 116358232 117433496 118208184 118673440 
1070.787 118827096 118673176 118221104 117488600 116500456 115288168 
1073.680 113892592 112360144 110745152 109113960 107536872 106089168 
1076.573 104846032 103867688 103198776 102861632 102854672 103155408 
1079.466 103722848 104505384 105437144 106441256 107436840 108333120 
1082.359 109045304 109508560 109687112 109590256 109273184 108839592 
1085.252 108421872 108166176 108224792 108724968 109764496 111400752 
1088.146 113638648 116426328 119645912 123131392 126660080 129976016 
1091.039 132838088 135023824 136372912 136809072 136337264 135042048 
1093.932 133061560 130579992 127790408 124868584 121972128 119211864 
1096.825 116653128 114319920 112198456 110247144 108403632 106599208 
1099.718 104762528 102825912 100737744 98464008 95995856 93351992 90579728 
1103.093 87749688 84940880 82239288 79723944 77456176 75485168 73843000 
1106.468 72546976 71605384 71018160 70779536 70878288 71298336 72018072 
1109.844 73008384 74235376 75657096 77221440 78870248 80533016 82128184 
1113.219 83574888 84790664 85704072 86266360 86450416 86255256 85701888 
1116.594 84830096 83691784 82342328 80842432 79247760 77605472 75955760 
1119.969 74327056 72738896 71205688 69737952 68345304 67036904 65819444 
1123.344 64695252 63660816 62707148 61821964 60995352 60224472 59518032 
1126.720 58897432 58391408 58034888 57859508 57885780 58122000 58559992 
1130.095 59178172 59940732 60803140 61714896 62618152 63457260 64182588 
1133.470 64755060 65157056 65394148 65496928 65513188 65503360 65530292 
1136.845 65644240 65880596 66252032 66747440 67332672 67954256 68550120 
1140.221 69049168 69384088 69500696 69356064 68926552 68205248 67199320 
1143.596 65927952 64418912 62709712 60842212 58862860 56821716 54764220 
1146.971 52732024 50759980 48872076 47084400 45405380 43837976 42382648 
1150.346 41038792 39806780 38687484 37682424 36792804 36019172 35361392 
1153.722 34818640 34389704 34072888 33865900 33765680 33768940 33872452 
1157.097 34074572 34376076 34779760 35290296 35911804 36647236 37496792 
1160.472 38457900 39525108 40689868 41940956 43261220 44626736 46007576 
1163.847 47365624 48658584 49845868 50887440 51750332 52409580 52846932 
1167.223 53052836 53026368 52775312 52315384 51669488 50866316 49934844 
1170.598 48904672 47803580 46655284 45482564 44307208 43149184 42029576 
1173.973 40968040 39981016 39082292 38280984 37581900 36987300 36497724 
1177.348 36113284 35834464 35661776 35595380 35635304 35781608 36035412 
1180.724 36399924 36880084 37481800 38211040 39071636 40065528 41193268 
1184.099 42455456 43853260 45389344 47065824 48882016 50831452 52899508 
1187.474 55060168 57275480 59498008 61665208 63706972 65550448 67121624 
1190.849 68361632 69233016 69726040 69861336 69685584 69266632 68675416 
1194.225 67982080 67245736 66504776 65780276 65075792 64382560 63684792 
1197.600 62965200 62209896 61408576 60555404 59647064 58680544 57651876 
1200.975 56556420 55390348 54153784 52853740 51506392 50135580 48770860 
1204.350 47445188 46187524 45021364 43962028 43015304 42179800 41448868 
1207.726 40813500 40263856 39790404 39384720 39038680 38745148 38498848 
1211.101 38297088 38140636 38033748 37983192 37996680 38081272 38242660 
1214.476 38484764 38810292 39220984 39717820 40300320 40965560 41708408 
1217.851 42521340 43396020 44325300 45303680 46327732 47395924 48507100 
1221.227 49660496 50856816 52099296 53395764 54758428 56204576 57752612 
1224.602 59419280 61217252 63151704 65219036 67404912 69684536 72020152 
1227.977 74358048 76634560 78772960 80688512 82302112 83539744 84342400 
1231.352 84675600 84531512 83936328 82948320 81664064 80207880 78715048 
1234.728 77334968 76206952 75449688 75167376 75437352 76314416 77837488 
1238.103 80028048 82892416 86417544 90569560 95284360 100459968 105967352 
1241.478 111638440 117272128 122659496 127571136 131782112 135103088 
1244.371 137381920 138534976 138554544 137508000 135526288 132779240 
1247.264 129476232 125832288 122052824 118333088 114820736 111606992 
1250.157 108716792 106102784 103655032 101216856 98630632 95757160 92509768 
1253.532 88875040 84910104 80734248 76493032 72348408 68444320 64882344 
1256.908 61724404 58984072 56635912 54624156 52876384 51316848 49868536 
1260.283 48467420 47065308 45629428 44146192 42616940 41054560 39477968 
1263.658 37908920 36369300 34877052 33448100 32096074 30831148 29661134 
1267.033 28590404 27618620 26741180 25950552 25238612 24597962 24023872 
1270.409 23513916 23066574 22680086 22350900 22074326 21845518 21660538 
1273.784 21516302 21410854 21341522 21303970 21292034 21298752 21317056 
1277.159 21342462 21372254 21405320 21441278 21478772 21515886 21550842 
1280.534 21582180 21609134 21630692 21643056 21638528 21605582 21530404 
1283.910 21401074 21212770 20970474 20689006 20391224 20104302 19852320 
1287.285 19655256 19526934 19475020 19504616 19619238 19821626 20113324 
1290.660 20493126 20956458 21494056 22092280 22734060 23396268 24051888 
1294.035 24670726 25219510 25668618 25996916 26194944 26268786 26237424 
1297.411 26130612 25980242 25817158 25667774 25550490 25478736 25460958 
1300.786 25500592 25596106 25738892 25914854 26102884 26279874 26424292 
1304.161 26518108 26549244 26511664 26403342 26225702 25982986 25683628 
1307.536 25340322 24970404 24595332 24235716 23908992 23627468 23396758 
1310.912 23218388 23092432 23019650 23002778 23045192 23148660 23312178 
1314.287 23531652 23801702 24117836 24478020 24883694 25337196 25840120 
1317.662 26391264 26986684 27620880 28288854 28987398 29714246 30466228 
1321.037 31236002 32010746 32771364 33493732 34154388 34732272 35213536 
1324.413 35595308 35887724 36115660 36315264 36534052 36822376 37222208 
1327.788 37762112 38445232 39248512 40122216 41002592 41825688 42535664 
1331.163 43100372 43513608 43793592 43975668 44105960 44234744 44406036 
1334.538 44658868 45022648 45514540 46139952 46891160 47750840 48693532 
1337.914 49691180 50719052 51754736 52780660 53782876 54748924 55667548 
1341.289 56528868 57322288 58036520 58657260 59163328 59528484 59722108 
1344.664 59711348 59470536 58983200 58246188 57268748 56072188 54686496 
1348.039 53145392 51488412 49758652 47999892 46262892 44600664 43064000 
1351.415 41703416 40559580 39659692 39018960 38639276 38513076 38623848 
1354.790 38948172 39453040 40091836 40809784 41543472 42226944 42805216 
1358.165 43234976 43490168 43562944 43461968 43210632 42843176 42409936 
1361.540 41973620 41602688 41370756 41337960 41538988 41980664 42641832 
1364.916 43484380 44460024 45521532 46621972 47709232 48729560 49623048 
1368.291 50326624 50787128 50963964 50836852 50407624 49698908 48751952 
1371.666 47619452 46370792 45087668 43854948 42762912 41887280 41275320 
1375.041 40940764 40863296 41003508 41316092 41767468 42342096 43043180 
1378.417 43888888 44907476 46133652 47601668 49342772 51374908 53688120 
1381.792 56225316 58864872 61434760 63709728 65450384 66452108 66551240 
1385.167 65666632 63814724 61135048 57883208 54383820 50989488 47975356 
1388.542 45495368 43586244 42192324 41212904 40534116 40058368 39705364 
1391.917 39411636 39132436 38834276 38496824 38114988 37697784 37264624 
1395.293 36836620 36428532 36044228 35678504 35323216 34974328 34636020 
1398.668 34322680 34053428 33845124 33706952 33636736 33624888 33658400 
1402.043 33726896 33825992 33958396 34133456 34365856 34671296 35061644 
1405.418 35541404 36106700 36746284 37445068 38188100 38964372 39766508 
1408.794 40590792 41435088 42296952 43173228 44060008 44953188 45848100 
1412.169 46737448 47607800 48439748 49208456 49887640 50458868 50915936 
1415.544 51267920 51535644 51748204 51938500 52138108 52380724 52701196 
1418.919 53128804 53684108 54368008 55160116 56025028 56922828 57820556 
1422.295 58696020 59545964 60385964 61246784 62162256 63157028 64238056 
1425.670 65393300 66599788 67832608 69074648 70314792 71544552 72752840 
1429.045 73919472 75015848 76012592 76888008 77638592 78280432 78848168 
1432.420 79384536 79928424 80514112 81169168 81923592 82821480 83926560 
1435.796 85317088 87068728 89213608 91725088 94524920 97508824 100567136 
1439.171 103583280 106439192 108987856 111061904 112507888 113192720 
1442.064 113039288 112036752 110232232 107717632 104604400 101022304 
1444.957 97096016 92934416 88643592 84325344 80092392 76088504 72466312 
1448.332 69362944 66866540 64991964 63693656 62893384 62518196 62515632 
1451.708 62856124 63521952 64486944 65705180 67120848 68667840 70288112 
1455.083 71944592 73614400 75291128 76972056 78656544 80333040 81981376 
1458.458 83587256 85139448 86634056 88072776 89462624 90810696 92117128 
1461.833 93373480 94551688 95601160 96462112 97075592 97412992 97494104 
1465.208 97389064 97191208 96975752 96785984 96624656 96469920 96287576 
1468.584 96041776 95693752 95188104 94446000 93362544 91820000 89736672 
1471.959 87118048 84094008 80882432 77711896 74739992 72022416 69547080 
1475.334 67285624 65232860 63423940 61919392 60771016 60004716 59608068 
1478.709 59545356 59777924 60285148 61071924 62164360 63593528 65377468 
1482.085 67512384 69974792 72734112 75764856 79059144 82621696 86454376 
1485.460 90542752 94827240 99182688 103428904 107316904 110553048 112847272 
1488.835 113930192 113622848 111893488 108886120 104900872 100303112 
1491.728 95449608 90593728 85864384 81304880 76895048 72600272 68415928 
1495.104 64381176 60585568 57150664 54185388 51750632 49843860 48420040 
1498.479 47413112 46762316 46424916 46370500 46575012 47014904 47661228 
1501.854 48480016 49436140 50484400 51571836 52633008 53570108 54253448 
1505.229 54523388 54212080 53217152 51568364 49437216 47049024 44580324 
1508.604 42115944 39671460 37238776 34821404 32442190 30150518 28006706 
1511.980 26057284 24331584 22831518 21538586 20425536 19464832 18633958 
1515.355 17914874 17294790 16765773 16324224 15970739 15705889 15525052 
1518.730 15415625 15355480 15316590 15276125 15226397 15185288 15188959 
1522.105 15275987 15463313 15739489 16073704 16430475 16785712 17131178 
1525.481 17478332 17849930 18271606 18757692 19306914 19906498 20540610 
1528.856 21198750 21877434 22580392 23313368 24080186 24882816 25721876 
1532.231 26599192 27519270 28487894 29505210 30559144 31626836 32677542 
1535.606 33682460 34612692 35443100 36154948 36731748 37165356 37456916 
1538.982 37620780 37677544 37647336 37548268 37392808 37191736 36953568 
1542.357 36680480 36365408 35992500 35546044 35020516 34429516 33804936 
1545.732 33186826 32605246 32066390 31553466 31034488 30479272 29873440 
1549.107 29229960 28584388 27983486 27460496 27022686 26652390 26320428 
1552.483 26002368 25689604 25393576 25137452 24941978 24810224 24722212 
1555.858 24637972 24509044 24283086 23913824 23376616 22691886 21943160 
1559.233 21251844 20719866 20377924 20195410 20114748 20081466 20054850 
1562.608 20006030 19919820 19795616 19647040 19498202 19374988 19295482 
1565.984 19260704 19256792 19260462 19250904 19216926 19163664 19111310 
1569.359 19088838 19121106 19216858 19367954 19554834 19757366 19957494 
1572.734 20141228 20298202 20416992 20488194 20507750 20485344 20447762 
1576.109 20434530 20484580 20615826 20821286 21076648 21355548 21638492 
1579.485 21917372 22196252 22486934 22802952 23153764 23541584 23959828 
1582.860 24396174 24833660 25252834 25632836 25949428 26178120 26297898 
1586.235 26295010 26169146 25936342 25631710 25302882 25005326 24796472 
1589.610 24722424 24816646 25096658 25561172 26189064 26934964 27733852 
1592.986 28497094 29123542 29520460 29608562 29343632 28724972 27795876 
1596.361 26634070 25330032 23978246 22655194 21414580 20293304 19311172 
1599.736 18476272 17788274 17239660 16818122 16509250 16302001 16190177 
1603.111 16172912 16252019 16427653 16694251 17039746 17444424 17882626 
1606.487 18326248 18740982 19089738 19335040 19439780 19374778 19124778 
1609.862 18691896 18098370 17384378 16604839 15813604 15055227 14357451 
1613.237 13726929 13155069 12625508 12122690 11638457 11177779 10757564 
1616.612 10401824 10130649 9951202 9856524 9828934 9847067 9888047 9930557 
1620.470 9957237 9955677 9922861 9866896 9807176 9766814 9764578 9806735 
1624.327 9885776 9985987 10091037 10191091 10284146 10373691 10465631 
1627.702 10564583 10671539 10784873 10902314 11023048 11147317 11275262 
1631.078 11403753 11525614 11628791 11699041 11724095 11695841 11615450 
1634.453 11495708 11362631 11247616 11178017 11167035 11210214 11291890 
1637.828 11392733 11496082 11587681 11657040 11698258 11710206 11698190 
1641.203 11670859 11638015 11605479 11572503 11530208 11464884 11361610 
1644.579 11209534 11007449 10768263 10519229 10295139 10126851 10032405 
1647.954 10011111 10048308 10121254 10206831 10280108 10313291 10277190 
1651.329 10140823 9887268 9534238 9156859 8866067 8740589 8785961 8947507 
1655.187 9159058 9367565 9543484 9676513 9767458 9823444 9852965 9861473 
1659.044 9849813 9814836 9751836 9658320 9535830 9391942 9238015 9088541 
1662.901 8957147 8852337 8777644 8729635 8701374 8681531 8656923 8614099 
1666.759 8539817 8424467 8266019 8072961 7863659 7662551 7493492 7370061 
1670.616 7293230 7252629 7233122 7218163 7192661 7145198 7068608 6961897 
1674.474 6833197 6701003 6589134 6516173 6487753 6494580 6518461 6538339 
1678.331 6537700 6509312 6455567 6386059 6311855 6238807 6161974 6066606 
1682.188 5931655 5741579 5497625 5231204 4995546 4843504 4795795 4833821 
1686.046 4917424 5006473 5075392 5111599 5114884 5092120 5053635 5009590 
1689.903 4967158 4932035 4907471 4894503 4891152 4891118 4882775 4849971 
1693.761 4776498 4651861 4480120 4284655 4103995 3973832 3906692 3887636 
1697.618 3882922 3857481 3782572 3649298 3474980 3305541 3194276 3170310 
1701.476 3225586 3325707 3433833 3520808 3571752 3583578 3562231 3520942 
1705.333 3475782 3442183 3429158 3439010 3468434 3510821 3559224 3606931 
1709.190 3649632 3684952 3712822 3734678 3752425 3766997 3778227 3784444 
1713.048 3783742 3774684 3756836 3730534 3695511 3650935 3595973 3531631 
1716.905 3464860 3408452 3379567 3391789 3448628 3542053 3655647 3771743 
1720.763 3874431 3953569 4006503 4036601 4051785 4060213 4068206 4077838 
1724.620 4087739 4094663 4095933 4090615 4079076 4061350 4037002 4004730 
1728.478 3963634 3915151 3862797 3811150 3762184 3712621 3653107 3569079 
1732.335 3446090 3278531 3078467 2879829 2725392 2647511 2649811 2710221 
1736.192 2794317 2871424 2920857 2932099 2906147 2852546 2787814 2728626 
1740.050 2687150 2668580 2671180 2690217 2720457 2758136 2800019 2843508 
1743.907 2885900 2925094 2960087 2991047 3019140 3045499 3070592 3093684 
1747.765 3113373 3128992 3140773 3151119 3163869 3183461 3213135 3254895 
1751.622 3308245 3370417 3437574 3504106 3563968 3609972 3634763 3633059 
1755.479 3603958 3552443 3488909 3426954 3376995 3341901 3316826 3290550 
1759.337 3251991 3193308 3113574 3020207 2927095 2849444 2798152 2776776 
1763.194 2780811 2801720 2829434 2856248 2875660 2883398 2876761 2854914 
1767.052 2819795 2776643 2732627 2694251 2664246 2640210 2615675 2583476 
1770.909 2539613 2487624 2438773 2409619 2413117 2453101 2522150 2606642 
1774.767 2692984 2771641 2839405 2897807 2950413 2999488 3043998 3079835 
1778.624 3102594 3110069 3104997 3093984 3086242 3088612 3102461 3123552 
1782.481 3144511 3158996 3164102 3162133 3158662 3161032 3173515 3196212 
1786.339 3225185 3255229 3281202 3299598 3308512 3305741 3288247 3252725 
1790.196 3196412 3120448 3031018 2940338 2863152 2811224 2788614 2790948 
1794.054 2807990 2828500 2844141 2850612 2847443 2835503 2815793 2788514 
1797.911 2753334 2710522 2662779 2614508 2571943 2540680 2523683 2520117 
1801.769 2526049 2537214 2549979 2562844 2575576 2588575 2601542 2613375 
1805.626 2622642 2629209 2633543 2637710 2643310 2650878 2658445 2663046 
1809.483 2661779 2653545 2640943 2628809 2623142 2628009 2644077 2668547 
1813.341 2697018 2725459 2752267 2778577 2807556 2842674 2885066 2934067 
1817.198 2986210 3037925 3085808 3128057 3163835 3192507 3213302 3224584 
1821.056 3224718 3212901 3189469 3156159 3115342 3070525 3025646 2984909 
1824.913 2952615 2932265 2925060 2929263 2939438 2947978 2946743 2930464 
1828.771 2899342 2861184 2829533 2818228 2837104 2886734 2958786 3039660 
1832.628 3116477 3180323 3228457 3263442 3291218 3317961 3348212 3383540 
1836.485 3424315 3471106 3525585 3590627 3668545 3758775 3857281 3957481 
1840.343 4050915 4130152 4191572 4234732 4263641 4285759 4311928 4354028 
1844.200 4422476 4524380 4660435 4825412 5008987 5197971 5379322 5541116 
1848.058 5676046 5781401 5859175 5913652 5949592 5969512 5973477 5959670 
1851.915 5927087 5876202 5810447 5734193 5651406 5563467 5469237 5366171 
1855.772 5252365 5128999 4999702 4870511 4746516 4630293 4521032 4416183 
1859.630 4312999 4211378 4113795 4024093 3945678 3879345 3822749 3771609 
1863.487 3722446 3673824 3626778 3583344 3544559 3508783 3472008 3429759 
1867.345 3380168 3326609 3278231 3246082 3238905 3259068 3300666 3353354 
1871.202 3406081 3451401 3486671 3513326 3534270 3551574 3565304 3573055 
1875.060 3572587 3562799 3544793 3521710 3496190 3469303 3440246 3406783 
1878.917 3367145 3321567 3272689 3224317 3179222 3138036 3097855 3054842 
1882.774 3005294 2949145 2889235 2830934 2779277 2737129 2703687 2675247 
1886.632 2647677 2618142 2586675 2555578 2528548 2508452 2496322 2492756 
1890.489 2496855 2508152 2526782 2552078 2581542 2611642 2637943 2657478 
1894.347 2670514 2681615 2697419 2724125 2764638 2816727 2874126 2929363 
1898.204 2977435 3017438 3052606 3088044 3127090 3169943 3212568 3249721 
1902.062 3277029 3294089 3304473 3313587 3326308 3344205 3365943 3387848 
1905.919 3406616 3421443 3433934 3446725 3461186 3475882 3486337 3487539 
1909.776 3476450 3453204 3422712 3390686 3362637 3340999 3325206 3312485 
1913.634 3300466 3287679 3273591 3258167 3239806 3214437 3178688 3130527 
1917.491 3072494 3012066 2958920 2920190 2897341 2884432 2871257 2847076 
1921.349 2805788 2747966 2681615 2617875 2566010 2530681 2509585 2497255 
1925.206 2488391 2481392 2478493 2483992 2500821 2527482 2558444 2585942 
1929.063 2603908 2609875 2605809 2596109 2584676 2572843 2558777 2539513 
1932.921 2514018 2484258 2454768 2430443 2413317 2400990 2388196 2369139 
1936.778 2341488 2308542 2277232 2254882 2245257 2245190 2247022 2241893 
1940.636 2224275 2195901 2165597 2145318 2143686 2162800 2196001 2232734 
1944.493 2262976 2282461 2292820 2299882 2309875 2324699 2341588 2355180 
1948.351 2360310 2355080 2342621 2327730 2315138 2306677 2300282 2293053 
1952.208 2282961 2270504 2259279 2252884 2252484 2254150 2252418 2240061 
1956.065 2214384 2178284 2138991 2104729 2081090 2066974 2056055 2040674 
1959.923 2015741 1981955 1946906 1920015 1908034 1912427 1928701 1950068 
1963.780 1970871 1988479 2004257 2020501 2038078 2053891 2063445 2063445 
1967.638 2054124 2041240 2032851 2033484 2042572 2052160 2051660 2032086 
1971.495 1992440 1939751 1888166 1851295 1836088 1841945 1861078 1885870 
1975.353 1913492 1949403 2003957 2086384 2197499 2326964 2455634 2564577 
1979.210 2640110 2679215 2687283 2674081 2647711 2612875 2569577 2518184 
1983.067 2461632 2407153 2364008 2339989 2336624 2348984 2366607 2378934 
1986.925 2380133 2370705 2357046 2346485 2344086 2349916 2358711 2365741 
1990.782 2368206 2367573 2369605 2379567 2399157 2425912 2453701 2477494 
1994.640 2495222 2509352 2524949 2546012 2572410 2598842 2617409 2622242 
1998.497 2612275 2592975 2573243 2561677 2561611 2570177 2579109 2579142 
2002.354 2566243 2540846 2508819 2478027 2452335 2430810 2409119 2381632 
2006.212 2346218 2305911 2268472 2240261 2225274 2221444 2222709 2223376 
2010.069 2220478 2215583 2213951 2220278 2235066 2255249 2274833 2288157 
2013.927 2294652 2298683 2305078 2319635 2343354 2372637 2402156 2428444 
2017.784 2452302 2479093 2515484 2564244 2622942 2683149 2734495 2768706 
2021.642 2784779 2787347 2784679 2784212 2787747 2791382 2789181 2775742 
2025.499 2750967 2719324 2687950 2662546 2644277 2629642 2612975 2592309 
2029.356 2569543 2551645 2546646 2559311 2588075 2626209 2665813 2701886 
2033.214 2735862 2774275 2823797 2887901 2962923 3038659 3104697 3154056 
2037.071 3187767 3213002 3240574 3277029 3323303 3374124 3420375 3455575 
2040.929 3478688 3494153 3509952 3532500 3563333 3598612 3632291 3657785 
2044.786 3672488 3677467 3676631 3673457 3669881 3665203 3658286 3649933 
2048.644 3640811 3633159 3626878 3618191 3600216 3567476 3517869 3455542 
2052.501 3391889 3342302 3319130 3327944 3364106 3414797 3464226 3498862 
2056.358 3512190 3506545 3488975 3466898 3445923 3427555 3409755 3392089 
2060.216 3376328 3366410 3368380 3386045 3418972 3462522 3510319 3556017 
2064.073 3596040 3630520 3659723 3684517 3702830 3711786 3708511 3693373 
2067.931 3670082 3645789 3627413 3619160 3620730 3628214 3635799 3639140 
2071.788 3637670 3633326 3629217 3626878 3624405 3616988 3600650 3573389 
2075.646 3537777 3500399 3468935 3448929 3441415 3442483 3446157 3446625 
2079.503 3440914 3429893 3416434 3404211 3394126 3385678 3376862 3365876 
2083.360 3353354 3341267 3332318 3328011 3327443 3327677 3325073 3317460 
2087.218 3304706 3288714 3272289 3256398 3239773 3219978 3193508 3159263 
2091.075 3119447 3078634 3043163 3018272 3006128 3005527 3013968 3026814 
2094.933 3040494 3053107 3062717 3067689 3067288 3061049 3050604 3039626 
2098.790 3033754 3037257 3052673 3078100 3107934 3136101 3157427 3171545 
2102.647 3182059 3196045 3218743 3253159 3296827 3343971 3388482 3425985 
2106.505 3455809 3480759 3504407 3528858 3553512 3575828 3593000 3604326 
2110.362 3612210 3620997 3635799 3659322 3690699 3726423 3762017 3794237 
2114.220 3822415 3848088 3873093 3897966 3921169 3939492 3949924 3951931 
2118.077 3947717 3942301 3940830 3946881 3960624 3979717 4000316 4018943 
2121.935 4034427 4046500 4055631 4061450 4062119 4055062 4038641 4013726 
2125.792 3983229 3952164 3924246 3900608 3878977 3854105 3821011 3776422 
2129.649 3720575 3656482 3588389 3520341 3453906 3389985 3330148 3276195 
2133.507 3232462 3202687 3188234 3185764 3188234 3186265 3172814 3146814 
2137.364 3112839 3079936 3057011 3048035 3051272 3060381 3067088 3066221 
2141.222 3057812 3046033 3036824 3033587 3034955 3035789 3029450 3012267 
2145.079 2983340 2947844 2911183 2877795 2848811 2821696 2793283 2762404 
2148.937 2731060 2702153 2679048 2661079 2642843 2616875 2575976 2515918 
2152.794 2438940 2349450 2252418 2150113 2042372 1928834 1813961 1712791 
2156.651 1646798 1645301 1729657 1906236 2159437 2454867 2751667 3012434 
2160.509 3216707 3360032 3451067 3504541 3534337 3551741 3563901 3576295 
2164.366 3593801 3619628 3653976 3692103 3726423 3746375 3744704 3720542 
2168.224 3678703 3629651 3583912 3549102 3526754 3512891 3501000 3485401 
2172.081 3464460 3440580 3418004 3401807 3395128 3397966 3409054 3426520 
2175.938 3448027 3471574 3493318 3508215 3510453 3495823 3463658 3418939 
2179.796 3371586 3332318 3311751 3315190 3341567 3385143 3438609 3495055 
2183.653 3550271 3602254 3649198 3689095 3720141 3739424 3746810 3744403 
2187.511 3736550 3728061 3722480 3721177 3723215 3727860 3735413 3748046 
2191.368 3769169 3801223 3843174 3890845 3937151 3975471 4003493 4022889 
2195.226 4038708 4057236 4081652 4110082 4136943 4154973 4158887 4148316 
2199.083 4128312 4105767 4088809 4081919 4085699 4097840 4115200 4135036 
2202.940 4156880 4180264 4204352 4226702 4243966 4253736 4256179 4255175 
2206.798 4256380 4265849 4286328 4315676 4347402 4373942 4388602 4389138 
2210.655 4377724 4360053 4342248 4329029 4322235 4321833 4327121 4337763 
2214.513 4354966 4379197 4410325 4446142 4483167 4518018 4548353 4574437 
2218.370 4597944 4619242 4637895 4650186 4651593 4637828 4608526 4566937 
2222.228 4519793 4475299 4438711 4412501 4395062 4382845 4372068 4361492 
2226.085 4351451 4343352 4338064 4334350 4328861 4318454 4301387 4278899 
2229.942 4255008 4233996 4219876 4214322 4215895 4222051 4230482 4240286 
2233.800 4251461 4264979 4280740 4297304 4312597 4325180 4334684 4343854 
2237.657 4356103 4374678 4400417 4430409 4459499 4482598 4496156 4499504 
2241.515 4496458 4492306 4491201 4496725 4508912 4526288 4547181 4570117 
2245.372 4594629 4620615 4647306 4672492 4693559 4708196 4715197 4716302 
2249.229 4714493 4713388 4716235 4724174 4736702 4752245 4769530 4787922 
2253.087 4807454 4828193 4848966 4867729 4881870 4888773 4887164 4877581 
2256.944 4861933 4842667 4822296 4801825 4782093 4763902 4747856 4735563 
2260.802 4727657 4724107 4723638 4724107 4723973 4723001 4723303 4728830 
2264.659 4743166 4768693 4804472 4847022 4890750 4930494 4962935 4987167 
2268.517 5004260 5016092 5023668 5027355 5027288 5023601 5018238 5013579 
2272.374 5012506 5016662 5025578 5036975 5048071 5056720 5062619 5067815 
2276.231 5074822 5085617 5101004 5119075 5137113 5152939 5165714 5176175 
2280.089 5186302 5197468 5209540 5221445 5231204 5237844 5242874 5249447 
2283.946 5261454 5281912 5311126 5346514 5383616 5417165 5443401 5461151 
2287.804 5471519 5476351 5478230 5478666 5478397 5478196 5479572 5484370 
2291.661 5495175 5513967 5540948 5574743 5612335 5650601 5687023 5720730 
2295.519 5751719 5780864 5808466 5834223 5857294 5877143 5893802 5908748 
2299.376 5924366 5942337 5964171 5989467 6016679 6043792 6068824 6090328 
2303.233 6108104 6122184 6132467 6139188 6142482 6142650 6140768 6138483 
2307.091 6137172 6138012 6140633 6144397 6147959 6151152 6154513 6160024 
2310.948 6169905 6185634 6207178 6232555 6258438 6281599 6299652 6312393 
2314.806 6320933 6327791 6335591 6345812 6359362 6376140 6395642 6417365 
2318.663 6441073 6466262 6492730 6520007 6547926 6575677 6602556 6626846 
2322.521 6645249 6653796 6648008 6623953 6580488 6519839 6448068 6373383 
2326.378 6305031 6250975 6215211 6198070 6195851 6203077 6213833 6223412 
2330.235 6229934 6232723 6233093 6232387 6232354 6233933 6238471 6247009 
2334.093 6260085 6278036 6299887 6323992 6348670 6372542 6395340 6417634 
2337.950 6440737 6465186 6491015 6517249 6542006 6564341 6583852 6601042 
2341.808 6616921 6632263 6645855 6655713 6659044 6654031 6641112 6623986 
2345.665 6608612 6602859 6613726 6646091 6701979 6780321 6877563 6987957 
2349.522 7105285 7222139 7331239 7427323 7506640 7569382 7618341 7659111 
2353.380 7697793 7738739 7784311 7834273 7886636 7939275 7991347 8043122 
2357.237 8096017 8151788 8211381 8274800 8341740 8410887 8481530 8552693 
2361.095 8622988 8690421 8753030 8808480 8855989 8896064 8930900 8963404 
2364.952 8995878 9029098 9062388 9093143 9118994 9137909 9148872 9152155 
2368.810 9148568 9138145 9120990 9097068 9067226 9033157 8998211 8965637 
2372.667 8938882 8920009 8909930 8908476 8916120 8933741 8963100 9006499 
2376.524 9065466 9140345 9230264 9332897 9445712 9567398 9697316 9835544 
2380.382 9982393 10137127 10297718 10460981 10622947 10780185 10929529 
2383.757 11068965 11196920 11312091 11412938 11498259 11567161 11619841 
2387.132 11657584 11681988 11694786 11696727 11687673 11666502 11632024 
2390.508 11583700 11522450 11449847 11368651 11281281 11189508 11094865 
2393.883 10998273 10900852 10804642 10712155 10625732 10548016 10480430 
2397.258 10423748 10378408 10344372 10322113 10312477 10315802 10332564 
2400.633 10362289 10404370 10458164 10522997 10599011 10686175 10784873 
2404.009 10894940 11015741 11146638 11287300 11437907 11598809 11770937 
2407.384 11954305 12148244 12351271 12561827 12778456 13001032 13230144 
2410.759 13466213 13709147 13956937 14205965 14450958 14686286 14907166 
2414.134 15109600 15291397 15450884 15586559 15697198 15781751 15839651 
2417.510 15871646 15879860 15867487 15838310 15795598 15741825 15678475 
2420.885 15606171 15525293 15436876 15341715 15241702 15139243 15036772 
2424.260 14937275 14844316 14761386 14692077 14639333 14605202 14590672 
2427.635 14595847 14620382 14664008 14726970 14810031 14913408 15037116 
2431.010 15180175 15340514 15516364 15705958 15907973 16122565 16349373 
2434.386 16588246 16838754 17100054 17371790 17655120 17951892 18264592 
2437.761 18596158 18947842 19319694 19710416 20118772 20543980 20986920 
2441.136 21449842 21935144 22444678 22978462 23534624 24109956 24701204 
2444.511 25305690 25922416 26551078 27192324 27846110 28511672 29187360 
2447.887 29870634 30558718 31248178 31935562 32616890 33288092 33945140 
2451.262 34584780 35204696 35803196 36379168 36930656 37455000 37947572 
2454.637 38402952 38814852 39177104 39483408 39728568 39906804 40012700 
2458.012 40041328 39988244 39849996 39625248 39313764 38917260 38437848 
2461.388 37878876 37244012 36537728 35766136 34936768 34058584 33142518 
2464.763 32199472 31240310 30275410 29313748 28363514 27432014 26526316 
2468.138 25653292 24819662 24031260 23292916 22608176 21979196 21406400 
2471.513 20889564 20427376 20016926 19654112 19333690 19049196 18794020 
2474.889 18562336 18349888 18153746 17972198 17804222 17648010 17501582 
2478.264 17362308 17227282 17094850 16964182 16835240 16708920 16586043 
2481.639 16466849 16351610 16240083 16132399 16029043 15931003 15838929 
2485.014 15753817 15675452 15604110 15539406 15481271 15429941 15385379 
2488.390 15347722 15316007 15288891 15265108 15243350 15223274 15204812 
2491.765 15188959 15176916 15169642 15167411 15170190 15177534 15188582 
2495.140 15202479 15218470 15235114 15251277 15265554 15276982 15285219 
2498.515 15290608 15293799 15295275 15295344 15293388 15288858 15281066 
2501.891 15270050 15256528 15241702 15227152 15213872 15201999 15191293 
2505.266 15181102 15170877 15161064 15152726 15146379 15142982 15142056 
2508.641 15142433 15141713 15137904 15128469 15111453 15085483 15049224 
2512.016 15002232 14944409 14876683 14800946 14720149 14637174 14554763 
2515.392 14474526 14396667 14320979 14246297 14172073 14098581 14027121 
2518.767 13958751 13894839 13835282 13780076 13728057 13678918 13632313 
2522.142 13589030 13550332 13517243 13490753 13471168 13458489 13453021 
2525.517 13454524 13463206 13478961 13500802 13527053 13556075 13585748 
2528.893 13614602 13642195 13669001 13695262 13721936 13749260 13777374 
2532.268 13806378 13836855 13869353 13905000 13944483 13987733 14034102 
2535.643 14082358 14131269 14180632 14230753 14282866 14338581 14398756 
2539.018 14463563 14532664 14604893 14679260 14755181 14831973 14909464 
2542.394 14986729 15063116 15137596 15209652 15279247 15347208 15414972 
2545.769 15483606 15553383 15623550 15692526 15758317 15819548 15875461 
2549.144 15926430 15973764 16018523 16061807 16104547 16147049 16189661 
2552.519 16232584 16275890 16319409 16362276 16403049 16440386 16472803 
2555.895 16499544 16520884 16537061 16548833 16556233 16558986 16555957 
2559.270 16546423 16529730 16505567 16474660 16437253 16393621 16343731 
2562.645 16287139 16223881 16154582 16080856 16004978 15929593 15856799 
2566.020 15788691 15725780 15668720 15617779 15573439 15536522 15507745 
2569.396 15487760 15476326 15472378 15474576 15481099 15490541 15501976 
2572.771 15514784 15529138 15545690 15565266 15588894 15617883 15653262 
2576.146 15695240 15743749 15797110 15853776 15911479 15968882 16025227 
2579.521 16080856 16136974 16194819 16255630 16319511 16386500 16455906 
2582.896 16527113 16599847 16674178 16750414 16828868 16909818 16993504 
2586.272 17079618 17167508 17256690 17345858 17434008 17519728 17602394 
2589.647 17681622 17757622 17831496 17903860 17975306 18045622 18114190 
2593.022 18180004 18242788 18303056 18362124 18422096 18484986 18551960 
2596.397 18622926 18697152 18773330 18850350 18928426 19008276 19091746 
2599.773 19180598 19276118 19378798 19488222 19603500 19723800 19848296 
2603.148 19976402 20107704 20241890 20378652 20518030 20660024 20805158 
2606.523 20953782 21106144 21261866 21420566 21580928 21741696 21901688 
2609.898 22059752 22214456 22364296 22506720 22638858 22758046 22861726 
2613.274 22948908 23019896 23076184 23119654 23152086 23174522 23186964 
2616.649 23188958 23180010 23160404 23131362 23095020 23053892 23010534 
2620.024 22967074 22924772 22884324 22845976 22809762 22775890 22744394 
2623.399 22715696 22690176 22668776 22652192 22641512 22638126 22642768 
2626.775 22656382 22679142 22710668 22750784 22798586 22853380 22914712 
2630.150 22981360 23052704 23127728 23205524 23285678 23368156 23453548 
2633.525 23543018 23637230 23736920 23842130 23952160 24066248 24183026 
2636.900 24301764 24421654 24542492 24663992 24786160 24908712 25031684 
2640.276 25154656 25277278 25399196 25519602 25637756 25752638 25863858 
2643.651 25971412 26076178 26178894 26281424 26384786 26490110 26597608 
2647.026 26707494 26819698 26934400 27052024 27173064 27298234 27427884 
2650.401 27561882 27700016 27841834 27987126 28135792 28287936 28443920 
2653.777 28604134 28768730 28937566 29111106 29288972 29471378 29658510 
2657.152 29850192 30046186 30246210 30449666 30656348 30865726 31078016 
2660.527 31292758 31509854 31728696 31948294 32167892 32386530 32603674 
2663.902 32819136 33033136 33245880 33458084 33670000 33882408 34095748 
2667.278 34310772 34528020 34747852 34970484 35195680 35423288 35653000 
2670.653 35884700 36118436 36354240 36592264 36831896 37072528 37313040 
2674.028 37552132 37788320 38020332 38247112 38467640 38681144 38886852 
2677.403 39084976 39275932 39461020 39642416 39822648 40004704 40191412 
2680.779 40385440 40589264 40805272 41035844 41283188 41549124 41835176 
2684.154 42142120 42469196 42815604 43179668 43559536 43953924 44361480 
2687.529 44781392 45213180 45656072 46109628 46573428 47047212 47530648 
2690.904 48023872 48526548 49038524 49559464 50088944 50626712 51172744 
2694.280 51727080 52289972 52861788 53442680 54032940 54632496 55241160 
2697.655 55858552 56484296 57117368 57756552 58400500 59048028 59698040 
2701.030 60349868 61003512 61657956 62312156 62963708 63609332 64244888 
2704.405 64866304 65469460 66051380 66608944 67139104 67638736 68103456 
2707.781 68528544 68909312 69241016 69520248 69745184 69915088 70030696 
2711.156 70093848 70107088 70072976 69994096 69872432 69708928 69503528 
2714.531 69255360 68963368 68626600 68244600 67818080 67348264 66837324 
2717.906 66287688 65702440 65085144 64439708 63771704 63086904 62391596 
2721.281 61692360 60994780 60304068 59624412 58959892 58314284 57691760 
2724.657 57096284 56531584 56001168 55507388 55051744 54635236 54258028 
2728.032 53920384 53622248 53363616 53144460 52963780 52820888 52714216 
2731.407 52642396 52603908 52597212 52620812 52673404 52753088 52857968 
2734.782 52986160 53135736 53304576 53491136 53693108 53908416 54133856 
2738.158 54366316 54602472 54838800 55072056 55299752 55519664 55729704 
2741.533 55928420 56114604 56287588 56447620 56595708 56733920 56864052 
2744.908 56988480 57109096 57227244 57344256 57461480 57580296 57702096 
2748.283 57828088 57958664 58093596 58232016 58372532 58514228 58657032 
2751.659 58801624 58950028 59104972 59269580 59446940 59640072 59851848 
2755.034 60084616 60340200 60620008 60924096 61251664 61600944 61969072 
2758.409 62353040 62748840 63152352 63558856 63962468 64356892 64735248 
2761.784 65090344 65416144 65707064 65958888 66168480 66333668 66452688 
2765.160 66524824 66550232 66529840 66466316 66363312 66225128 66056436 
2768.535 65862396 65647556 65416948 65175684 64928896 64681216 64437324 
2771.910 64200252 63972564 63755736 63550680 63358372 63179828 63015952 
2775.285 62867380 62733680 62613180 62502012 62395464 62287756 62172504 
2778.661 62042984 61893564 61718640 61513624 61275700 61003820 60698608 
2782.036 60363424 60003500 59624752 59233768 58836912 58438940 58044016 
2785.411 57655060 57274308 56903336 56543472 56195412 55859156 55534460 
2788.786 55220468 54916512 54621748 54336312 54060408 53794732 53539820 
2792.162 53296224 53063992 52842664 52631476 52429212 52234512 52045768 
2795.537 51860836 51677624 51493336 51305620 51112060 50910684 50700620 
2798.912 50481200 50252328 50014660 49768052 49512524 49247236 48971056 
2802.287 48682600 48380664 48064396 47733900 47390088 47034884 46670520 
2805.663 46299940 45926212 45552516 45182076 44818384 44464540 44123748 
2809.038 43798980 43491928 43204484 42937020 42689904 42463164 42256560 
2812.413 42069984 41903664 41757436 41630800 41523492 41434688 41363504 
2815.788 41309608 41272364 41252328 41249996 41266388 41302680 41360080 
2819.164 41439904 41543324 41671468 41824996 42004356 42209416 42439232 
2822.539 42692096 42966248 43259132 43568404 43891532 44225724 44568136 
2825.914 44915340 45263780 45609188 45947132 46272812 46581320 46867976 
2829.289 47127904 47356424 47550352 47707012 47825920 47907980 47956080 
2832.665 47974692 47968808 47944272 47906944 47862620 47816824 47774656 
2836.040 47740444 47717808 47709232 47716256 47740332 47782976 47846748 
2839.415 47936024 48056552 48215840 48422300 48684528 49011892 49414272 
2842.790 49901540 50485332 51178372 51993212 52941956 54033088 55268144 
2846.166 56638216 58120260 59676184 61247928 62763728 64142720 65296092 
2849.541 66145404 66627636 66702580 66360644 65621464 64532304 63155612 
2852.916 61567340 59847396 58067424 56294564 54584780 52978788 51507024 
2856.291 50186940 49024060 48014768 47147772 46407368 45774316 45229472 
2859.667 44755128 44334764 43955024 43605108 43276632 42964308 42664864 
2863.042 42377860 42104224 41846380 41607720 41391352 41200956 41039848 
2866.417 40911168 40817428 40760612 40741400 40759304 40812224 40896384 
2869.792 41007040 41138772 41285520 41440740 41598092 41751452 41895232 
2873.167 42025596 42140992 42242608 42334500 42422720 42514904 42617744 
2876.543 42737176 42877444 43040804 43228092 43439300 43673948 43930972 
2879.918 44209176 44506788 44821984 45152408 45496108 45850864 46214504 
2883.293 46584532 46957348 47328860 47693920 48047556 48385888 48706064 
2886.668 49007440 49291328 49560356 49818216 50068760 50315948 50563644 
2890.044 50815884 51076948 51352008 51646912 51968860 52326596 52729516 
2893.419 53189472 53718304 54327488 55027220 55823736 56717760 57701224 
2896.794 58756480 59854852 60954860 62008932 62963860 63766220 64373956 
2900.169 64757980 64908700 64836680 64571440 64156392 63639328 63071236 
2903.545 62497916 61956116 61476784 61082108 60787976 60606140 60544620 
2906.920 60608544 60801656 61126696 61586548 62184816 62926056 63814992 
2910.295 64854876 66045672 67381536 68848896 70426736 72083664 73778552 
2913.670 75465736 77090912 78598288 79937224 81061808 81940312 82556896 
2917.046 82911944 83020560 82907856 82605624 82144160 81549752 80842992 
2920.421 80036416 79136936 78147928 77071368 75910800 74673960 73372352 
2923.796 72022808 70646176 69263720 67897376 66566648 65286464 64068520 
2927.171 62920308 61846184 60848120 59926468 59080144 58306320 57601144 
2930.547 56959316 56374652 55841144 55352892 54905532 54495368 54120004 
2933.922 53777404 53465688 53182732 52925936 52692448 52479048 52281972 
2937.297 52097728 51922184 51751752 51583664 51416568 51250660 51088356 
2940.672 50933300 50789924 50662192 50552776 50461848 50387048 50322456 
2944.048 50259768 50188576 50096908 49974136 49811600 49604964 49355284 
2947.423 49069764 48761036 48444192 48136464 47852964 47604512 47397036 
2950.798 47231400 47103676 47006564 46931392 46868752 46809296 46744828 
2954.173 46667864 46572244 46452868 46306648 46131440 45927096 45694356 
2957.549 45435732 45153988 44853284 44537588 44211156 43878004 43541664 
2960.924 43204996 42870492 42540340 42216792 41902316 41599732 41312340 
2964.299 41043272 40795660 40571804 40373588 40201916 40057348 39939204 
2967.674 39846616 39777292 39727948 39694580 39672728 39657480 39645248 
2971.050 39633196 39619984 39605500 39590692 39576900 39565684 39558388 
2974.425 39555880 39557552 39561364 39562636 39553704 39523544 39459496 
2977.800 39347900 39175908 38934512 38619284 38231844 37779320 37273864 
2981.175 36731140 36167948 35601172 35046700 34517004 34022180 33568932 
2984.551 33160112 32796554 32476790 32199078 31962022 31765700 31611406 
2987.926 31500448 31431980 31401206 31396110 31398356 31383466 31323206 
2991.301 31192068 30970790 30650482 30235054 29741246 29195582 28627704 
2994.676 28067956 27541018 27062356 26639144 26270230 25949570 25668090 
2998.052 25417148 25189698 24980582 24786370 24604974 24434238 24272330 
3001.427 24117172 23966936 23820286 23676346 23535182 23397246 23263514 
3004.802 23135206 23013328 22898714 22791952 22693212 22602452 22519458 
3008.177 22443668 22374762 22312076 22255014 22202740 22154306 22108490 
3011.552 22064040 22020292 21976896 21934098 21892942 21854612 21820432 
3014.928 21791582 21768972 21753228 21744936 21744344 21751382 21765560 
3018.303 21785696 21809734 21835378 21859942 21881164 21897228 21906950 
3021.678 21909670 21904824 21891862 21870326 21839872 21800920 21754690 
3025.053 21703728 21651588 21601682 21557388 21521108 21493778 21474976 
3028.429 21462966 21455412 21449388 21441872 21430486 21413396 21389726 
3031.804 21359794 21324330 21285040 21243736 21202054 21160968 21121310 
3035.179 21083222 21047224 21013870 20984278 20959346 20940220 20927426 
3038.554 20921166 20921272 20927182 20938552 20955138 20976872 21003718 
3041.930 21035400 21071502 21111258 21153626 21197496 21241440 21283892 
3045.305 21323598 21358924 21389134 21414404 21435606 21454752 21474386 
3048.680 21496526 21522396 21551818 21583330 21614638 21643334 21667644 
3052.055 21686416 21699408 21706690 21708604 21705260 21696726 21683700 
3055.431 21667156 21648836 21630936 21615438 21603910 21596982 21594682 
3058.806 21596284 21600986 21608022 21616308 21625014 21633094 21639642 
3062.181 21643926 21646084 21647234 21648942 21653782 21663464 21679450 
3065.556 21701498 21728808 21759672 21792384 21825796 21859246 21892768 
3068.932 21926606 21961072 21996658 22033538 22072234 22112848 22155664 
3072.307 22200506 22246714 22293798 22341238 22388926 22437386 22487842 
3075.682 22541374 22598646 22659732 22723270 22787728 22851144 22912126 
3079.057 22970358 23026114 23079854 23132410 23184030 23234570 23283512 
3082.433 23330602 23375778 23419174 23461314 23502270 23542528 23582094 
3085.808 23621452 23661268 23702732 23746648 23793932 23844544 23897930 
3089.183 23952860 24008114 24063024 24117068 24170520 24223524 24276360 
3092.558 24328782 24380614 24431926 24483664 24536882 24593752 24655752 
3095.934 24723826 24797736 24875938 24956366 25036740 25115510 25191698 
3099.309 25265126 25336246 25405730 25474240 25542724 25611886 25682572 
3102.684 25755520 25830730 25907890 25986116 26063830 26140290 26214652 
3106.059 26286774 26357500 26427426 26497118 26566962 26636642 26705910 
3109.435 26774622 26843068 26912226 26983018 27056326 27133102 27213032 
3112.810 27296010 27381334 27468088 27555492 27642702 27728836 27813432 
3116.185 27896138 27977408 28057954 28139150 28222094 28307314 28394676 
3119.560 28483190 28571260 28657080 28739840 28819322 28896058 28971388 
3122.936 29046486 29122266 29198880 29276284 29353984 29431914 29510032 
3126.311 29588948 29669684 29752848 29839084 29928600 30020762 30114756 
3129.686 30208732 30301098 30390176 30474760 30555022 30632028 30707696 
3133.061 30784766 30865228 30950830 31041748 31137350 31236144 31336490 
3136.437 31437040 31536716 31634818 31730908 31824202 31914380 32001148 
3139.812 32085120 32167074 32248716 32331414 32416090 32502818 32590818 
3143.187 32678756 32765646 32850980 32935258 33019766 33106364 33196234 
3146.562 33289880 33387520 33487968 33590128 33692876 33795372 33897208 
3149.938 33998420 34099048 34199628 34300408 34402044 34504700 34608352 
3153.313 34712856 34817452 34921576 35024864 35127380 35229744 35332744 
3156.688 35437276 35543632 35651236 35759300 35866204 35971152 36073608 
3160.063 36174356 36274736 36376432 36480860 36588912 36700776 36815632 
3163.438 36932568 37050408 37168060 37284844 37400788 37515864 37630460 
3166.814 37744908 37859388 37973572 38086592 38197036 38303276 38403528 
3170.189 38496824 38582780 38662204 38735696 38804672 38869932 38931320 
3173.564 38988804 39041652 39088960 39130728 39167100 39198828 39227296 
3176.939 39254276 39281156 39309700 39341076 39376268 39415196 39457360 
3180.315 39501448 39545868 39589492 39631344 39671460 39710340 39748972 
3183.690 39788300 39828536 39869392 39910144 39950028 39988320 40025084 
3187.065 40060696 40096160 40132900 40171856 40214276 40260660 40311044 
3190.440 40364640 40419984 40475448 40529024 40579080 40625320 40667964 
3193.816 40708500 40748460 40789112 40831076 40873776 40916080 40957040 
3197.191 40995748 41032600 41068180 41103804 41139680 41175784 41211048 
3200.566 41243944 41273676 41299768 41322836 41344300 41365584 41388068 
3203.941 41412524 41439720 41469792 41502820 41538476 41576068 41614136 
3207.317 41650460 41683136 41710636 41732776 41750760 41766772 41783336 
3210.692 41801940 41823284 41846048 41869000 41890820 41911072 41930412 
3214.067 41950556 41972708 41997492 42024244 42051148 42076844 42099916 
3217.442 42120252 42138504 42155632 42172680 42190028 42207700 42225884 
3220.818 42244980 42266308 42291072 42320764 42355580 42394808 42436420 
3224.193 42477744 42516952 42552508 42584524 42613508 42640556 42666436 
3227.568 42691692 42716480 42740792 42764668 42788876 42813812 42840320 
3230.943 42868664 42899276 42932156 42967492 43005424 43045852 43088552 
3234.319 43132756 43177548 43222088 43265648 43308368 43350248 43391736 
3237.694 43433000 43473868 43513864 43552576 43590528 43628700 43669036 
3241.069 43713008 43761412 43813092 43866052 43917008 43963276 44003460 
3244.444 44038260 44069872 44101188 44135080 44172896 44214972 44260392 
3247.820 44307908 44357112 44407720 44460060 44514316 44570080 44626000 
3251.195 44680280 44730924 44776396 44815996 44849796 44878744 44903988 
3254.570 44926732 44948448 44970276 44993576 45019044 45047272 45077596 
3257.945 45108696 45138508 45165056 45186524 45202960 45215020 45224764 
3261.321 45234216 45245284 45258740 45274776 45291804 45308316 45322292 
3264.696 45331372 45334280 45330232 45319312 45302872 45283124 45262860 
3268.071 45244512 45229768 45218992 45210828 45203144 45193068 45178324 
3271.446 45158032 45132188 45102336 45070684 45039040 45009160 44982220 
3274.822 44958296 44937500 44919164 44902664 44887160 44871616 44854828 
3278.197 44836020 44814892 44791164 44765452 44738748 44712232 44686852 
3281.572 44663824 44643812 44627360 44614804 44605988 44599932 44595892 
3284.947 44591856 44586496 44578744 44568432 44556020 44542328 44528596 
3288.323 44515564 44503520 44492144 44480908 44469568 44458372 44448424 
3291.698 44441304 44438588 44441636 44450956 44466372 44487040 44511708 
3295.073 44538876 44567660 44597512 44628132 44660080 44694196 44731220 
3298.448 44771844 44816288 44864012 44914132 44965428 45016728 45067672 
3301.823 45118364 45169836 45223292 45280364 45341784 45408216 45479108 
3305.199 45553544 45630384 45708528 45787056 45865264 45943156 46020912 
3308.574 46099348 46178940 46260684 46345428 46432920 46522972 46614888 
3311.949 46707820 46801140 46894996 46989540 47085468 47183192 47282748 
3315.324 47383732 47485180 47586320 47686156 47784904 47882748 47980392 
3318.700 48078312 48176336 48274340 48371740 48467900 48562676 48655988 
3322.075 48748024 48838816 48928296 49015900 49101336 49184484 49265272 
3325.450 49344036 49421144 49496776 49570680 49642588 49712020 49778676 
3328.825 49842744 49904252 49963540 50020648 50074708 50124832 50169460 
3332.201 50207544 50237824 50259992 50273908 50279748 50277996 50269408 
3335.576 50254748 50234920 50211264 50184820 50156444 50126504 50094228 
3338.951 50058568 50017632 49969640 49913064 49846644 49769796 49682784 
3342.326 49586540 49482224 49371468 49255620 49136024 49013188 48886984 
3345.702 48756844 48621408 48479536 48330592 48174300 48011288 47842756 
3349.077 47669664 47493388 47314892 47135068 46954432 46773796 46593604 
3352.452 46414408 46236136 46058672 45881320 45704000 45526276 45348808 
3355.827 45172480 44998280 44827384 44660596 44498568 44341372 44189588 
3359.203 44043760 43904616 43773032 43649472 43533680 43424468 43320120 
3362.578 43218320 43117752 43016988 42915956 42815528 42716520 42620232 
3365.953 42527512 42438760 42354008 42273248 42196416 42123172 42053772 
3369.328 41987708 41924572 41863596 41803400 41742224 41678356 41610452 
3372.704 41537016 41457324 41370904 41277720 41177676 41070804 40956752 
3376.079 40835412 40706496 40569984 40426168 40275600 40118908 39956276 
3379.454 39787716 39612612 39429964 39238248 39036144 38822176 38595276 
3382.829 38354992 38100844 37833904 37555528 37268200 36975140 36680008 
3386.205 36385764 36094884 35808376 35526372 35247640 34970808 34694372 
3389.580 34417212 34138476 33858052 33576344 33293742 33011828 32731954 
3392.955 32456006 32185164 31919800 31659230 31401310 31143724 30884010 
3396.330 30621360 30356028 30090464 29827762 29570858 29321016 29078086 
3399.706 28840178 28604702 28369104 28132220 27894228 27655874 27418780 
3403.081 27184142 26952238 26722752 26495074 26268750 26043564 25819936 
3406.456 25598390 25379242 25162380 24947592 24734208 24522192 24311330 
3409.831 24101832 23893902 23687544 23482332 23278268 23075414 22874440 
3413.207 22677222 22485190 22300218 22123412 21954486 21792314 21634522 
3416.582 21478492 21321998 21163576 21002570 20839154 20674200 20509172 
3419.957 20345594 20185724 20031186 19883848 19744882 19614212 19491134 
3423.332 19373912 19260256 19147458 19033894 18917972 18799142 18677642 
3426.708 18554314 18430186 18306720 18184944 18065760 17949750 17836916 
3430.083 17726662 17618232 17510516 17403072 17295514 17187982 17080858 
3433.458 16974622 16869546 16765842 16663365 16562326 16462892 16365476 
3436.833 16270181 16177004 16085394 15993804 15901100 15805872 15707606 
3440.208 15606754 15504414 15402407 15302312 15205602 15112105 15021714 
3443.584 14932886 14843801 14753330 14660032 14563740 14465345 14366732 
3446.959 14270299 14179091 14095295 14019900 13952421 13890392 13830527 
3450.334 13769166 13703162 13631082 13553238 13470827 13385971 13300415 
3453.709 13215081 13130071 13044906 12959315 12873773 12789444 12707622 
3457.085 12629363 12555176 12484105 12414307 12343532 12269974 12192680 
3460.460 12111515 12027537 11941941 11856397 11771754 11688966 11608712 
3463.835 11531535 11457875 11388141 11322396 11260095 11200354 11142456 
3467.210 11084975 11027670 10970135 10912404 10854681 10796897 10738544 
3470.586 10679112 10617651 10553958 10487728 10419303 10349395 10278854 
3473.961 10208289 10138585 10070113 10003516 9938930 9877268 9818734 9763900 
3477.818 9712597 9664350 9618141 9573054 9527837 9481980 9435553 9389741 
3481.676 9346134 9305984 9270238 9238590 9209517 9179972 9147587 9110027 
3485.533 9066245 9017359 8965603 8914496 8866878 8825690 8791878 8765742 
3489.391 8746403 8732644 8723347 8717262 8713645 8711042 8708439 8704788 
3493.248 8699582 8692720 8685553 8679942 8677914 8681159 8690962 8706952 
3497.105 8728486 8754145 8782309 8811354 8840163 8867487 8891870 8912737 
3500.963 8929716 8943617 8956606 8971726 8992833 9024125 9067834 9125085 
3504.820 9194830 9274469 9360184 9448388 9536169 9621562 9704533 9786063 
3508.678 9868726 9955644 10049597 10152321 10264027 10383125 10506907 
3512.053 10632625 10757700 10880909 11002487 11123080 11243536 11363821 
3515.428 11482507 11597720 11706769 11808013 11901074 11987139 12067803 
3518.803 12144429 12216943 12283369 12340737 12385703 12415364 12428935 
3522.179 12427468 12413217 12388839 12355804 12314319 12262408 12197961 
3525.554 12117954 12021235 11907987 11780470 11641928 11496115 11346237 
3528.929 11194098 11040075 10883049 10722038 10555655 10383295 10205610 
3532.304 10023216 9837510 9649172 9458919 9266481 9072504 8877430 8682646 
3536.162 8489606 8299961 8114787 7934483 7758573 7586780 7418931 7255391 
3540.019 7097303 6945837 6801693 6664798 6533765 6405696 6277599 6146447 
3543.877 6009960 5867134 5718682 5566957 5415420 5268832 5131547 5006976 
3547.734 4896715 4800050 4713790 4633006 4552572 4468135 4376753 4278799 
3551.592 4176718 4075230 3978848 3891681 3815362 3749450 3692003 3639675 
3555.449 3589559 3539014 3486170 3430093 3370217 3306776 3240140 3171345 
3559.306 3101960 3033220 2966960 2904012 2844608 2788014 2732961 2676715 
3563.164 2616275 2548512 2470396 2379866 2276899 2163799 2046700 1933760 
3567.021 1834558 1757235 1705805 1679527 1673174 1679161 1689140 1696225 
3570.879 1695893 1685481 1664892 1635290 1599006 1558502 1516505 1475344 
3574.736 1436680 1401276 1368801 1338123 1307447 1274812 1239356 1200447 
3578.594 1159382 1117523 1077296 1040228 1007846 980681 958232 939869 923698 
3582.933 907461 888370 862207 825291 773971 706627 624362 532160 438850 
3587.273 354977 291213 254643 246255 262534 295324 335346 373382 402234 
3591.612 416794 415003 396430 362936 318335 266943 213667 163050 118205 
3595.952 81351 53150 32936 19019 9343 1756 -5334 -12325 -19151 -24021 -24949 
3601.256 -19946 -8117 9940 32737 57259 79595 96198 103125 97159 75651 37111 
3606.560 -18057 -87630 -166532 -247705 -323930 -388951 -440161 -478986 
3610.417 -510030 -538988 -570822 -607220 -646361 -682852 -710144 -723739 
3614.275 -722085 -708192 -688443 -671372 -664756 -673920 -701047 -743884 
3618.132 -796242 -847602 -887614 -906561 -899055 -865228 -810464 -743586 
3621.990 -674284 -611290 -560795 -525585 -506125 -501061 -509964 -533660 
3625.847 -576712 -645005 -743884 -874520 -1028851 -1186432 -1319049 -1400072 
3629.704 -1416090 -1372427 -1288128 -1188051 -1092115 -1013976 -958999 
3633.080 -925672 -907288 -896112 -885366 -872040 -856762 -842741 -833283 
3636.937 -830604 -834837 -843733 -854183 -863376 -869890 -873395 -874850 
3640.794 -875049 -874388 -872569 -869361 -865195 -862185 -864136 -876338 
3644.652 -904081 -951857 -1021612 -1112441 -1219937 -1336919 -1454630 
3648.027 -1564253 -1657676 -1727548 -1766489 -1768799 -1730716 -1653154 
3651.402 -1543057 -1413052 -1279638 -1158244 -1063955 -1006273 -989182 
3654.778 -1009414 -1056518 -1114622 -1165217 -1194494 -1196047 -1171099 
3658.153 -1127114 -1072978 -1017050 -964784 -919258 -881464 -851008 -826569 
3662.010 -806627 -789528 -774016 -759099 -744413 -729627 -715006 -700683 
3665.868 -687748 -677592 -672464 -674416 -682852 -691784 -685995 -640737 
3669.725 -525122 -310586 15904 448535 963578 1532898 2126438 2718657 3287345 
3674.065 3802593 4225129 4508678 4608727 4503354 4202579 3741830 3167473 
3677.922 2526049 1862642 1218455 632989 140312 -241049 -509236 -680768 
3681.780 -781061 -838045 -873131 -898658 -919754 -938434 -957412 -983364 
3685.637 -1025678 -1093966 -1193866 -1324103 -1475005 -1628793 -1766423 
3689.012 -1872734 -1940427 -1970015 -1966915 -1937030 -1885799 -1817932 
3692.387 -1739824 -1658303 -1581454 -1516445 -1466948 -1433264 -1411434 
3695.763 -1395713 -1380024 -1360933 -1339033 -1318586 -1305901 -1307189 
3699.138 -1326382 -1363972 -1416024 -1474609 -1529289 -1569899 -1588057 
3702.513 -1580100 -1547977 -1497855 -1438581 -1379298 -1328562 -1291960 
3705.888 -1272865 -1272138 -1288723 -1320238 -1364335 -1418303 -1479232 
3709.264 -1544411 -1610571 -1673519 -1728010 -1768898 -1791271 -1790875 
3712.639 -1766489 -1719495 -1653616 -1575445 -1493167 -1414274 -1346631 
3716.014 -1295726 -1264441 -1252051 -1255619 -1269495 -1289020 -1311153 
3719.389 -1335169 -1362717 -1395481 -1433462 -1473552 -1510337 -1537445 
3722.765 -1550222 -1547812 -1533416 -1513870 -1496336 -1485803 -1483789 
3726.140 -1486761 -1488841 -1482996 -1465627 -1437194 -1403540 -1372989 
3729.515 -1355384 -1359414 -1389470 -1445483 -1521431 -1607864 -1693983 
3732.890 -1772198 -1840302 -1900314 -1955634 -2007253 -2050951 -2078387 
3736.266 -2079772 -2049467 -1988651 -1905527 -1811399 -1717086 -1630641 
3739.641 -1556825 -1497723 -1455291 -1433429 -1439604 -1482864 -1571913 
3743.016 -1708076 -1877287 -2047092 -2176216 -2229358 -2199194 -2105526 
3746.391 -1984264 -1870326 -1788961 -1755038 -1770350 -1826412 -1905263 
3749.767 -1987529 -2055963 -2100843 -2118913 -2110538 -2076013 -2016125 
3753.142 -1933269 -1833803 -1727185 -1625690 -1540053 -1478043 -1442709 
3756.517 -1432042 -1440595 -1460706 -1485836 -1510700 -1531700 -1545368 
3759.892 -1547845 -1535067 -1504624 -1458659 -1403507 -1349108 -1306099 
3763.268 -1283140 -1282710 -1301309 -1329289 -1355252 -1370049 -1370941 
3766.643 -1362089 -1353072 -1353699 -1369785 -1401625 -1442180 -1480520 
3770.018 -1504360 -1506011 -1483425 -1441223 -1387654 -1331238 -1279671 
3773.393 -1237448 -1206423 -1185606 -1173280 -1167068 -1165878 -1169976 
3776.769 -1181079 -1201499 -1232393 -1271874 -1314457 -1351817 -1374541 
3780.144 -1376259 -1355714 -1318487 -1274253 -1233781 -1206522 -1197270 
3783.519 -1205497 -1225521 -1249375 -1269297 -1280199 -1281124 -1274814 
3786.894 -1265597 -1257668 -1253670 -1254529 -1259650 -1267645 -1276929 
3790.270 -1285882 -1292852 -1296618 -1296519 -1293414 -1289747 -1289284 
3793.645 -1297081 -1316373 -1348414 -1389966 -1434155 -1471571 -1493794 
3797.020 -1497195 -1484779 -1466122 -1453805 -1461499 -1499044 -1569470 
3800.395 -1665465 -1767941 -1852741 -1895366 -1884479 -1824597 -1734511 
3803.771 -1638597 -1559631 -1515521 -1514266 -1553028 -1616942 -1682530 
3807.146 -1725402 -1728109 -1687382 -1612387 -1519582 -1423686 -1335433 
3810.521 -1259915 -1197138 -1145290 -1103782 -1074862 -1064616 -1081109 
3813.896 -1130254 -1213427 -1322616 -1440694 -1543586 -1610637 -1632820 
3817.271 -1616414 -1579572 -1544972 -1535067 -1564518 -1638531 -1748141 
3820.647 -1872635 -1981098 -2044454 -2048082 -1994324 -1900215 -1787674 
3824.022 -1677777 -1585515 -1517733 -1474080 -1447761 -1429102 -1408197 
3827.397 -1379331 -1342271 -1301408 -1263879 -1236721 -1224794 -1229485 
3830.772 -1248483 -1276565 -1307189 -1334640 -1354657 -1366912 -1373551 
3834.148 -1379694 -1392311 -1418402 -1464009 -1531700 -1618725 -1715964 
3837.523 -1810211 -1886195 -1931653 -1942077 -1920635 -1876099 -1819318 
3840.898 -1760285 -1705237 -1656124 -1611759 -1568744 -1523346 -1473321 
3844.273 -1418369 -1360305 -1302631 -1248946 -1203151 -1167332 -1142382 
3847.649 -1127676 -1121694 -1123446 -1133823 -1156328 -1197997 -1269231 
3851.024 -1381147 -1541770 -1749824 -1988387 -2222963 -2406834 -2502481 
3854.399 -2496254 -2403210 -2253124 -2077662 -1901568 -1738999 -1597531 
3857.774 -1480123 -1386465 -1316076 -1267645 -1239199 -1228296 -1231600 
3861.150 -1245344 -1266522 -1292786 -1323409 -1357399 -1393004 -1425007 
3864.525 -1446374 -1449677 -1431579 -1395118 -1349868 -1310658 -1293083 
3867.900 -1308676 -1361792 -1445648 -1543487 -1631533 -1689230 -1707449 
3871.275 -1691111 -1654672 -1613740 -1580464 -1558377 -1543718 -1526846 
3874.651 -1497822 -1450799 -1386993 -1313829 -1242933 -1186332 -1153552 
3878.026 -1150049 -1175428 -1224529 -1286608 -1347225 -1393830 -1416718 
3881.401 -1414010 -1390891 -1358588 -1331040 -1320403 -1335664 -1378142 
3884.776 -1441255 -1508752 -1560820 -1581553 -1563494 -1511492 -1439340 
3888.152 -1364732 -1303787 -1267480 -1260476 -1279109 -1312970 -1347126 
3891.527 -1367935 -1366482 -1341147 -1297180 -1243065 -1188249 -1139672 
3894.902 -1102030 -1077473 -1066995 -1070301 -1087389 -1117728 -1160690 
3898.277 -1213956 -1273856 -1335466 -1393896 -1444921 -1487355 -1521431 
3901.653 -1549463 -1573762 -1594791 -1610472 -1616678 -1608095 -1580629 
3905.028 -1532756 -1466915 -1388843 -1305835 -1225223 -1152924 -1093073 
3908.403 -1047130 -1015000 -995298 -985447 -982802 -984785 -989017 -993348 
3912.260 -996753 -998835 -1000951 -1005182 -1014571 -1031727 -1058269 
3915.636 -1093404 -1133658 -1174371 -1209297 -1233483 -1244353 -1241677 
3919.011 -1227272 -1204044 -1175230 -1143539 -1111416 -1081406 -1055790 
3922.386 -1036850 -1026669 -1025777 -1033115 -1045411 -1058435 -1067822 
3925.761 -1070730 -1067095 -1058798 -1049708 -1043395 -1042536 -1048188 
3929.137 -1059658 -1074895 -1091850 -1108210 -1123148 -1135310 -1144002 
3932.512 -1147604 -1144464 -1133426 -1114192 -1088116 -1057972 -1027330 
3935.887 -1000025 -978636 -964619 -957544 -956321 -959065 -964718 -973115 
3939.745 -984719 -1000786 -1022174 -1048353 -1077804 -1106987 -1131873 
3943.120 -1148430 -1154378 -1149322 -1135277 -1116208 -1097304 -1082596 
3946.495 -1075986 -1078299 -1088677 -1103980 -1120405 -1134120 -1142878 
3949.870 -1145290 -1142250 -1134649 -1123809 -1110623 -1094891 -1077076 
3953.246 -1056782 -1034503 -1011331 -988686 -967925 -950204 -935955 -925374 
3957.103 -918100 -914067 -913240 -915654 -921407 -930136 -941377 -954205 
3960.960 -967561 -980289 -991397 -999860 -1005182 -1007100 -1005579 -1000852 
3964.818 -993612 -984785 -975264 -966239 -958172 -951461 -945609 -940253 
3968.675 -934500 -927689 -919324 -909107 -897203 -884407 -871577 -860367 
3972.533 -851967 -847701 -847933 -852166 -859143 -866848 -873660 -878058 
3976.390 -879447 -878190 -874950 -870717 -866054 -861260 -856432 -851372 
3980.248 -846312 -841153 -836391 -831861 -827562 -823229 -818665 -814333 
3984.105 -811026 -810034 -812216 -817938 -826437 -836292 -845684 -853092 
3987.962 -857854 -860367 -861524 -862285 -863012 -863475 -862549 -859705 
3991.820 -854745 -848991 -844196 -842245 -844725 -851736 -862384 -874619 
3995.677 -886688 -897303 -906263 -914100 -921870 -930631 -940815 -951857 
3999.535 -962867 -973248 -981612 
##END=
