
##TITLE=1675_2_d
##JCAMP-DX=5.01  $$ Nicolet v. 1
##DATATYPE=INFRARED SPECTRUM
##ORIGIN=UniL
##OWNER=Nicolet
##LONGDATE=2011/09/16
##TIME=11:45:33
##SPECTROMETER/DATA SYSTEM=Nicolet iS5
##DATA PROCESSING=
Ratio against background
%Transmittance->Absorbance
Truncated
ElementMultiply or ElementDivide
##COMMENTS=
Number of sample scans: 32
Collection length: 51.16 sec
Sample gain: 2.0
Background collected on: Ven Sep 16 11:34:41 2011 (GMT+02:00);
Number of background scans: 32
Background gain: 2.0
Sample spacing:  1.000
Number of scan points: 12415
Resolution points: 8192
Number of FFT points: 65536
Apodization: N-B fort;
Phase correction: Mertz;
Laser frequency: 15798.0 cm-1
Number of rejected sample scans: 0
Number of rejected background scans: 0
Bench serial number: ASB1000141;
##RESOLUTION=4.000
##XUNITS=1/CM
##YUNITS=ABSORBANCE
##FIRSTX=649.893372
##LASTX=4000.122314
##FIRSTY=0.087472
##MAXX=4000.122314
##MINX=649.893372
##MAXY=0.271955
##MINY=-0.002372
##XFACTOR=1.000000
##YFACTOR=1.000000E-009
##NPOINTS=6950
##DELTAX=0.482117
##ZPD=6100
##XYDATA=(X++(Y..Y))
649.893 87472360 87080760 86719976 86435128 86246440 86153056 86145296 
653.268 86219728 86386048 86666328 87079136 87628216 88292512 89034856 
656.643 89816360 90616424 91441568 92322200 93294608 94380032 95576136 
660.018 96859608 98202088 99589736 101032840 102559128 104197640 105956272 
663.393 107811992 109713944 111605920 113443656 115194112 116836768 
666.285 118338832 119635560 120633632 121243096 121435616 121266224 
669.178 120839368 120241520 119507704 118627328 117571648 116324792 
672.071 114903224 113362088 111776384 110224376 108758504 107395640 
674.963 106127024 104934704 103808056 102749832 101771168 100880120 
677.856 100070504 99321896 98604936 97891848 97168120 96433312 95695896 
681.231 94962792 94233712 93498256 92743984 91964320 91165864 90367528 
684.606 89595448 88871504 88204408 87589944 87014720 86465208 85933632 
687.981 85420896 84932176 84471256 84034904 83611680 83186424 82747072 
691.355 82289424 81818888 81347192 80885936 80443520 80023672 79629096 
694.730 79266448 78949096 78697216 78532104 78469144 78513800 78659848 
698.105 78894016 79200832 79569832 79997416 80484800 81033224 81638952 
701.480 82289456 82966696 83650600 84325176 84982912 85624288 86253472 
704.855 86873576 87482368 88072576 88635224 89163648 89657112 90120480 
708.229 90561848 90988872 91406752 91820736 92240280 92683976 93182488 
711.604 93774248 94495344 95370560 96399056 97547520 98746992 99908528 
714.979 100930624 101718480 102208648 102375344 102240856 101870608 
717.872 101370064 100868416 100490368 100350912 100529664 101059472 
720.765 101924528 103058616 104355192 105667360 106834240 107701456 
723.657 108134168 108054608 107455984 106413152 105064760 103591392 
726.550 102180016 100969408 100042008 99412368 99043864 98871744 98830848 
729.925 98876488 98984512 99146888 99359800 99612664 99886352 100159504 
733.300 100415624 100650464 100871808 101093728 101326840 101572768 
736.192 101823360 102067424 102297168 102514784 102730656 102958016 
739.085 103204904 103469264 103739384 104000280 104242840 104468088 
741.978 104686576 104912560 105155496 105415344 105682320 105942824 
744.870 106187024 106414376 106632744 106852720 107081432 107317496 
747.763 107552584 107777168 107986632 108184744 108382616 108591128 
750.656 108813920 109044536 109268576 109472872 109651328 109810528 
753.548 109965224 110132008 110319280 110522872 110728480 110919224 
756.441 111085560 111229280 111362856 111501008 111654680 111824432 
759.334 112002952 112180832 112354688 112529704 112717744 112929344 
762.227 113167440 113424552 113687592 113945312 114197544 114457432 
765.119 114749352 115099000 115525312 116036480 116630856 117302080 
768.012 118042480 118845352 119704264 120614648 121582624 122639936 
770.905 123863608 125370936 127305776 129792600 132863152 136396320 
773.797 140067872 143407168 145833840 146807344 146005392 143391360 
776.690 139255216 134093672 128519792 123082960 118149288 113904352 
779.583 110341280 107333704 104698672 102271040 99938104 97641984 95375304 
782.958 93158056 91022792 89002400 87128336 85431992 83939904 82674080 
786.332 81647712 80864024 80319848 80011040 79938784 80112232 80547568 
789.707 81261840 82270320 83582720 85206120 87151256 89436688 92088256 
793.082 95132248 98579696 102409528 106548856 110871656 115193200 119267896 
796.457 122828904 125587720 127263664 127641272 126585840 124086488 
799.350 120262288 115359248 109713472 103678968 97619000 91840104 86558136 
802.724 81911824 77946232 74632952 71892592 69624704 67733616 66142200 
806.099 64808524 63720360 62885916 62316668 62010844 61938768 62042796 
809.474 62236016 62415396 62486860 62370600 62017072 61410408 60561572 
812.849 59502152 58273092 56923092 55501816 54056352 52633904 51274524 
816.224 50009748 48862252 47842864 46953508 46190288 45546664 45017280 
819.598 44598208 44287284 44082924 43983040 43985568 44090076 44299940 
822.973 44623172 45072708 45663440 46407736 47311528 48368516 49557944 
826.348 50838532 52148456 53408204 54516140 55366520 55862512 55928384 
829.723 55534648 54703256 53510996 52069076 50510900 48971132 47556192 
833.098 46343328 45371760 44643956 44132732 43788792 43553348 43360060 
836.473 43146476 42865700 42487172 42004900 41435928 40815972 40187888 
839.847 39591888 39059596 38606896 38236984 37943200 37715744 37545412 
843.222 37425132 37349688 37314376 37313292 37340448 37391400 37464356 
846.597 37560332 37682820 37834120 38013352 38216248 38436252 38667708 
849.972 38908236 39160320 39429964 39725224 40052884 40417220 40820228 
853.347 41263400 41748428 42279204 42860216 43495660 44188960 44942276 
856.721 45759036 46645952 47614160 48680264 49863516 51182992 52656536 
860.096 54299180 56123084 58138404 60349944 62752396 65320008 68000408 
863.471 70710280 73329664 75722808 77749376 79278816 80220272 80529312 
866.846 80219072 79357408 78065592 76506192 74849808 73274984 71941424 
870.221 70968056 70439792 70395680 70831832 71704560 72934848 74417584 
873.596 76014360 77571240 78929856 79929464 80441808 80383032 79724304 
876.970 78497768 76786808 74715160 72415776 70024816 67666968 65438136 
880.345 63414388 61648292 60169400 58991548 58113140 57519808 57185020 
883.720 57073232 57144316 57352532 57653884 58010160 58389396 58773668 
887.095 59160860 59566376 60020428 60562564 61235220 62071044 63088208 
890.470 64286500 65649904 67151016 68759096 70448864 72201232 74003864 
893.844 75848968 77727112 79623472 81514136 83358976 85100064 86660992 
897.219 87939440 88822672 89200512 88976656 88097984 86564928 84438448 
900.594 81828336 78882456 75771440 72652872 69669984 66937664 64529920 
903.969 62490804 60834816 59553528 58623276 58011184 57684040 57609312 
907.344 57762000 58126436 58694316 59463620 60435088 61609036 62983932 
910.719 64555636 66314676 68245688 70322008 72499872 74721064 76910592 
914.093 78985096 80872368 82518344 83902160 85039928 85984800 86818784 
917.468 87634576 88533800 89606696 90918360 92505144 94360728 96434760 
920.843 98628344 100811912 102844888 104593608 105972808 106962272 107622360 
924.218 108082912 108534128 109204280 110307920 112037480 114528416 
927.110 117832680 121906496 126588848 131617024 136595952 141037696 
930.003 144435760 146272912 146143056 143826576 139322368 132875072 
932.896 124924952 116069328 106923576 98047584 89910536 82811344 76909880 
936.271 72248768 68783248 66423656 65063404 64605116 64953796 66007404 
939.646 67649432 69715656 71992808 74242648 76198456 77620480 78339720 
943.020 78271144 77438552 75957840 74022016 71848176 69641400 67576912 
946.395 65766008 64263716 63078672 62187568 61551192 61125856 60874152 
949.770 60762400 60761104 60845068 60989596 61172540 61377396 61592156 
953.145 61811880 62036568 62269592 62514752 62775372 63053848 63351624 
956.520 63670524 64012952 64381024 64775860 65197132 65642236 66108020 
959.894 66591100 67090028 67605640 68140240 68696104 69274480 69874448 
963.269 70493536 71128560 71777648 72440632 73119024 73814608 74528184 
966.644 75259056 76005248 76765176 77538960 78329320 79141000 79979208 
970.019 80847384 81746088 82673240 83626584 84604696 85609672 86646464 
973.394 87721104 88839136 90002984 91212664 92466152 93762944 95104568 
976.768 96495912 97943280 99453696 101033048 102686368 104419872 106242536 
980.143 108167920 110213784 112398688 114739176 117246696 119924880 
983.036 122769376 125765712 128889080 132097872 135326832 138489984 
985.929 141471264 144134736 146347632 147985088 148956752 149222080 
988.821 148792800 147734416 146153680 144199056 142036400 139831632 
991.714 137749232 135921248 134443440 133375672 132737768 132521240 
994.607 132699040 133239256 134110544 135286192 136745920 138470480 
997.500 140440272 142635392 145033776 147613520 150352560 153222096 
1000.392 156181824 159177488 162131920 164954784 167554832 169845200 
1003.285 171764592 173284160 174409328 175178592 175658640 175942944 
1006.178 176135408 176350192 176702592 177287984 178182656 179433072 
1009.070 181055360 183041936 185370128 188014208 190948688 194152144 
1011.963 197606336 201288976 205173664 209231600 213431056 217743136 
1014.856 222138016 226573040 230984176 235272864 239294448 242881232 
1017.748 245853504 248048000 249360016 249756224 249291760 248097360 
1020.641 246380032 244400128 242423824 240726240 239545248 239048112 
1023.534 239335872 240425408 242263472 244736160 247697936 250994592 
1026.427 254462064 257948704 261309984 264398304 267080672 269241056 
1029.320 270792352 271694784 271955488 271624864 270777152 269502208 
1032.213 267892368 266028784 263988144 261832832 259601168 257301296 
1035.106 254900240 252327712 249477008 246231056 242487696 238168592 
1037.999 233240624 227712704 221630688 215067712 208117968 200897872 
1040.892 193530560 186146960 178877040 171826768 165081488 158698912 
1043.785 152708176 147123536 141950832 137192976 132856400 128947992 
1046.678 125473144 122433840 119826016 117640544 115863904 114479808 
1049.571 113470032 112812256 112481312 112448264 112679824 113144096 
1052.464 113810168 114649376 115635736 116739608 117921304 119131168 
1055.357 120302408 121355336 122210720 122789952 123028416 122884696 
1058.250 122340384 121406120 120119824 118552008 116798480 114971480 
1061.144 113200680 111609952 110308040 109387832 108910608 108910264 
1064.037 109394256 110344952 111721872 113460824 115482992 117689200 
1066.930 119967112 122208960 124308856 126177552 127751856 128987264 
1069.823 129858496 130354840 130473272 130219368 129605176 128652680 
1072.716 127392096 125861152 124107912 122186704 120160640 118107576 
1075.609 116109896 114257240 112639664 111331512 110390240 109849528 
1078.502 109715736 109970520 110572744 111465120 112569288 113789496 
1081.395 115021960 116148592 117057848 117663392 117914008 117813168 
1084.288 117420168 116851304 116256408 115801432 115658440 115971648 
1087.181 116851472 118363936 120517472 123259088 126466288 129966824 
1090.074 133530392 136894064 139811360 142056064 143464096 143955296 
1092.967 143528048 142258160 140273696 137747648 134863952 131792840 
1095.860 128689184 125665904 122792896 120101520 117587104 115218608 
1098.753 112946704 110716040 108469808 106154776 103731352 101174896 
1101.646 98482416 95673928 92794616 89909968 87092992 84423448 81974648 
1105.022 79803896 77957528 76465608 75344256 74600808 74234712 74239936 
1108.397 74604824 75312760 76341320 77659200 79229024 81004232 82925544 
1111.772 84926376 86926272 88832352 90553192 91996304 93082552 93758176 
1115.147 93994584 93792296 93176328 92192712 90901208 89365696 87655664 
1118.523 85834824 83956832 82066376 80194648 78361816 76582184 74865712 
1121.898 73222504 71663288 70197784 68832976 67571728 66412108 65350160 
1125.273 64383520 63515784 62759908 62138628 61679416 61412776 61364268 
1128.648 61548216 61966436 62605336 63439004 64427024 65520352 66662596 
1132.024 67788568 68834760 69743512 70469992 70993920 71322040 71490328 
1135.399 71554592 71585032 71654152 71820064 72123144 72577160 73168624 
1138.774 73856712 74578416 75261304 75822648 76185424 76288152 76083608 
1142.149 75546672 74671360 73467848 71959176 70178112 68168456 65979056 
1145.525 63663960 61281728 58885360 56523660 54237640 52055776 49997596 
1148.900 48074204 46289544 44644436 43137916 41768964 40536772 39440484 
1152.275 38479224 37650952 36953600 36384900 35942756 35625128 35429580 
1155.650 35353304 35392664 35544388 35806436 36178896 36664324 37267296 
1159.026 37992340 38842864 39819452 40919504 42136976 43461856 44881536 
1162.401 46376728 47921076 49482368 51018928 52484208 53832380 55016804 
1165.776 55997320 56742188 57227132 57439244 57376584 57048708 56475168 
1169.151 55683784 54709308 53586332 52350032 51034132 49667552 48277748 
1172.527 46890236 45527012 44209396 42956152 41782168 40700056 39718508 
1175.902 38842896 38076716 37421808 36879112 36448892 36130460 35922708 
1179.277 35823668 35832448 35949376 36176772 36519240 36982068 37569908 
1182.652 38286088 39131636 40106660 41211412 42446908 43815324 45318244 
1186.028 46954172 48716068 50589852 52550992 54565316 56590008 58569776 
1189.403 60442548 62143640 63607372 64781284 65631984 66151076 66357052 
1192.778 66292480 66018248 65598616 65096728 64566016 64041332 63541860 
1196.153 63071236 62621028 62175600 61716232 61225872 60688436 60090780 
1199.529 59421672 58669396 57822412 56870060 55804256 54623780 53336420 
1202.904 51962252 50530404 49077628 47645000 46269016 44980604 43801580 
1206.279 42742660 41805916 40986972 40277892 39668736 39149656 38711572 
1209.654 38345436 38043444 37799416 37609508 37472984 37392228 37371972 
1213.030 37417544 37534176 37725756 37994692 38342544 38770000 39276876 
1216.405 39861400 40519240 41243728 42025848 42855756 43724660 44625780 
1219.780 45554316 46507444 47483480 48481236 49501420 50548048 51629820 
1223.155 52760044 53957412 55241948 56632364 58144236 59786176 61558444 
1226.531 63451508 65445572 67508280 69591840 71638360 73577344 75329560 
1229.906 76820616 77980008 78750880 79098816 79014032 78517656 77661096 
1233.281 76530448 75238056 73906872 72673360 71665288 70992088 70750168 
1236.656 71011136 71826088 73230976 75245776 77876648 81112096 84922024 
1240.031 89249664 94004008 99069912 104296672 109503312 114500768 119080136 
1243.407 123035056 126190576 128404216 129595224 129752024 128932104 
1246.300 127251328 124862448 121954888 118724648 115359680 112040136 
1249.193 108903240 106035568 103462872 101144664 98981888 96831904 94549424 
1252.568 92005312 89117512 85871368 82317208 78563472 74743568 71007264 
1255.943 67488352 64282044 61446860 58995876 56905224 55121032 53573256 
1259.319 52187316 50886880 49608044 48302188 46936640 45498204 43989308 
1262.694 42425240 40828348 39224828 37642024 36103348 34629776 33238620 
1266.069 31942158 30748736 29661986 28679912 27796548 27003046 26290468 
1269.444 25650830 25079178 24572574 24129222 23746788 23421550 23148416 
1272.820 22922326 22739018 22595226 22488400 22415406 22371658 22350796 
1276.195 22346192 22351354 22362274 22377204 22395660 22417882 22442968 
1279.570 22469068 22494158 22515968 22532894 22542840 22541442 22521098 
1282.945 22471196 22379226 22235136 22035596 21786252 21501994 21204908 
1286.321 20921480 20675556 20487428 20372194 20339242 20395530 20546132 
1289.696 20794452 21142076 21587194 22124074 22741880 23425118 24154370 
1293.071 24903306 25641166 26333840 26943708 27437308 27790966 27993948 
1296.446 28052476 27987516 27832296 27622894 27394956 27179486 26998778 
1299.822 26868868 26799822 26795346 26853606 26965356 27115926 27283802 
1303.197 27445250 27578722 27665196 27692034 27652518 27544124 27368454 
1306.572 27130034 26837850 26504760 26147680 25787198 25442478 25129730 
1309.947 24860256 24639654 24469852 24352120 24288308 24282212 24338138 
1313.323 24458460 24642952 24887870 25188188 25539492 25939580 26389046 
1316.698 26889454 27442002 28045230 28695840 29389402 30122390 30892478 
1320.073 31697828 32534712 33393956 34260576 35112184 35920544 36657728 
1323.448 37297840 37822152 38224680 38513872 38715772 38869604 39028568 
1326.823 39249528 39580744 40056552 40684700 41445696 42292388 43162580 
1330.199 43993012 44727508 45332624 45799276 46142272 46393432 46595816 
1333.574 46797524 47041672 47366956 47802840 48366036 49060932 49877676 
1336.949 50796552 51788632 52822196 53868540 54900944 55898236 56844000 
1340.324 57724876 58530756 59254312 59889080 60428576 60863328 61178036 
1343.700 61352592 61362436 61181544 60789156 60172216 59328868 58267708 
1347.075 57008128 55577988 54009336 52341288 50616952 48881052 47184484 
1350.450 45580148 44117880 42846612 41805516 41020656 40506692 40265348 
1353.825 40288868 40560020 41053432 41732884 42546772 43434684 44326400 
1357.201 45148876 45840592 46351732 46651152 46728260 46591388 46267464 
1360.576 45796332 45236752 44661472 44148468 43779920 43623060 43716196 
1363.951 44066828 44650936 45425356 46334296 47322540 48335888 49316900 
1367.326 50210632 50961020 51514340 51829360 51879168 51655120 51166780 
1370.702 50439628 49513784 48437672 47273880 46096180 44981744 44013068 
1374.077 43259384 42762988 42534820 42553312 42779112 43167264 43683548 
1377.452 44310804 45049036 45912216 46923976 48114108 49512376 51146388 
1380.827 53031796 55159100 57476080 59872764 62194032 64237244 65787332 
1384.203 66659584 66706060 65852216 64112028 61612092 58586948 55336332 
1387.578 52187880 49398384 47112464 45365288 44104712 43236108 42650936 
1390.953 42255392 41970736 41733068 41495236 41220192 40883680 40478172 
1394.328 40012732 39510520 38998264 38497292 38016028 37551228 37094688 
1397.704 36641400 36195860 35775024 35403016 35102272 34886424 34755604 
1401.079 34699324 34702268 34751296 34839248 34967076 35143044 35380872 
1404.454 35695408 36097264 36590536 37170696 37826996 38544976 39309988 
1407.829 40111056 40939564 41790120 42659084 43542760 44437668 45340276 
1411.205 46247376 47154976 48056292 48938384 49782876 50566400 51265016 
1414.580 51862740 52354668 52749124 53064368 53324952 53558408 53791728 
1417.955 54056056 54386636 54815756 55368024 56047568 56834556 57691612 
1421.330 58575500 59449940 60289376 61088132 61860208 62635644 63448972 
1424.706 64326228 65276524 66289932 67345248 68418488 69493304 70559248 
1428.081 71609680 72636464 73623712 74548088 75385240 76117720 76744456 
1431.456 77282112 77763576 78227504 78707536 79230424 79814928 80480968 
1434.831 81261440 82208896 83393904 84891208 86741168 88931072 91397800 
1438.207 94047656 96776712 99472520 102021832 104287448 106115688 107368024 
1441.582 107925280 107718784 106739200 105029008 102670800 99765680 96431736 
1444.957 92782840 88917848 84932544 80918432 76977208 73240664 69851216 
1448.332 66938704 64589044 62820360 61593648 60838856 60490268 60500856 
1451.708 60844348 61504652 62455296 63648732 65025448 66513084 68043840 
1455.083 69568592 71051912 72480880 73859104 75208064 76546464 77879224 
1458.458 79203264 80506976 81779768 83016792 84220424 85395848 86543416 
1461.833 87655416 88706136 89648928 90429624 90995992 91324888 91436736 
1465.208 91396864 91288664 91176976 91095696 91041464 90989120 90902024 
1468.584 90742624 90470752 90030416 89344120 88311152 86821896 84803952 
1471.959 82272160 79360752 76284712 73264552 70447192 67879904 65544628 
1475.334 63409060 61465564 59746516 58310264 57207096 56462300 56064080 
1478.709 55976892 56162112 56597484 57285764 58250280 59519856 61112504 
1482.085 63025952 65239520 67725792 70461568 73440184 76666456 80143472 
1485.460 83859672 87763000 91741704 95633664 99213584 102214144 104369688 
1488.835 105431272 105230392 103731432 101059016 97481824 93330384 88929648 
1492.210 84511264 80193608 76016216 71960512 67994864 64116560 60364184 
1495.586 56824588 53614676 50838864 48555784 46763684 45420244 44463988 
1498.961 43838856 43505876 43438384 43615256 44015268 44611460 45372128 
1502.336 46263852 47244104 48262640 49257848 50137400 50779532 51035100 
1505.711 50748808 49827916 48303632 46337908 44140140 41871624 39606624 
1509.087 37356152 35109992 32870278 30658838 28523420 26522512 24702010 
1512.462 23090930 21691816 20487186 19450936 18556388 17782130 17111014 
1515.837 16531002 16035197 15620355 15287451 15037321 14865506 14759980 
1519.212 14699652 14657874 14612843 14557710 14509983 14505084 14580050 
1522.588 14751376 15007617 15318787 15650377 15978886 16296359 16613755 
1525.963 16953466 17340168 17787446 18293932 18846752 19430700 20035802 
1529.338 20659676 21307034 21984356 22695970 23443652 24226712 25045478 
1532.713 25903034 26804298 27750380 28731768 29728580 30713032 31658054 
1536.089 32535888 33322506 33999424 34550120 34965816 35245984 35402044 
1539.464 35451944 35414840 35310388 35154720 34961688 34742000 34497384 
1542.839 34219560 33890152 33491440 33015118 32472610 31893410 31316050 
1546.214 30770112 30262656 29778504 29287944 28763030 28191120 27585466 
1549.590 26980938 26422074 25940072 25540018 25203566 24901344 24609392 
1552.965 24319808 24044884 23808632 23632752 23521192 23454564 23393016 
1556.340 23287742 23085234 22737236 22217420 21544296 20802168 20114540 
1559.715 19587000 19252462 19080494 19012398 18992250 18978302 18941126 
1563.091 18865404 18750566 18610994 18471224 18357628 18288506 18265178 
1566.466 18273646 18290338 18293586 18271020 18225786 18176134 18149670 
1569.841 18171022 18250320 18382172 18550094 18735896 18923476 19099260 
1573.216 19252600 19371036 19443626 19464002 19439606 19395116 19369582 
1576.592 19402738 19514838 19700638 19937234 20198290 20463670 20724486 
1579.967 20983686 21252574 21544644 21869490 22229764 22619380 23026604 
1583.342 23435188 23826868 24182430 24479388 24695382 24810752 24812260 
1586.717 24699346 24486398 24206006 23902550 23627748 23434944 23366650 
1590.093 23453584 23711338 24138924 24717022 25404606 26142718 26850186 
1593.468 27433780 27807322 27896454 27658982 27093248 26238340 25165822 
1596.843 23959408 22706862 21478946 20325874 19282076 18366202 17586486 
1600.218 16943130 16429855 16035333 15746394 15552593 15448034 15431829 
1603.594 15505548 15669167 15916944 16237434 16611516 17015212 17422556 
1606.969 17802566 18121514 18346016 18442044 18382794 18153608 17755758 
1610.344 17209356 16551241 15832745 15103802 14405983 13764787 13185467 
1613.719 12658972 12168928 11699994 11244657 10808073 10408069 10069028 
1617.094 9811989 9644938 9561335 9544128 9572478 9623900 9677529 9716053 
1620.952 9726523 9704804 9657337 9601949 9561165 9554120 9589550 9662317 
1624.809 9759359 9865540 9971544 10073843 10174436 10277021 10384347 
1628.185 10496045 10610181 10724721 10839801 10957086 11078244 11201442 
1631.560 11320934 11425830 11502546 11538646 11525683 11463047 11361713 
1634.935 11245338 11143374 11082663 11076987 11123181 11206916 11309745 
1638.310 11415320 11509759 11582746 11628961 11648021 11645910 11631820 
1641.686 11615722 11603369 11593296 11576417 11538238 11463285 11339673 
1645.061 11165540 10952295 10726011 10520383 10366327 10282416 10269252 
1648.436 10313834 10395139 10491360 10578333 10628924 10613848 10501272 
1651.811 10270778 9935675 9565975 9270238 9130059 9156825 9301177 9499286 
1655.669 9698807 9869371 9999617 10089341 10145301 10175624 10185834 
1659.044 10176675 10144826 10085000 9993785 9872048 9726523 9568583 9412901 
1662.901 9274029 9161495 9079440 9025275 8991751 8967632 8939457 8893189 
1666.759 8815040 8694950 8530018 8327959 8107056 7891798 7707169 7568303 
1670.616 7477514 7425436 7397124 7375184 7343337 7288714 7202565 7082821 
1674.474 6937453 6786211 6655074 6564980 6523540 6522093 6542140 6561650 
1678.331 6562962 6538171 6488829 6424259 6355731 6288961 6219278 6131056 
1682.188 6002233 5815148 5568501 5291572 5037847 4862637 4791440 4809296 
1686.046 4878016 4957740 5021724 5055915 5058395 5034495 4993568 4944938 
1689.903 4896480 4854327 4823134 4805142 4799078 4799179 4793517 4765175 
1693.761 4697277 4578187 4411195 4219341 4041484 3914249 3850662 3836120 
1697.618 3836288 3814927 3741696 3605762 3423247 3240407 3112873 3073462 
1701.476 3116711 3209196 3313487 3399135 3449964 3461654 3439210 3394861 
1705.333 3344305 3303170 3280835 3280267 3298830 3330716 3369248 3408352 
1709.190 3443318 3472075 3494320 3511422 3525618 3537911 3548300 3555349 
1713.048 3556986 3551607 3538178 3516566 3486370 3446625 3395963 3334956 
1716.905 3269518 3211599 3177486 3181058 3226721 3307911 3409655 3514862 
1720.763 3608335 3679806 3726557 3751923 3763487 3769637 3776455 3785780 
1724.620 3795708 3802460 3802827 3795975 3782371 3762819 3737485 3705436 
1728.478 3666038 3620129 3571017 3522812 3477853 3433499 3381270 3307344 
1732.335 3197213 3044098 2857349 2667680 2515218 2432509 2425245 2474495 
1736.192 2548612 2618375 2663812 2674548 2651144 2602475 2543813 2491023 
1740.050 2454668 2438873 2441272 2457100 2481659 2512485 2547745 2586275 
1743.907 2626276 2665779 2703086 2737495 2769106 2798185 2825131 2849311 
1747.765 2869656 2885566 2897341 2906747 2917188 2932866 2957519 2993950 
1751.622 3042863 3102394 3169309 3238037 3301735 3352853 3383106 3386379 
1755.479 3361001 3311183 3246883 3181558 3126589 3085808 3055643 3026113 
1759.337 2986543 2928930 2851812 2761237 2669980 2592709 2539947 2516017 
1763.194 2517850 2537780 2566643 2596975 2622142 2637243 2638643 2624742 
1767.052 2597008 2560111 2521183 2486991 2460466 2439273 2416816 2385364 
1770.909 2339922 2283294 2226540 2186976 2179183 2208855 2269971 2349350 
1774.767 2432976 2509852 2575409 2630209 2676915 2718223 2753701 2780711 
1778.624 2795851 2797918 2790081 2778877 2773208 2779077 2797418 2823230 
1782.481 2848577 2866588 2873892 2872525 2867988 2867555 2875893 2893538 
1786.339 2917355 2942774 2965459 2982907 2993750 2996552 2988312 2965125 
1790.196 2922692 2859917 2780611 2694951 2617409 2560511 2530915 2526349 
1794.054 2538480 2556411 2571143 2577376 2573310 2559044 2535814 2504520 
1797.911 2465764 2421147 2373970 2328996 2291921 2267672 2257614 2260112 
1801.769 2270137 2282927 2294852 2304845 2313273 2321767 2331028 2340655 
1805.626 2349383 2356479 2361676 2365941 2370172 2374536 2377868 2378001 
1809.483 2373003 2362776 2349950 2338989 2334992 2341322 2357778 2381566 
1813.341 2408586 2435075 2460033 2485091 2513451 2548079 2589675 2636643 
1817.198 2684516 2729426 2768139 2799886 2825398 2846242 2863452 2876494 
1821.056 2883999 2884199 2875593 2857649 2830868 2797385 2760503 2724525 
1824.913 2694484 2674814 2667246 2670147 2678015 2682849 2676315 2653178 
1828.771 2614009 2567410 2527815 2510085 2524449 2571776 2643110 2724325 
1832.628 2801753 2866221 2914453 2949279 2976935 3003959 3034722 3070525 
1836.485 3110770 3155124 3204623 3262207 3331183 3412894 3505443 3603591 
1840.343 3699588 3785848 3857047 3910771 3948520 3975571 4001387 4037102 
1844.200 4093960 4180599 4299479 4446878 4613683 4787319 4954858 5104357 
1848.058 5228353 5323872 5393043 5439912 5469640 5485108 5486283 5471687 
1851.915 5439946 5391265 5328635 5256389 5178120 5095506 5007679 4912096 
1855.772 4806851 4692856 4573365 4453975 4339872 4233494 4134066 4038574 
1859.630 3943738 3848255 3753728 3663299 3580906 3508182 3444621 3388015 
1863.487 3336358 3289215 3247651 3213469 3186565 3164403 3142008 3113941 
1867.345 3077700 3035522 2995751 2968961 2963690 2982707 3021075 3069090 
1871.202 3116611 3156159 3185697 3206492 3222014 3234899 3246049 3253527 
1875.060 3255329 3249988 3238037 3221614 3202987 3182860 3160498 3133431 
1878.917 3099791 3059147 3013268 2965125 2917288 2871124 2825131 2777210 
1882.774 2725759 2671514 2617475 2567943 2526449 2493689 2467263 2442605 
1886.632 2415216 2383032 2347418 2311940 2281329 2259579 2248155 2247189 
1890.489 2255382 2271403 2294686 2323832 2356246 2388296 2414950 2432642 
1894.347 2441239 2445104 2450269 2464264 2491223 2530448 2576976 2624042 
1898.204 2666646 2703086 2735695 2768840 2805955 2847977 2891904 2933633 
1902.062 2969262 2997987 3022276 3045899 3072060 3100859 3129726 3154156 
1905.919 3170210 3176952 3176051 3171478 3166339 3161900 3156526 3147515 
1909.776 3132830 3112839 3090280 3068990 3051939 3039660 3030351 3020641 
1913.634 3008029 2991114 2969896 2945109 2916120 2880963 2837471 2785480 
1917.491 2727893 2671814 2625276 2593442 2575909 2565543 2551978 2524949 
1921.349 2479260 2416283 2344686 2276166 2220312 2182314 2160569 2150512 
1925.206 2146983 2148348 2156206 2173089 2200197 2234599 2269238 2296318 
1929.063 2310441 2310341 2300015 2285526 2271769 2260378 2248921 2232734 
1932.921 2209088 2178617 2145218 2114119 2089081 2069438 2051793 2031453 
1936.778 2005755 1976629 1949502 1930065 1921346 1920813 1921945 1917086 
1940.636 1902243 1878815 1854889 1840847 1843608 1864506 1897584 1933793 
1944.493 1965345 1989877 2009616 2029889 2054423 2081823 2106327 2119812 
1948.351 2116749 2096472 2064611 2029522 1999263 1977528 1962916 1951067 
1952.208 1938885 1925240 1913492 1907867 1910363 1918084 1924641 1921013 
1956.065 1901411 1865870 1820250 1773737 1734680 1706537 1686945 1669848 
1959.923 1649293 1623218 1595182 1571438 1558103 1558170 1571072 1593253 
1963.780 1622020 1654648 1690670 1728426 1763589 1788509 1795362 1779326 
1967.638 1741666 1690770 1639681 1598208 1571970 1557904 1547928 1532665 
1971.495 1508160 1476308 1445589 1425144 1420158 1430264 1450775 1477671 
1975.353 1511352 1559367 1632164 1737208 1872326 2023830 2169593 2288290 
1979.210 2365274 2397258 2391127 2359644 2314006 2262077 2207057 2149746 
1983.067 2092577 2041074 2001860 1981289 1980557 1994970 2015641 2033550 
1986.925 2042605 2043271 2040774 2040342 2046034 2057553 2070004 2079193 
1990.782 2082955 2083388 2085585 2095174 2113120 2136427 2158604 2173889 
1994.640 2179916 2179450 2178184 2182247 2194535 2212352 2229770 2241693 
1998.497 2245091 2242459 2239162 2240594 2248288 2259845 2268771 2268105 
2002.354 2255615 2232501 2204193 2177551 2155774 2138359 2122010 2102998 
2006.212 2081090 2060083 2046167 2043804 2053025 2068406 2080691 2083421 
2010.069 2073966 2056188 2038244 2028391 2029988 2042006 2058651 2073400 
2013.927 2082988 2089314 2095040 2104929 2119513 2136228 2149713 2157039 
2017.784 2158537 2159037 2165197 2181481 2207556 2239595 2270270 2294552 
2021.642 2312440 2328096 2347185 2373437 2404188 2431676 2446304 2440806 
2025.499 2413784 2371271 2323733 2281362 2250819 2233334 2225374 2223942 
2029.356 2227505 2236997 2255349 2284027 2321034 2362109 2403988 2444938 
2033.214 2488790 2541546 2606675 2683516 2764271 2836570 2890236 2920423 
2037.071 2931165 2934501 2944942 2972264 3020141 3083873 3154290 3222081 
2040.929 3283105 3337226 3388182 3439144 3489510 3534905 3570315 3590093 
2044.786 3594035 3584881 3568177 3549670 3534003 3522545 3515831 3514562 
2048.644 3518436 3526988 3537377 3543089 3536608 3511689 3467299 3409020 
2052.501 3348980 3302569 3282204 3293021 3330682 3382438 3433433 3470605 
2056.358 3488007 3487172 3474379 3456310 3437975 3421410 3405814 3391822 
2060.216 3382639 3382171 3395863 3425518 3469503 3521443 3573990 3621131 
2064.073 3660492 3693406 3722012 3748280 3771041 3786984 3792466 3786449 
2067.931 3771308 3752258 3735447 3724685 3720709 3720341 3719706 3715395 
2071.788 3707408 3697917 3689162 3682646 3676431 3665871 3647761 3621265 
2075.646 3589124 3557888 3534136 3521610 3519505 3522812 3523982 3517902 
2079.503 3502770 3480792 3457212 3437407 3423915 3417102 3414764 3414397 
2083.360 3415098 3416835 3420408 3425417 3429425 3429024 3420408 3402608 
2087.218 3376862 3347277 3318929 3294657 3274459 3255663 3233631 3205458 
2091.075 3170945 3132897 3097088 3069157 3053174 3050771 3061683 3082939 
2094.933 3111238 3142942 3173448 3197814 3211800 3212668 3201085 3181458 
2098.790 3161098 3147381 3145546 3156192 3174983 3196312 3213903 3226020 
2102.647 3234866 3246550 3266580 3298663 3341701 3391054 3440647 3485936 
2106.505 3525284 3560393 3594069 3628281 3662463 3694442 3720943 3740293 
2110.362 3753294 3762685 3772244 3784878 3800855 3818771 3837090 3854640 
2114.220 3872191 3892116 3915419 3941799 3968348 3990518 4003660 4006068 
2118.077 3999046 3986806 3974869 3967546 3966610 3971357 3979617 3988579 
2121.935 3997441 4005633 4012690 4017873 4019244 4014228 4001487 3981757 
2125.792 3956578 3929528 3902112 3873829 3841302 3799785 3745406 3677600 
2129.649 3599347 3515931 3433600 3356526 3285810 3220813 3160798 3105965 
2133.507 3059580 3025846 3007295 3002791 3007429 3013034 3012500 3003025 
2137.364 2985876 2966593 2950713 2940672 2934701 2927962 2915620 2896207 
2141.222 2873358 2854547 2847810 2856815 2879395 2907848 2932332 2943975 
2145.079 2938437 2916287 2881297 2837204 2786847 2731194 2670714 2608175 
2148.937 2548545 2496622 2456167 2426012 2399657 2367973 2322267 2257813 
2152.794 2176253 2082855 1983985 1883041 1781189 1678130 1577490 1491835 
2156.651 1440536 1449711 1539382 1715020 1961484 2246389 2530981 2779477 
2160.509 2973966 3111604 3203789 3266513 3315323 3359865 3405247 3452703 
2164.366 3501134 3549202 3594002 3629785 3650935 3651470 3628549 3585616 
2168.224 3530529 3474045 3425818 3391254 3368413 3350983 3330549 3299965 
2172.081 3258468 3209830 3160798 3119047 3089679 3073795 3070091 3075931 
2175.938 3087544 3102761 3118379 3131028 3137169 3134599 3122885 3105731 
2179.796 3089880 3081270 3085742 3104530 3134065 3168308 3201986 3231227 
2183.653 3256364 3279934 3303972 3329313 3354523 3375626 3389919 3396497 
2187.511 3397232 3395662 3395629 3399870 3409621 3425384 3447326 3476417 
2191.368 3513893 3560026 3611976 3665838 3714994 3754463 3782705 3801824 
2195.226 3816198 3831574 3850060 3870252 3886767 3893487 3886299 3865504 
2199.083 3836154 3805702 3781970 3770105 3770807 3782705 3802359 3826827 
2202.940 3854372 3884092 3913914 3940963 3962263 3975203 3979650 3979416 
2206.798 3979149 3984800 3998879 4020080 4042822 4060948 4068975 4065363 
2210.655 4052620 4036467 4022555 4014997 4014763 4020013 4027905 4036032 
2214.513 4043156 4049410 4055463 4061249 4067169 4073658 4081250 4092656 
2218.370 4110183 4134702 4165277 4197628 4225497 4242762 4245706 4233259 
2222.228 4208401 4175915 4140188 4104898 4071852 4041049 4012522 3987341 
2226.085 3966308 3950459 3940395 3934410 3930531 3926452 3920701 3913479 
2229.942 3906124 3899705 3894891 3891213 3887101 3881852 3876136 3871956 
2233.800 3872759 3880448 3896094 3918395 3945276 3974200 4003493 4032989 
2237.657 4062788 4091886 4119047 4140288 4152598 4154538 4147413 4134936 
2241.515 4122626 4116003 4117207 4126774 4142730 4162601 4185450 4210943 
2245.372 4240085 4272877 4307544 4340541 4367817 4386293 4395162 4396936 
2249.229 4395865 4395865 4400049 4409220 4422643 4439313 4459331 4483568 
2253.087 4513499 4548654 4586358 4620950 4646670 4658258 4653971 4635785 
2256.944 4609095 4579392 4551869 4528799 4510352 4495855 4484606 4477208 
2260.802 4474764 4478547 4488021 4501881 4517583 4532616 4546746 4561077 
2264.659 4577651 4598379 4623194 4649918 4675372 4696239 4710909 4719752 
2268.517 4724944 4729031 4733385 4738544 4743468 4747421 4751072 4755460 
2272.374 4763065 4775627 4792746 4812714 4832481 4849435 4862268 4872052 
2276.231 4880697 4890649 4903316 4918496 4934783 4950937 4966353 4981570 
2280.089 4997490 5014919 5033154 5051021 5066843 5079549 5090645 5102982 
2283.946 5120115 5145059 5178120 5217253 5258301 5296301 5327461 5350070 
2287.804 5364226 5371103 5372814 5371304 5368117 5364863 5363924 5367614 
2291.661 5377879 5395995 5420821 5450179 5480545 5509168 5534404 5556990 
2295.519 5578603 5601426 5626902 5655065 5684472 5713814 5741747 5768306 
2299.376 5794362 5820891 5848730 5877277 5905288 5931017 5953052 5970688 
2303.233 5984394 5994909 6003006 6009221 6014227 6018057 6021349 6025213 
2307.091 6030353 6037274 6045371 6053704 6060592 6065497 6068521 6070974 
2310.948 6074603 6081256 6091437 6104744 6119765 6134853 6148867 6161772 
2314.806 6174005 6186609 6200624 6215951 6232454 6249732 6267312 6285297 
2318.663 6304325 6324463 6346417 6370256 6396113 6423653 6452171 6479647 
2322.521 6502585 6516375 6516005 6497035 6457989 6400686 6331019 6256387 
2326.378 6185533 6125713 6080954 6051587 6035393 6028337 6026758 6027833 
2330.235 6031193 6036602 6044464 6054577 6066169 6078232 6090362 6102727 
2334.093 6116169 6131392 6148800 6167821 6187718 6207413 6227009 6246707 
2337.950 6267749 6290709 6315654 6341811 6367566 6391843 6413968 6434347 
2341.808 6453550 6471912 6488358 6500601 6506150 6503459 6492932 6478268 
2345.665 6465421 6462192 6475309 6509850 6567638 6647941 6747037 6859318 
2349.522 6978159 7096191 7205765 7301215 7378723 7438008 7481727 7515472 
2353.380 7545106 7575350 7609001 7646229 7685854 7726631 7768490 7812479 
2357.237 7860116 7912887 7970997 8033503 8098751 8165057 8231406 8297731 
2361.095 8364236 8430582 8496127 8558945 8617749 8671085 8718783 8761584 
2364.952 8800060 8834855 8865796 8891769 8911993 8925725 8932997 8933977 
2368.810 8929412 8918690 8901611 8877667 8847333 8812301 8775514 8740555 
2372.667 8711278 8690285 8679266 8678759 8689069 8710805 8744476 8791337 
2376.524 8851728 8925759 9012859 9111482 9220754 9339871 9468705 9606962 
2380.382 9753870 9907641 10065433 10223826 10379155 10528971 10671131 
2383.757 10804811 10928986 11042624 11143986 11231363 11303113 11358617 
2387.132 11398141 11422701 11433790 11432294 11418823 11393685 11356815 
2390.508 11308928 11251322 11185463 11112847 11034467 10950970 10862835 
2393.883 10771151 10677821 10585973 10498759 10419370 10349666 10290185 
2397.258 10240550 10199843 10167686 10144860 10133057 10134040 10149507 
2400.633 10179626 10223792 10280516 10347799 10424461 10509113 10601387 
2404.009 10701050 10808039 10922938 11046499 11180600 11326953 11487236 
2407.384 11662316 11851119 12051621 12260942 12476296 12695784 12918624 
2410.759 13144448 13373089 13603423 13832921 14058161 14275162 14480384 
2414.134 14670725 14843939 14997876 15130700 15240502 15325617 15385379 
2417.510 15420088 15431829 15423418 15398356 15359634 15309690 15249870 
2420.885 15181548 15105621 15023532 14936761 14847196 14756586 14666579 
2424.260 14579194 14496450 14420951 14355739 14303548 14266978 14247838 
2427.635 14247324 14266190 14305124 14364917 14446333 14549349 14673501 
2431.010 14816785 14976680 15150461 15335777 15531165 15736226 15950903 
2434.386 16174871 16407866 16649595 16899828 17160304 17433320 17722140 
2437.761 18029700 18357940 18706700 19074470 19459806 19861408 20279592 
2441.136 20716390 21174118 21654618 22158104 22682634 23224574 23780596 
2444.511 24347670 24924676 25511870 26110766 26722506 27347456 27984618 
2447.887 28631668 29285074 29940208 30592136 31235788 31866416 32480110 
2451.262 33074432 33648088 34200808 34732664 35242932 35729476 36188260 
2454.637 36613820 36999640 37339000 37625080 37852268 38015160 38109164 
2458.012 38130652 38076864 37946200 37738044 37452472 37090212 36652176 
2461.388 36139788 35555068 34901432 34183996 33409454 32586138 31723778 
2464.763 30832678 29922742 29004756 28088068 27182342 26296912 25440194 
2468.138 24619878 23842198 23111234 22429362 21797226 21214962 20681394 
2471.513 20196034 19758058 19365840 19016414 18705836 18428286 18178380 
2474.889 17950546 17741228 17548260 17370688 17208218 17059630 16923218 
2478.264 16796150 16675623 16559055 16444825 16332069 16220614 16110359 
2481.639 16001023 15892610 15785117 15679231 15576359 15478455 15387405 
2485.014 15304577 15230790 15166176 15110012 15062053 15021783 14988445 
2488.390 14961419 14939368 14920335 14902709 14885290 14867700 14850590 
2491.765 14835744 14825013 14820008 14821482 14829230 14842601 14859985 
2495.140 14879701 14900480 14920575 14938716 14953703 14964780 14971605 
2498.515 14974417 14973971 14970816 14965432 14958126 14948695 14937481 
2501.891 14924998 14911899 14899520 14888890 14880523 14874180 14869037 
2505.266 14864271 14859024 14853333 14847642 14842533 14838796 14836258 
2508.641 14834545 14832316 14828201 14820522 14807837 14788639 14761591 
2512.016 14725804 14680562 14626277 14563980 14495629 14423280 14348890 
2515.392 14273826 14198468 14122917 14046970 13971171 13896413 13824404 
2518.767 13756854 13695057 13639527 13590192 13545922 13505827 13468605 
2522.142 13434019 13401691 13371791 13345173 13322759 13306223 13297579 
2525.517 13298331 13309503 13330344 13358841 13391576 13425100 13456335 
2528.893 13483815 13508014 13530506 13553511 13578774 13607218 13638775 
2532.268 13672728 13708668 13746046 13784966 13825635 13867711 13910337 
2535.643 13952489 13993448 14033383 14073254 14115353 14161941 14214764 
2539.018 14274648 14340876 14412011 14486071 14561376 14636660 14711443 
2542.394 14785348 14858441 14930417 15001168 15070286 15137699 15203235 
2545.769 15267201 15329598 15390391 15449545 15507299 15563205 15617401 
2549.144 15669201 15718428 15764330 15806628 15845802 15882816 15919317 
2552.519 15956713 15996384 16038394 16081955 16125385 16166825 16205102 
2555.895 16239291 16269665 16296152 16318720 16336299 16347447 16350234 
2559.270 16343731 16327046 16301002 16266774 16225429 16177794 16124526 
2562.645 16065728 16001815 15933992 15863672 15792986 15723720 15657041 
2566.020 15593840 15533878 15477493 15424825 15376797 15334713 15299669 
2569.396 15272452 15253371 15242046 15237653 15239266 15246301 15257901 
2572.771 15273585 15292873 15315766 15342505 15374086 15411401 15455347 
2576.146 15505822 15561660 15620596 15680090 15737427 15791405 15842056 
2579.521 15890857 15939904 15990986 16045028 16101694 16160462 16220581 
2582.896 16281739 16344385 16409485 16477827 16549762 16625116 16703581 
2586.272 16784576 16867756 16953432 17041262 17130938 17221010 17309720 
2589.647 17395312 17476332 17552640 17624442 17693148 17759348 17823658 
2593.022 17885596 17944950 18001172 18055260 18108662 18163352 18221364 
2596.397 18283876 18351166 18422790 18497950 18576098 18657236 18741916 
2599.773 18830732 18924480 19022712 19125262 19231680 19341796 19455858 
2603.148 19574592 19698630 19828388 19963600 20103538 20246750 20392266 
2606.523 20538942 20686328 20834184 20983026 21132650 21282988 21433794 
2609.898 21583992 21731838 21875448 22011996 22139102 22254108 22355470 
2613.274 22442202 22514432 22572820 22618158 22651076 22672194 22681970 
2616.649 22681098 22670624 22652332 22627758 22599102 22567444 22533940 
2620.024 22499184 22463938 22428978 22395660 22365308 22339284 22318320 
2623.399 22302554 22291252 22283860 22280092 22279812 22283928 22293066 
2626.775 22308484 22330460 22359238 22394996 22437562 22487074 22544200 
2630.150 22608734 22680680 22759200 22843042 22930674 23020664 23112420 
2633.525 23205524 23300606 23397946 23498422 23602068 23709344 23820112 
2636.900 23934338 24052028 24172762 24296228 24421480 24547086 24671988 
2640.276 24795034 24915484 25033264 25148302 25261334 25372778 25482952 
2643.651 25592136 25700186 25806890 25912038 26015244 26116924 26217080 
2647.026 26316696 26417320 26520504 26628080 26741252 26860832 26986720 
2650.401 27118112 27253956 27393192 27535474 27680560 27828834 27980906 
2653.777 28137206 28297980 28462988 28632270 28805268 28981944 29161990 
2657.152 29345156 29531382 29720170 29911348 30104884 30300812 30499426 
2660.527 30700620 30904538 31110512 31317580 31524890 31731300 31936132 
2663.902 32138884 32339626 32538280 32735456 32931540 33127498 33324118 
2667.278 33522330 33723140 33927260 34134676 34345268 34558516 34773696 
2670.653 34990164 35207536 35425484 35643936 35862532 36080880 36298764 
2674.028 36515888 36731572 36945592 37157268 37365292 37568316 37764392 
2677.403 37952492 38132060 38303744 38469632 38632792 38796668 38964952 
2680.779 39140700 39326820 39525472 39738880 39968812 40217112 40484684 
2684.154 40772076 41078672 41403452 41744744 42100864 42470692 42853268 
2687.529 43247712 43653616 44070272 44496660 44932096 45375548 45826636 
2690.904 46284972 46750548 47223380 47703052 48189996 48684304 49186412 
2694.280 49696824 50216288 50745340 51283992 51831828 52388384 52952548 
2697.655 53523252 54100228 54682548 55270136 55862324 56458980 57059324 
2701.030 57662736 58268508 58875196 59481400 60084536 60682188 61270704 
2704.405 61847408 62408660 62951944 63473828 63971220 64440012 64875692 
2707.781 65273488 65628864 65937980 66198268 66408364 66568196 66678552 
2711.156 66741332 66758684 66732840 66665880 66559196 66413188 66227444 
2714.531 66000692 65732120 65420532 65066128 64670028 64234136 63760884 
2717.906 63252956 62713160 62144404 61549892 60934272 60302280 59659876 
2721.281 59013104 58367340 57727788 57098664 56483732 55886740 55311532 
2724.657 54761476 54240236 53750776 53295284 52875148 52491088 52143340 
2728.032 51832236 51557844 51320428 51119888 50955472 50826312 50730968 
2731.407 50668000 50635940 50633448 50659140 50711824 50789884 50891612 
2734.782 51015124 51158576 51319752 51496804 51687404 51889472 52099816 
2738.158 52315196 52532592 52749308 52962916 53171984 53374968 53570552 
2741.533 53756964 53932460 54095648 54245528 54382728 54509040 54627048 
2744.908 54740016 54850640 54961032 55072956 55186980 55303668 55423584 
2748.283 55546848 55673424 55803128 55934864 56067700 56200764 56334360 
2751.659 56469508 56608392 56753896 56909224 57077124 57259980 57459668 
2755.034 57678024 57915952 58174732 58454780 58756064 59077560 59417572 
2758.409 59773208 60140892 60516700 60895576 61272040 61640160 61993452 
2761.784 62325272 62630020 62902428 63138560 63335524 63491620 63605340 
2765.160 63676348 63704936 63691856 63638948 63549036 63425512 63272348 
2768.535 63094108 62895344 62680812 62456024 62225612 61994448 61767260 
2771.910 61547220 61336868 61137716 60950360 60774980 60611548 60460068 
2775.285 60320324 60191812 60073580 59963556 59858692 59755224 59647788 
2778.661 59530536 59397512 59242388 59060252 58847268 58602116 58325232 
2782.036 58020044 57691348 57344932 56986744 56622360 56256168 55891980 
2785.411 55532764 55180620 54837408 54504348 54181932 53870456 53569620 
2788.786 53278952 52998176 52726900 52465360 52213924 51972820 51742344 
2792.162 51522508 51312816 51112732 50921416 50738008 50561300 50390100 
2795.537 50222384 50055856 49888012 49716256 49538036 49351644 49155836 
2798.912 48950396 48735124 48511212 48279116 48039524 47791964 47535932 
2802.287 47270080 46992604 46702100 46397744 46079672 45749356 45408656 
2805.663 45060980 44709804 44358360 44010168 43668636 43336592 43016808 
2809.038 42711948 42424036 42154720 41904652 41674384 41463848 41273056 
2812.413 41101944 40950632 40819252 40707372 40614624 40540192 40482576 
2815.788 40440860 40414096 40402388 40406420 40427552 40467336 40527388 
2819.164 40609128 40713412 40840796 40991452 41165288 41361828 41580260 
2822.539 41819560 42078160 42354660 42647136 42953848 43272456 43600456 
2825.914 43934716 44271248 44605660 44932832 45247600 45544452 45818864 
2829.289 46066448 46283648 46468096 46618616 46735348 46819776 46874476 
2832.665 46902788 46908692 46896292 46870268 46835352 46796896 46760140 
2836.040 46730364 46712284 46709260 46723576 46756452 46808780 46882188 
2839.415 46979684 47105964 47267600 47472504 47728684 48045152 48430968 
2842.790 48895512 49449620 50105828 50876488 51774184 52807976 53980144 
2846.166 55282328 56692576 58173824 59670176 61112808 62424576 63521460 
2849.541 64329416 64789140 64863032 64542264 63845776 62818556 61520572 
2852.916 60023852 58404292 56730032 55064080 53458904 51952392 50572504 
2856.291 49335648 48246756 47302700 46492840 45802632 45213952 44708884 
2859.667 44270884 43884676 43538076 43221208 42926232 42648084 42383192 
2863.042 42130800 41891368 41667452 41462468 41279872 41123656 40997024 
2866.417 40903012 40843564 40820120 40832972 40881388 40963160 41074520 
2869.792 41210720 41365912 41533808 41707500 41880676 42047096 42201564 
2873.167 42340600 42462692 42569064 42663800 42752968 42844380 42945252 
2876.543 43062320 43200204 43361344 43546352 43754852 43985644 44237756 
2879.918 44510092 44801632 45111488 45437976 45779360 46133172 46496492 
2883.293 46866316 47238416 47608580 47971656 48322668 48657508 48972836 
2886.668 49267536 49541900 49798784 50042024 50276512 50507176 50739200 
2890.044 50976896 51224824 51488112 51772544 52085884 52438180 52840604 
2893.419 53307532 53853388 54492176 55236196 56093188 57064312 58140600 
2896.794 59302012 60515328 61732312 62897636 63948804 64823368 65472388 
2900.169 65861664 65980060 65839724 65474348 64933784 64272480 63548768 
2903.545 62814736 62112672 61477624 60935000 60502076 60191432 60010460 
2906.920 59963480 60052652 60278868 60643668 61149236 61799004 62597028 
2910.295 63546120 64646220 65891780 67269840 68760064 70332248 71946664 
2913.670 73559288 75117424 76567080 77859288 78949528 79806760 80415128 
2917.046 80774344 80898112 80809664 80538520 80112960 79557496 78891400 
2920.421 78126944 77271352 76328480 75301256 74193992 73015008 71775656 
2923.796 70492632 69186424 67877584 66588080 65337336 64140492 63009172 
2927.171 61950804 60968432 60062812 59232020 58472828 57780772 57150328 
2930.547 56575968 56051452 55571060 55129608 54722460 54345700 53996056 
2933.922 53670048 53365116 53078220 52806856 52548560 52301408 52063172 
2937.297 51832052 51605640 51382480 51161224 50942504 50727840 50521024 
2940.672 50326624 50149748 49994248 49862292 49753228 49663428 49585872 
2944.048 49511408 49428864 49326368 49193276 49021204 48805892 48548188 
2947.423 48254680 47937056 47609836 47289472 46990904 46725312 46499296 
2950.798 46314464 46167588 46052004 45959104 45879880 45804984 45726456 
2954.173 45637452 45532236 45406412 45257308 45082964 44882972 44657840 
2957.549 44409228 44139264 43851356 43549060 43236220 42916868 42594612 
2960.924 42272628 41953804 41640940 41336100 41042104 40761304 40496324 
2964.299 40249536 40022980 39818364 39637076 39480036 39348152 39241368 
2967.674 39159340 39100672 39062680 39041908 39034004 39034656 39040384 
2971.050 39048612 39058364 39069204 39082184 39098100 39118004 39142188 
2974.425 39170324 39200604 39229508 39251160 39257256 39236144 39175472 
2977.800 39062424 38885656 38637720 38316376 37925264 37473200 36973448 
2981.175 36442624 35897296 35353948 34826968 34327484 33863676 33440548 
2984.551 33059988 32721986 32424838 32167286 31948220 31767946 31627298 
2987.926 31527170 31465608 31437360 31430162 31426780 31404626 31338200 
2991.301 31205170 30988724 30681596 30288272 29824212 29314034 28784766 
2994.676 28264418 27775742 27333096 26943214 26605252 26313422 26059080 
2998.052 25833860 25630656 25444234 25270884 25108384 24954718 24808156 
3001.427 24667360 24531096 24398626 24269808 24145090 24025028 23910112 
3004.802 23801106 23698322 23601998 23512168 23429106 23352946 23283756 
3008.177 23221708 23166658 23118186 23075694 23038202 23004558 22973536 
3011.552 22944018 22915584 22888096 22862076 22838048 22816676 22798342 
3014.928 22783014 22770792 22761610 22756056 22754940 22759582 22771176 
3018.303 22790172 22816048 22847022 22880796 22914152 22944018 22967842 
3021.678 22983318 22989220 22984750 22969868 22945204 22912440 22873880 
3025.053 22832566 22791988 22755010 22724040 22700438 22684590 22675826 
3028.429 22672928 22674464 22678376 22682668 22685148 22684066 22677746 
3031.804 22665842 22648282 22626396 22601474 22575052 22548354 22522004 
3035.179 22496148 22471336 22447994 22427582 22411464 22401486 22398798 
3038.554 22404100 22417394 22437978 22465124 22497856 22535302 22576972 
3041.930 22621824 22669264 22718314 22768102 22818178 22867838 22916772 
3045.305 22964558 23010428 23053892 23094390 23132166 23167568 23202030 
3048.680 23236528 23272010 23308822 23346302 23383190 23418090 23449598 
3052.055 23476668 23499052 23516644 23529656 23538402 23543262 23545222 
3055.431 23545398 23545432 23546972 23551238 23558936 23570130 23584612 
3058.806 23601682 23620890 23641918 23664626 23688280 23712214 23734960 
3062.181 23755608 23773702 23789940 23805586 23823156 23844754 23871952 
3065.556 23905036 23943476 23985948 24031122 24077874 24125860 24175214 
3068.932 24225836 24277690 24330252 24382716 24434378 24484856 24534322 
3072.307 24583094 24632150 24682264 24734594 24789984 24849098 24912712 
3075.682 24980968 25053482 25129342 25206868 25284372 25360308 25433870 
3079.057 25504808 25573332 25640006 25704964 25768074 25829114 25887772 
3082.433 25944012 25998534 26052150 26105840 26160138 26215320 26270968 
3085.808 26326728 26382286 26437710 26493420 26550302 26608810 26669582 
3089.183 26732760 26798376 26866366 26936234 27007488 27079424 27151092 
3092.558 27221464 27290154 27357408 27424602 27493360 27566118 27644114 
3095.934 27727884 27816542 27908220 28000768 28092098 28181290 28267920 
3099.309 28352232 28435040 28516694 28597942 28679062 28761010 28844322 
3102.684 28929948 29018074 29108592 29200544 29292694 29383908 29473188 
3106.059 29560324 29645844 29730070 29813106 29895126 29975744 30054778 
3109.435 30132300 30208840 30285750 30363986 30444798 30528858 30616384 
3112.810 30707626 30802728 30901692 31004524 31110370 31217986 31325382 
3116.185 31430200 31531158 31627442 31719894 31810332 31900898 31993408 
3119.560 32088686 32186628 32285764 32385140 32483574 32580636 32676436 
3122.936 32771542 32866310 32960672 33054802 33148132 33240694 33332522 
3126.311 33424232 33516638 33610460 33706128 33804072 33903832 34004940 
3129.686 34106468 34207120 34305968 34401788 34494584 34584812 34673880 
3133.061 34763680 34856264 34953284 35055320 35161980 35272148 35384000 
3136.437 35496096 35607176 35716420 35823632 35928428 36030912 36130824 
3139.812 36228668 36324552 36419488 36514448 36609964 36706296 36803296 
3143.187 36900320 36996680 37092268 37187480 37283436 37381432 37483064 
3146.562 37589164 37699844 37814560 37931844 38050280 38168096 38284276 
3149.938 38397884 38509024 38618308 38726784 38835836 38947012 39060940 
3153.313 39177540 39296172 39415596 39534360 39651492 39766584 39879924 
3156.688 39992532 40105316 40219040 40334060 40450240 40567256 40684668 
3160.063 40802468 40920816 41040104 41160880 41283040 41406588 41530784 
3163.438 41654652 41777208 41897716 42015592 42131128 42245128 42358536 
3166.814 42472556 42588180 42705440 42823720 42941120 43055476 43164296 
3170.189 43266160 43359844 43446036 43525768 43600636 43672296 43741772 
3173.564 43809388 43874816 43937136 43995576 44049076 44097336 44140468 
3176.939 44179572 44215924 44251620 44288788 44328896 44372784 44420420 
3180.315 44470632 44521844 44572576 44622000 44669664 44716088 44762216 
3183.690 44808944 44856812 44906116 44956568 45007912 45059512 45111048 
3187.065 45161892 45211784 45260176 45307248 45353296 45399200 45445924 
3190.440 45494412 45544712 45596488 45648236 45698772 45747072 45793020 
3193.816 45837572 45882056 45927760 45975052 46023236 46070648 46115560 
3197.191 46156572 46193568 46227436 46259908 46292344 46325596 46359440 
3200.566 46392544 46423700 46451908 46477020 46499812 46521756 46544324 
3203.941 46568488 46595596 46625952 46659636 46696348 46735236 46774828 
3207.317 46812876 46847420 46876656 46900092 46918328 46933352 46947452 
3210.692 46962812 46980680 47000728 47022472 47044520 47066600 47088608 
3214.067 47111836 47136988 47164724 47194608 47225080 47254744 47281680 
3217.442 47305064 47325348 47343196 47360192 47377636 47396480 47417472 
3220.818 47440792 47466292 47494016 47523476 47554156 47585508 47616860 
3224.193 47647624 47678132 47708456 47739260 47771068 47804100 47838280 
3227.568 47872980 47907424 47941240 47973692 48005072 48035308 48065064 
3230.943 48094712 48125248 48157452 48192404 48230648 48272676 48318004 
3234.319 48365668 48414260 48462416 48509324 48554744 48598988 48642536 
3237.694 48685896 48729080 48772344 48815792 48860136 48906304 48955776 
3241.069 49009296 49066904 49127080 49187452 49244972 49297488 49343740 
3244.444 49384428 49421144 49456304 49491724 49528788 49567712 49608268 
3247.820 49650352 49694152 49740372 49789716 49842448 49898048 49954732 
3251.195 50010680 50063924 50113080 50157632 50198244 50235592 50270892 
3254.570 50304780 50337560 50369188 50399700 50429024 50457196 50484140 
3257.945 50509972 50534088 50556388 50576080 50592980 50607052 50618628 
3261.321 50628572 50637768 50647076 50657312 50668336 50679616 50689560 
3264.696 50696372 50698312 50693844 50682260 50664388 50641828 50616992 
3268.071 50592012 50568484 50547380 50528472 50510940 50493708 50476100 
3271.446 50457308 50437284 50415624 50392292 50366880 50339272 50309696 
3274.822 50278704 50247680 50217476 50189320 50163396 50139596 50116500 
3278.197 50092556 50066228 50035960 50001016 49961384 49918008 49872440 
3281.572 49827284 49784996 49747764 49717556 49694896 49679032 49668664 
3284.947 49661348 49654924 49647716 49638724 49628028 49615584 49602064 
3288.323 49587652 49572428 49556308 49539708 49522884 49506912 49492952 
3291.698 49482184 49475572 49474016 49477876 49487644 49502904 49523960 
3295.073 49549808 49579816 49612760 49647492 49683304 49720084 49758128 
3298.448 49798188 49841072 49886896 49935512 49986068 50037748 50089876 
3301.823 50142536 50196052 50251292 50309024 50369856 50433748 50500740 
3305.199 50570196 50641940 50715552 50791076 50867956 50946452 51025968 
3308.574 51106544 51188064 51270868 51355104 51441112 51528888 51618736 
3311.949 51710468 51804124 51900076 51998440 52098924 52201028 52303612 
3315.324 52405172 52504396 52600656 52694016 52785564 52877132 52969912 
3318.700 53065228 53162736 53261384 53359944 53456584 53550240 53640132 
3322.075 53726288 53808680 53887860 53964016 54037520 54108896 54178256 
3325.450 54245940 54311792 54375704 54437336 54496720 54554308 54611080 
3328.825 54668120 54725956 54784556 54843044 54899216 54950316 54993600 
3332.201 55027036 55049296 55059908 55059492 55049036 55029780 55003712 
3335.576 54972652 54938584 54902936 54866392 54828764 54788652 54744036 
3338.951 54693336 54635504 54570276 54498408 54420360 54336688 54246880 
3342.326 54149544 54043672 53928148 53803092 53669636 53529436 53384300 
3345.702 53235276 53082564 52925524 52763788 52596992 52425844 52251328 
3349.077 52074864 51897576 51719612 51540792 51360180 51177252 50991576 
3352.452 50803516 50613640 50422920 50232392 50043324 49856756 49674240 
3355.827 49497148 49326368 49162108 49004104 48851164 48701836 48554968 
3359.203 48410372 48268528 48131060 47999816 47875756 47759456 47650104 
3362.578 47546212 47445964 47347076 47248796 47150580 47052604 46955612 
3365.953 46860928 46769736 46683580 46603452 46529940 46462604 46400400 
3369.328 46341336 46282948 46222796 46159076 46090508 46016900 45938364 
3372.704 45855320 45767948 45675840 45578124 45473700 45361020 45238700 
3376.079 45106196 44963072 44809604 44646676 44475112 44296052 44109880 
3379.454 43916456 43715060 43504708 43284020 43052112 42808620 42553168 
3382.829 42286324 42008260 41719684 41421276 41114184 40799884 40480868 
3386.205 40159540 39838484 39519372 39203504 38890332 38579052 38267916 
3389.580 37954988 37638848 37319104 36996284 36672188 36349556 36031776 
3392.955 35721632 35420956 35129824 34846532 34567484 34288540 34005872 
3396.330 33717480 33423264 33125602 32828252 32535032 32248468 31969726 
3399.706 31697794 31430698 31166292 30903186 30640632 30379124 30118910 
3403.081 29860342 29602994 29346008 29088644 28830794 28572994 28316724 
3406.456 28063538 27814810 27570884 27331542 27095718 26862382 26630512 
3409.831 26399470 26169042 25939614 25711118 25484146 25259298 25037474 
3413.207 24819908 24607848 24402132 24203274 24010636 23823332 23639818 
3416.582 23458586 23278722 23099876 22921976 22745198 22570096 22396914 
3419.957 22226418 22059334 21896740 21739886 21589598 21445804 21307660 
3423.332 21173734 21041832 20910042 20777282 20642790 20506670 20369520 
3426.708 20232342 20095486 19959922 19825926 19694086 19564748 19437976 
3430.083 19313772 19191160 19068964 18946284 18822324 18697050 18571120 
3433.458 18445778 18322444 18202012 18084828 17970988 17859702 17750720 
3436.833 17643318 17537736 17433490 17330582 17228352 17126354 17023860 
3440.208 16920498 16816502 16712466 16609279 16508149 16409209 16312355 
3443.584 16216591 16119918 16020792 15917666 15810132 15698813 15586216 
3446.959 15475399 15369932 15272899 15185700 15107747 15036704 14969101 
3450.334 14900823 14828784 14751376 14668497 14581181 14491484 14400640 
3453.709 14309507 14218017 14125622 14032151 13938085 13844552 13753193 
3457.085 13665001 13580483 13498956 13418640 13337588 13254432 13168560 
3460.460 13080384 12991303 12902684 12815960 12731778 12650410 12571683 
3463.835 12495563 12421911 12350623 12281529 12214012 12147699 12081771 
3467.210 12015683 11949264 11882788 11816321 11750137 11683997 11617594 
3470.586 11550725 11483221 11415795 11349333 11284987 11223339 11164452 
3473.961 11107035 11049660 10990729 10929019 10864126 10797169 10729884 
3477.336 10663695 10599927 10538816 10479650 10421576 10363511 10305385 
3480.711 10247879 10192651 10142112 10097819 10060754 10030642 10005720 
3484.087 9983173 9960390 9934896 9904793 9869981 9830900 9789350 9746923 
3487.944 9706092 9668551 9635689 9608419 9586806 9570750 9559404 9551749 
3491.802 9546465 9542366 9538505 9534610 9530614 9527396 9525940 9527328 
3495.659 9532613 9542638 9557948 9578745 9605133 9636468 9671940 9710361 
3499.516 9749736 9788130 9824088 9856389 9885776 9914183 9944795 9981647 
3503.374 10028913 10089206 10164023 10252425 10352007 10458639 10568115 
3506.749 10676191 10780015 10878530 10972616 11065226 11160848 11263530 
3510.124 11376916 11502342 11638694 11782717 11930498 12078126 12222736 
3513.500 12363236 12499724 12633013 12763818 12892239 13017762 13139223 
3516.875 13255901 13367314 13473322 13573851 13668078 13754528 13830630 
3520.250 13893882 13942430 13975449 13993345 13997896 13991224 13974662 
3523.625 13948726 13912288 13863229 13799264 13717388 13615868 13493795 
3527.000 13351665 13191273 13015952 12829884 12637481 12442471 12247445 
3530.376 12053699 11860994 11667897 11473083 11275058 11072738 10865790 
3533.751 10654594 10439394 10221350 10001651 9781793 9563265 9347555 9135845 
3537.608 8928633 8726119 8528633 8336606 8150978 7972955 7803641 7643059 
3541.466 7490357 7343337 7198489 7052679 6903012 6747879 6587350 6422880 
3545.323 6257429 6094058 5936458 5787613 5649593 5523463 5408274 5301634 
3549.181 5199782 5098490 4993837 4883345 4766884 4646837 4528565 4416886 
3553.038 4317148 4231587 4160025 4099446 4045530 3993528 3939592 3881250 
3556.896 3817969 3749951 3678569 3604760 3529727 3454273 3379266 3305775 
3560.753 3234966 3167941 3105264 3046634 2990013 2931999 2868189 2793683 
3564.610 2704387 2598475 2477627 2347718 2218247 2101067 2006487 1941182 
3568.468 1905604 1894888 1900745 1913225 1923076 1923942 1911728 1885570 
3572.325 1847169 1800020 1748186 1695793 1646100 1600669 1559566 1521327 
3576.183 1483922 1444991 1403304 1358364 1310936 1263115 1216728 1174266 
3580.040 1136857 1105598 1080252 1060091 1044181 1030696 1017411 1001769 
3583.897 979917 948004 902447 841060 763914 674735 581029 492452 418950 
3588.237 368805 344332 343735 360614 386846 413643 434107 442962 437788 
3592.577 417988 385287 343006 295059 245692 199015 158177 125331 101600 
3596.916 87051 79992 78634 79727 80688 79562 75585 69918 64583 62064 64152 
3602.220 71244 82113 94276 104351 109124 105644 91525 65378 26110 -25744 
3607.042 -88458 -158119 -229094 -295256 -351178 -394182 -425497 -449992 
3610.899 -473161 -500664 -535314 -575951 -618040 -654996 -681099 -693339 
3614.757 -692942 -684407 -674945 -671273 -678651 -699591 -733200 -775042 
3618.614 -817739 -852992 -873230 -873660 -853290 -815094 -765251 -710441 
3622.472 -657577 -611819 -576216 -551894 -539219 -538657 -552092 -584223 
3626.329 -640968 -727973 -846875 -991232 -1142713 -1274814 -1361792 -1388777 
3630.187 -1358225 -1286707 -1196609 -1107681 -1033809 -981843 -951758 
3633.562 -938170 -933574 -930731 -925176 -915720 -904147 -893500 -885994 
3637.419 -883150 -884308 -888077 -893169 -898757 -904742 -911421 -918563 
3641.277 -925209 -929706 -930731 -927490 -921605 -916646 -918133 -932119 
3645.134 -964156 -1017513 -1092412 -1185473 -1290705 -1399478 -1502709 
3648.509 -1592216 -1660877 -1701508 -1709561 -1681441 -1617866 -1524238 
3651.885 -1411169 -1292059 -1180748 -1090396 -1030371 -1005711 -1015265 
3655.260 -1051659 -1101898 -1149719 -1181541 -1189439 -1172950 -1137194 
3658.635 -1090462 -1041214 -995992 -958900 -931656 -913703 -902262 -894161 
3662.492 -886192 -875909 -862814 -847238 -831034 -815887 -802857 -793034 
3666.350 -786948 -785460 -789429 -798160 -807421 -805536 -772892 -683778 
3670.207 -513174 -247771 110317 543572 1029235 1542341 2060849 2565377 
3674.065 3029216 3417436 3688327 3800822 3733341 3491881 3105965 2615109 
3677.922 2060016 1480264 912774 393114 -47478 -390607 -632962 -787775 
3681.780 -876272 -922994 -947493 -961115 -969214 -974339 -979397 -990604 
3685.637 -1016918 -1067723 -1149355 -1262591 -1399973 -1546656 -1684147 
3689.012 -1797012 -1875176 -1917138 -1925781 -1907110 -1866334 -1809221 
3692.387 -1742002 -1671044 -1603572 -1545236 -1499672 -1467377 -1445549 
3695.763 -1429961 -1415727 -1399841 -1381874 -1364467 -1351982 -1349604 
3699.138 -1361131 -1388281 -1429301 -1479232 -1530313 -1573861 -1601559 
3702.513 -1608524 -1594230 -1561942 -1517469 -1467905 -1420318 -1379859 
3705.888 -1350694 -1335301 -1334640 -1348943 -1377382 -1418369 -1469193 
3709.264 -1526285 -1585515 -1641931 -1690583 -1727416 -1748735 -1751903 
3712.639 -1735864 -1701508 -1651173 -1589245 -1521662 -1454630 -1394887 
3716.014 -1347225 -1314820 -1297675 -1293876 -1299591 -1311682 -1328133 
3719.389 -1348745 -1374740 -1406744 -1443633 -1481477 -1514431 -1536817 
3722.765 -1544873 -1539029 -1523247 -1504591 -1489832 -1483359 -1485704 
3726.140 -1493233 -1499473 -1497657 -1484053 -1459220 -1428574 -1400204 
3729.515 -1383558 -1387357 -1416189 -1470052 -1542892 -1624964 -1704709 
3732.890 -1773848 -1829711 -1874813 -1914038 -1950719 -1983143 -2004878 
3736.266 -2006692 -1981494 -1928519 -1853368 -1765928 -1676589 -1594032 
3739.641 -1523874 -1468764 -1430754 -1412986 -1421507 -1464240 -1548934 
3743.016 -1677579 -1838356 -2001943 -2129992 -2188117 -2166886 -2082806 
3746.391 -1968267 -1855479 -1769228 -1724511 -1724808 -1763750 -1826148 
3749.767 -1894277 -1952335 -1990300 -2004581 -1994984 -1962000 -1906384 
3753.142 -1830635 -1740715 -1645132 -1554877 -1480288 -1427781 -1400568 
3756.517 -1396472 -1410344 -1434353 -1461598 -1486893 -1506705 -1518360 
3759.892 -1519021 -1506110 -1478373 -1438184 -1391353 -1346763 -1313367 
3763.268 -1298468 -1304051 -1326910 -1357828 -1386861 -1405357 -1410476 
3766.643 -1405654 -1399049 -1399379 -1411995 -1437458 -1470580 -1501983 
3770.018 -1521563 -1522256 -1501785 -1463315 -1412986 -1357762 -1304447 
3773.393 -1257271 -1219177 -1190727 -1171628 -1160723 -1157220 -1160690 
3776.769 -1171529 -1190628 -1217987 -1251754 -1287368 -1318487 -1337679 
3780.144 -1339859 -1324169 -1294372 -1258196 -1223868 -1199087 -1187952 
3783.519 -1190562 -1203383 -1220829 -1237514 -1249673 -1256644 -1260014 
3786.894 -1261930 -1264639 -1269000 -1274682 -1280563 -1285716 -1289416 
3790.270 -1291432 -1291894 -1290672 -1288260 -1285716 -1284692 -1287732 
3793.645 -1298006 -1317397 -1345904 -1380619 -1415430 -1442907 -1456347 
3797.020 -1453243 -1436203 -1414010 -1397661 -1399577 -1429201 -1490789 
3800.395 -1579110 -1678470 -1766390 -1819846 -1825455 -1784935 -1713257 
3803.771 -1632028 -1562372 -1521959 -1519582 -1554217 -1613113 -1675664 
3807.146 -1718901 -1725765 -1692167 -1625294 -1539558 -1448455 -1361957 
3810.521 -1285056 -1218516 -1161186 -1112969 -1076151 -1056451 -1061410 
3813.896 -1096841 -1164854 -1259584 -1367209 -1466716 -1538633 -1573068 
3817.271 -1572738 -1551113 -1527011 -1520011 -1544081 -1605520 -1698867 
3820.647 -1807769 -1905922 -1967080 -1976249 -1933302 -1851850 -1750616 
3824.022 -1648796 -1560952 -1494256 -1449875 -1422233 -1403078 -1383162 
3827.397 -1356771 -1322979 -1285518 -1250300 -1223835 -1210619 -1212304 
3830.772 -1226974 -1250399 -1277028 -1301970 -1321328 -1334376 -1342799 
3834.148 -1350694 -1363708 -1388050 -1428772 -1488379 -1564584 -1649622 
3837.523 -1732135 -1799124 -1840171 -1851355 -1835518 -1800114 -1754114 
3840.898 -1705600 -1659326 -1617305 -1578516 -1540779 -1502082 -1461235 
3844.273 -1417940 -1373617 -1330016 -1289053 -1253043 -1223109 -1200111 
3847.649 -1183821 -1173214 -1167894 -1168455 -1178038 -1202292 -1251291 
3851.024 -1335928 -1465660 -1642360 -1853962 -2071100 -2251344 -2357175 
3854.399 -2371971 -2305136 -2181985 -2031064 -1876000 -1730584 -1602747 
3857.774 -1495445 -1408824 -1342237 -1294702 -1265002 -1251324 -1250961 
3861.150 -1260674 -1277292 -1298303 -1322616 -1349670 -1377844 -1403970 
3864.525 -1422332 -1426725 -1413613 -1384615 -1346994 -1313433 -1297675 
3867.900 -1310856 -1358126 -1434453 -1525195 -1608227 -1663287 -1680516 
3871.275 -1663254 -1624931 -1581190 -1545005 -1522025 -1510139 -1500761 
3874.651 -1483326 -1450436 -1400502 -1338406 -1274253 -1219573 -1184185 
3878.026 -1174404 -1191388 -1231137 -1283965 -1336622 -1376853 -1395481 
3881.401 -1390659 -1366812 -1334541 -1306925 -1295330 -1308577 -1348513 
3884.776 -1409419 -1476656 -1531567 -1558377 -1548934 -1506440 -1442775 
3888.152 -1374343 -1316439 -1280232 -1271246 -1287071 -1318916 -1353072 
3891.527 -1376853 -1381213 -1364104 -1329586 -1285188 -1238935 -1196873 
3894.902 -1162639 -1137689 -1122421 -1116836 -1121232 -1135938 -1161648 
3898.277 -1197501 -1241214 -1289053 -1336754 -1380255 -1417874 -1449512 
3901.653 -1476854 -1501950 -1525195 -1545170 -1558014 -1558905 -1543520 
3905.028 -1509412 -1458362 -1394458 -1324367 -1254496 -1190793 -1137326 
3908.403 -1095916 -1066731 -1048188 -1037974 -1033379 -1031826 -1031561 
3911.778 -1031363 -1030900 -1030537 -1031661 -1036222 -1046172 -1063062 
3915.154 -1087818 -1119050 -1154015 -1188513 -1217789 -1237911 -1247195 
3918.529 -1245444 -1234408 -1216269 -1193503 -1168158 -1141820 -1116307 
3921.904 -1093239 -1074763 -1062963 -1058897 -1062401 -1071193 -1081737 
3925.279 -1090099 -1093239 -1090594 -1083488 -1075259 -1069574 -1069276 
3928.655 -1075523 -1087719 -1103682 -1120207 -1134914 -1145819 -1151834 
3932.030 -1152660 -1148066 -1137656 -1121595 -1100411 -1075622 -1049378 
3935.405 -1024851 -1004356 -989645 -980785 -976983 -976455 -977612 -979364 
3939.262 -982405 -988191 -998472 -1014670 -1036586 -1062236 -1088347 
3942.638 -1110524 -1125297 -1130419 -1126222 -1114655 -1099849 -1086364 
3946.013 -1077638 -1076647 -1083984 -1098461 -1117001 -1135740 -1150974 
3949.388 -1159897 -1160822 -1153949 -1140498 -1121694 -1099551 -1075424 
3952.763 -1050898 -1026603 -1003530 -982571 -964388 -949510 -938269 -930797 
3956.621 -926664 -925639 -927424 -931458 -937509 -945014 -953312 -961875 
3960.478 -969942 -977182 -983166 -987827 -990934 -992125 -990967 -987662 
3964.336 -981678 -973446 -963660 -952915 -942104 -931987 -922630 -914265 
3968.193 -906362 -898923 -891483 -884407 -877562 -871015 -864864 -858978 
3972.051 -853488 -848429 -844031 -840691 -838409 -837417 -837317 -838144 
3975.908 -839302 -840724 -842079 -843072 -843005 -841616 -837681 -831431 
3979.765 -822700 -812580 -801997 -792670 -785096 -779804 -776464 -774479 
3983.623 -773619 -773818 -775835 -780334 -787577 -797334 -808347 -818731 
3987.480 -826999 -832158 -834110 -833349 -830802 -827198 -822766 -817177 
3991.338 -810364 -802195 -793663 -786386 -781657 -781094 -784964 -792902 
3995.195 -803651 -815987 -829017 -842146 -855142 -867972 -880571 -892442 
3999.052 -902626 -910529 -915852 -918497 
##END=
