
##TITLE=1675_3_b
##JCAMP-DX=5.01  $$ Nicolet v. 1
##DATATYPE=INFRARED SPECTRUM
##ORIGIN=UniL
##OWNER=Nicolet
##LONGDATE=2011/09/16
##TIME=11:57:26
##SPECTROMETER/DATA SYSTEM=Nicolet iS5
##DATA PROCESSING=
Ratio against background
%Transmittance->Absorbance
Truncated
ElementMultiply or ElementDivide
##COMMENTS=
Number of sample scans: 32
Collection length: 51.15 sec
Sample gain: 2.0
Background collected on: Ven Sep 16 11:51:09 2011 (GMT+02:00);
Number of background scans: 32
Background gain: 2.0
Sample spacing:  1.000
Number of scan points: 12415
Resolution points: 8192
Number of FFT points: 65536
Apodization: N-B fort;
Phase correction: Mertz;
Laser frequency: 15798.0 cm-1
Number of rejected sample scans: 0
Number of rejected background scans: 0
Bench serial number: ASB1000141;
##RESOLUTION=4.000
##XUNITS=1/CM
##YUNITS=ABSORBANCE
##FIRSTX=649.893372
##LASTX=4000.122314
##FIRSTY=0.077086
##MAXX=4000.122314
##MINX=649.893372
##MAXY=0.271270
##MINY=-0.000984
##XFACTOR=1.000000
##YFACTOR=1.000000E-009
##NPOINTS=6950
##DELTAX=0.482117
##ZPD=6100
##XYDATA=(X++(Y..Y))
649.893 77085688 76910984 76777552 76704176 76696104 76748656 76857360 
653.268 77028520 77282632 77651352 78159872 78814712 79594392 80455768 
656.643 81348192 82236248 83112192 83994576 84918000 85911344 86989136 
660.018 88148264 89379208 90678144 92057080 93538528 95141568 96865248 
663.393 98682072 100541736 102390608 104189392 105908904 107529368 109017832 
666.767 110304240 111287152 111866480 112006392 111760656 111238568 
669.660 110535136 109691464 108702448 107543960 106201872 104694752 
672.553 103078488 101427192 99818880 98305536 96903216 95602528 94384152 
675.928 93234312 92152480 91147232 90226096 89385880 88611736 87881232 
679.302 87172728 86476536 85793288 85130136 84492824 83878040 83272224 
682.677 82659448 82026472 81371640 80706064 80048760 79418472 78825640 
686.052 78270552 77745656 77242768 76757504 76292176 75853984 75448824 
689.427 75075120 74723616 74377160 74016904 73628696 73205800 72750208 
692.802 72270720 71779408 71288336 70810616 70359952 69950352 69596976 
696.177 69313816 69109696 68989232 68951176 68990904 69103240 69284120 
699.551 69531096 69842576 70215040 70641192 71108808 71603312 72109056 
702.926 72613432 73109024 73593048 74065432 74526456 74974496 75406600 
706.301 75821392 76219744 76607640 76994616 77391392 77806176 78243616 
709.676 78706904 79202072 79743936 80361424 81093560 81983056 83064248 
713.051 84344576 85792720 87328992 88840480 90190128 91242832 91903432 
716.425 92127696 91939872 91423152 90714816 89980928 89379048 89054864 
719.800 89112344 89601640 90518224 91795776 93314152 94893112 96324552 
723.175 97398600 97925096 97789576 96973472 95569200 93756480 91770272 
726.550 89852384 88183176 86870584 85937952 85344752 85013456 84861960 
729.925 84829008 84874040 84975376 85120376 85294464 85480000 85661376 
733.300 85829128 85984688 86137824 86300480 86478304 86668232 86859616 
736.674 87041080 87207992 87365184 87523552 87695312 87885248 88088808 
740.049 88294496 88490584 88672080 88843936 89018464 89206488 89412632 
743.424 89631008 89848960 90054064 90241560 90417304 90594424 90786640 
746.799 90999416 91228528 91462544 91689568 91905400 92115368 92331008 
750.174 92562456 92810360 93063336 93301384 93507048 93671136 93798920 
753.548 93906144 94011776 94128064 94256600 94390288 94519976 94642904 
756.923 94764512 94896952 95051568 95233032 95436720 95652824 95873160 
760.298 96097536 96334856 96598048 96894320 97219848 97558640 97891144 
763.673 98204376 98502200 98807176 99155672 99585696 100124320 100785592 
767.048 101569664 102469176 103474104 104575440 105765760 107044552 
769.940 108430336 109978968 111807208 114081368 116994632 120704504 
772.833 125239704 130418896 135784720 140681072 144299056 145884320 
775.726 144987888 141564928 136033456 129104064 121649616 114454192 
778.619 108048408 102717096 98478048 95177784 92572760 90427752 88565864 
781.993 86873376 85300512 83834312 82478160 81242152 80142560 79203096 
785.368 78451712 77917880 77624008 77579760 77785288 78237776 78940272 
788.743 79908832 81172440 82764384 84718048 87058776 89805200 92976440 
792.118 96597800 100701184 105317624 110456936 116084568 122093864 128303800 
795.493 134451296 140190256 145149776 148934656 151170576 151579424 
798.385 150000656 146444320 141092912 134293312 126502560 118193304 
801.278 109845008 101861896 94533816 88059344 82521952 77914672 74166592 
804.653 71172040 68819504 67005664 65655188 64718672 64164264 63968228 
808.028 64098468 64500204 65096384 65781696 66433580 66937508 67191120 
811.402 67123480 66703124 65931544 64840524 63479228 61912592 60211720 
814.777 58445988 56685856 54992208 53411836 51979432 50712460 49614956 
818.152 48681708 47903316 47270740 46777116 46419092 46194712 46102112 
821.527 46139916 46308048 46610976 47058916 47669588 48465384 49466476 
824.902 50686280 52121036 53745040 55500612 57299108 59025636 60534948 
828.277 61678768 62324816 62373620 61789608 60607816 58934732 56919276 
831.651 54736220 52559180 50522848 48725264 47217844 46008164 45072376 
835.026 44363612 43826392 43398616 43021560 42648668 42245640 41798072 
838.401 41310916 40804616 40307700 39847312 39444620 39108504 38837608 
841.776 38623556 38456488 38328572 38234736 38172980 38141396 38137596 
845.151 38158976 38204164 38273928 38371680 38501488 38665932 38863516 
848.525 39088636 39333968 39593776 39866268 40155320 40467956 40812988 
851.900 41196692 41621944 42089296 42599180 43154532 43762184 44430552 
855.275 45168952 45984812 46882560 47866356 48942424 50121488 51420600 
858.650 52861488 54466972 56259788 58259904 60482308 62937664 65627904 
862.025 68540576 71637112 74847328 78064672 81139168 83903448 86184248 
865.400 87819416 88695208 88752512 88002216 86522464 84456528 81998224 
868.774 79352200 76730816 74323448 72268648 70665200 69559024 68949584 
872.149 68797808 69033160 69565712 70281216 71056200 71765768 72282736 
875.524 72503984 72359016 71817720 70896040 69649840 68165864 66539460 
878.899 64868956 63245980 61742168 60417228 59316676 58470176 57896496 
882.274 57600008 57569744 57778692 58185036 58738504 59380568 60055240 
885.648 60716136 61328740 61879160 62375304 62848620 63346640 63925496 
889.023 64641608 65535492 66626556 67909504 69358248 70931968 72584488 
892.398 74276616 75974696 77653336 79292976 80872528 82366672 83744864 
895.773 84965576 85977976 86723488 87132064 87134536 86671832 85704032 
899.148 84226816 82275808 79929656 77294472 74496088 71668456 68927680 
902.523 66374972 64087988 62114048 60479528 59189944 58233912 57588128 
905.897 57221536 57102368 57200596 57493632 57968432 58619864 59448040 
909.272 60454396 61638860 62999024 64530380 66225784 68075392 70062392 
912.647 72156824 74316880 76486072 78600520 80606016 82464704 84168816 
916.022 85742008 87239392 88738488 90322608 92080264 94088192 96400088 
919.397 99042240 101998152 105206024 108547488 111865840 114987840 117743032 
922.771 120015328 121766704 123056872 124034104 124925128 126009272 
925.664 127554776 129809168 132955832 137077440 142138736 147955024 
928.557 154205136 160389696 165878656 170008816 172101760 171631328 
931.450 168328336 162226176 153686272 143318256 131917936 120277320 
934.342 109093816 98932032 90133568 82866712 77158384 72935048 70075200 
937.717 68442112 67913880 68372648 69691696 71724568 74263688 77039160 
941.092 79749864 82059536 83669088 84371896 84071176 82809616 80744896 
944.467 78128728 75237464 72326136 69608064 67214368 65206796 63590460 
947.841 62333456 61386288 60695296 60214464 59903344 59726592 59654896 
951.216 59661052 59721232 59818496 59941152 60083624 60245180 60427124 
954.591 60631096 60857572 61106176 61376060 61667080 61979428 62313952 
957.966 62670940 63049668 63448632 63865496 64298600 64747364 65212452 
961.341 65695196 66196376 66715680 67250960 67799760 68360232 68932184 
964.716 69517488 70119432 70741008 71383544 72045648 72723768 73414128 
968.090 74113616 74821424 75539536 76271328 77019976 77787904 78576176 
971.465 79385248 80216328 81071712 81954600 82868480 83815544 84796104 
974.840 85809152 86854024 87931160 89043800 90197016 91396088 92645912 
978.215 93949664 95309112 96727688 98211472 99770136 101417600 103167592 
981.590 105031920 107017640 109126016 111352064 113684488 116105520 
984.482 118585744 121079032 123523704 125836088 127917736 129673424 
987.375 131014120 131877632 132238192 132108328 131538344 130606128 
990.268 129418280 128091976 126743824 125489456 124422064 123610152 
993.160 123096904 122897624 123007392 123408032 124077664 124994536 
996.053 126139848 127498600 129056168 130796896 132705392 134765168 
998.946 136960640 139277312 141696112 144189648 146719824 149231520 
1001.839 151660656 153942560 156016736 157842656 159401984 160700816 
1004.731 161767264 162648016 163408496 164122128 164871184 165740272 
1007.624 166800496 168108112 169696240 171573184 173728416 176139888 
1010.517 178785360 181644480 184702448 187947248 191363424 194930720 
1013.409 198626480 202425664 206307024 210251456 214232944 218210560 
1016.302 222117376 225850544 229287504 232294608 234747872 236564976 
1019.195 237713664 238223888 238179920 237722000 237031920 236303296 
1022.087 235744160 235543616 235843360 236738656 238258624 240374000 
1024.980 243003696 246036560 249350448 252811824 256293328 259669696 
1027.873 262807872 265584352 267886400 269625120 270754144 271269664 
1030.766 271208672 270632640 269619808 268254096 266613392 264775328 
1033.659 262807968 260757808 258642672 256436976 254072880 251439632 
1036.552 248407664 244855680 240680480 235822992 230270096 224050320 
1039.446 217228912 209902592 202198944 194259792 186240112 178297344 
1042.339 170562880 163145936 156124016 149539328 143413152 137751280 
1045.232 132550776 127806368 123511192 119655728 116227744 113211472 
1048.125 110588736 108339160 106442576 104878136 103623232 102653928 
1051.018 101944056 101464688 101188328 101089248 101143240 101329600 
1053.911 101624888 101999328 102416240 102827040 103174072 103400904 
1056.804 103451688 103280896 102860120 102177048 101239488 100074712 
1059.697 98732304 97279864 95796608 94374064 93099880 92050368 91290584 
1063.072 90861592 90784768 91061608 91676344 92597272 93777128 95159344 
1066.448 96674416 98244424 99795240 101254544 102561984 103675096 104564944 
1069.823 105215192 105619272 105775736 105688360 105366056 104825664 
1072.716 104090928 103192264 102168656 101063360 99924792 98809592 97774800 
1076.091 96878616 96175352 95704288 95488488 95529480 95809496 96292912 
1079.466 96933000 97679776 98478632 99273880 100012104 100637808 101102296 
1082.842 101373032 101440328 101328640 101096656 100841216 100680288 
1085.735 100741376 101156080 102033192 103454592 105464384 108057416 
1088.628 111172264 114681352 118407888 122116600 125537992 128419576 
1091.521 130531880 131715880 131905912 131128696 129499672 127191232 
1094.414 124424712 121426672 118398440 115515720 112896768 110604376 
1097.307 108650024 106998520 105579680 104295408 103041976 101714336 
1100.200 100216464 98479336 96460576 94153376 91585872 88819664 85941424 
1103.575 83044272 80226536 77575360 75157088 73023712 71207056 69723288 
1106.950 68577624 67766376 67280552 67105880 67224856 67616560 68254328 
1110.326 69108136 70141400 71307976 72555984 73822816 75036600 76126752 
1113.701 77023768 77668584 78023112 78068872 77809032 77264504 76470584 
1117.076 75470744 74310552 73038136 71698272 70328472 68962480 67625392 
1120.451 66336096 65110356 63959896 62894188 61919584 61036764 60238744 
1123.827 59509788 58828408 58170568 57516288 56857672 56201596 55572268 
1127.202 55004052 54539504 54217896 54067312 54102512 54320996 54706076 
1130.577 55226788 55843780 56512528 57182148 57804240 58335728 58743396 
1133.952 59012080 59146884 59173656 59132384 59072968 59046624 59093316 
1137.328 59240792 59498312 59856864 60289296 60753636 61200772 61573944 
1140.703 61819176 61891420 61755536 61391556 60794076 59970136 58936784 
1144.078 57718176 56345716 54853348 53278056 51658292 50028564 48419668 
1147.453 46856244 45354252 43923204 42566980 41285812 40079444 38948028 
1150.829 37893264 36918288 36026264 35220328 34502764 33875460 33340360 
1154.204 32899872 32556568 32312248 32167822 32122220 32173316 32318886 
1157.579 32557494 32889400 33316280 33840072 34461616 35179796 35991024 
1160.954 36889680 37867740 38915664 40019748 41161612 42318356 43460208 
1164.330 44554112 45567232 46466624 47224416 47818376 48231464 48453380 
1167.705 48481388 48320448 47983016 47488620 46862516 46130408 45319056 
1171.080 44453308 43553752 42639568 41728400 40835992 39979056 39173044 
1174.455 38431148 37764680 37181560 36686680 36283236 35973748 35760524 
1177.831 35646276 35633792 35725156 35922528 36227624 36643200 37173616 
1181.206 37824036 38600344 39507580 40548996 41726576 43042156 44498824 
1184.581 46102404 47860916 49782580 51872784 54129876 56543208 59087584 
1187.956 61723488 64396968 67034080 69548560 71847744 73834600 75429352 
1191.332 76578272 77261576 77497920 77339520 76864832 76157040 75298576 
1194.707 74357856 73379056 72385752 71381000 70355160 69291968 68176056 
1198.082 66998972 65759496 64464116 63123500 61749920 60353408 58941068 
1201.457 57518144 56089944 54664472 53255092 51879020 50557020 49310628 
1204.833 48157232 47108588 46168916 45335384 44599712 43950592 43377268 
1208.208 42869432 42418776 42018516 41662640 41345900 41065084 40819104 
1211.583 40610512 40445040 40331768 40280724 40301884 40404564 40596432 
1214.958 40883608 41270984 41761704 42357108 43055548 43853296 44744844 
1218.333 45724248 46787116 47930732 49154204 50457232 51839516 53300308 
1221.709 54840076 56462148 58174696 59990072 61924744 63995256 66214396 
1225.084 68589152 71117824 73789360 76581040 79459368 82376368 85265472 
1228.459 88048472 90631936 92913648 94799496 96202840 97057032 97325664 
1231.834 97004992 96132064 94781440 93072416 91156096 89195136 87368296 
1235.210 85841248 84754816 84233088 84368392 85226720 86854960 89278920 
1238.585 92505384 96516680 101269568 106683408 112631384 118954704 125447440 
1241.960 131864160 137952096 143435040 148045696 151563504 153817376 
1244.853 154723072 154289520 152617712 149882864 146302752 142137232 
1247.746 137647040 133075104 128647160 124528288 120815120 117524824 
1250.639 114590872 111874672 109184512 106329592 103142808 99519312 95441352 
1254.015 90973720 86253024 81445584 76735528 72285672 68210096 64578472 
1257.390 61407088 58669852 56308672 54249168 52413992 50725272 49118656 
1260.765 47545396 45971884 44382508 42775200 41158404 39545976 37953684 
1264.140 36397440 34890124 33443804 32069210 30774950 29568692 28454746 
1267.516 27434026 26503282 25656912 24888956 24194342 23570338 23015494 
1270.891 22528460 22106222 21744136 21435778 21175648 20959624 20785622 
1274.266 20652310 20557668 20496772 20462488 20446166 20439810 20438420 
1277.641 20440540 20447798 20463046 20488818 20526194 20575282 20635076 
1281.017 20703982 20778080 20849756 20906460 20931354 20905104 20812214 
1284.392 20645150 20408242 20117176 19796726 19476684 19183370 18938428 
1287.767 18757070 18647896 18616666 18667266 18802358 19023058 19327108 
1291.142 19708718 20157576 20660128 21200906 21760962 22318180 22848806 
1294.518 23325428 23723376 24024186 24218794 24311120 24316480 24259788 
1297.893 24167472 24065616 23975828 23913578 23890016 23912458 23984584 
1301.268 24105368 24267460 24457758 24656662 24841658 24992480 25091956 
1304.643 25128676 25097502 24996726 24828152 24596314 24309752 23980978 
1308.019 23626802 23267604 22922744 22608212 22334784 22107026 21926292 
1311.394 21792976 21709056 21678128 21703936 21788518 21930336 22124666 
1314.769 22366458 22652088 22981396 23357282 23782872 24258876 24781950 
1318.144 25344082 25936062 26549774 27180508 27826786 28487754 29159828 
1321.520 29834328 30496762 31128418 31711552 32231018 32679222 33058058 
1324.895 33380792 33672076 33965024 34301700 34724988 35269060 35953804 
1328.270 36774412 37699988 38673756 39625720 40487816 41202520 41739052 
1331.645 42094840 42294616 42380596 42405404 42424732 42486552 42632040 
1335.021 42892876 43288016 43825404 44500660 45300668 46204664 47190396 
1338.396 48238316 49331748 50457492 51604072 52759072 53908376 55036660 
1341.771 56125728 57155428 58100868 58928320 59598412 60066388 60286480 
1345.146 60223256 59854316 59174984 58196936 56946172 55459008 53775452 
1348.521 51942384 50010272 48031124 46064348 44171540 42410920 40838616 
1351.897 39497780 38415224 37602820 37057624 36767124 36710804 36863456 
1355.272 37192752 37655248 38201160 38773552 39314160 39775588 40121452 
1358.647 40331660 40401840 40340500 40167680 39911636 39613196 39325008 
1362.022 39106112 39021172 39125256 39451552 40010008 40787000 41754808 
1365.398 42878356 44122680 45450484 46813208 48152160 49393076 50448820 
1368.773 51238880 51694868 51773848 51464500 50785376 49782800 48520584 
1372.148 47084584 45575512 44096384 42755304 41642800 40815828 40293704 
1375.523 40057784 40067636 40276328 40649660 41173340 41853308 42712092 
1378.899 43783328 45108436 46728260 48680968 50988592 53640356 56568648 
1382.274 59628932 62617308 65267480 67298352 68472448 68603616 67603976 
1385.649 65498924 62453764 58762212 54791772 50937960 47506436 44668192 
1389.024 42463748 40832756 39666120 38840908 38251856 37813732 37459692 
1392.400 37143300 36830600 36500608 36147024 35776392 35405064 35050580 
1395.775 34726532 34437584 34180952 33950908 33742332 33554900 33392384 
1399.150 33261154 33166836 33111908 33094958 33111978 33158824 33232860 
1402.525 33334922 33470358 33648556 33882840 34187944 34575484 35051228 
1405.901 35612788 36250780 36951512 37700928 38488676 39307776 40154160 
1409.276 41025136 41916324 42822588 43738252 44658428 45578528 46491660 
1412.651 47384208 48234056 49011932 49685384 50231352 50641604 50927976 
1416.026 51117800 51249316 51364912 51502516 51698672 51986340 52391152 
1419.402 52930728 53606804 54403760 55293128 56241836 57221688 58212920 
1422.777 59212692 60234748 61305652 62454456 63700564 65046652 66479260 
1426.152 67975952 69513944 71078560 72659408 74244584 75814960 77336952 
1429.527 78764224 80050280 81158504 82076704 82820840 83433736 83974192 
1432.903 84501648 85074952 85746576 86570424 87614672 88961528 90698728 
1436.278 92895136 95560120 98634416 102010136 105564552 109179904 112734072 
1439.653 116099848 119111424 121571752 123296848 124125328 123965248 
1442.546 122807712 120717328 117813904 114238664 110150624 105697152 
1445.439 101001064 96177872 91334496 86589928 82098320 78027552 74531728 
1448.814 71715272 69602264 68150008 67276808 66902452 66964252 67420816 
1452.190 68243440 69395712 70826760 72483624 74311928 76274640 78359872 
1455.565 80566920 82892384 85305512 87743856 90125408 92380520 94480184 
1458.940 96426200 98237904 99939976 101556272 103106160 104598752 106031256 
1462.315 107376936 108581176 109574264 110282632 110663328 110728400 
1465.208 110550944 110235864 109872872 109517168 109178584 108837592 
1468.102 108461720 108017808 107470840 106769288 105833984 104553264 
1470.995 102794288 100455456 97525544 94127696 90489400 86860424 83421928 
1474.370 80246856 77334144 74661048 72228264 70078664 68283176 66903180 
1477.745 65972424 65483360 65401852 65690608 66330188 67327256 68708832 
1481.120 70504208 72727296 75366840 78391032 81761608 85446272 89432336 
1484.496 93718456 98296976 103139608 108164648 113216976 118081272 122468848 
1487.871 126046344 128489272 129504264 128905936 126678568 123007392 
1490.764 118251328 112836400 107172480 101548192 96108784 90902640 85905696 
1494.139 81077392 76407840 71932944 67740736 63951948 60673844 57963888 
1497.514 55814844 54177392 52982156 52167216 51689568 51520232 51636536 
1500.890 52016632 52633120 53453996 54445936 55566504 56764996 57978468 
1504.265 59107436 60014416 60520244 60420080 59562992 57935492 55691580 
1507.640 53072976 50293700 47476348 44663092 41862396 39087512 36366344 
1511.015 33753968 31316228 29104624 27152430 25463664 24019810 22791184 
1514.391 21746226 20856466 20095382 19441026 18876998 18394478 17994198 
1517.766 17682140 17462086 17328892 17265966 17245864 17242072 17238866 
1521.141 17244072 17286378 17402072 17611674 17910008 18271918 18665502 
1524.516 19067580 19468610 19878056 20317226 20810892 21373366 22004154 
1527.892 22691118 23418684 24176264 24960788 25776792 26632448 27534380 
1531.267 28487080 29491416 30545422 31645120 32783474 33948616 35122280 
1534.642 36284100 37412852 38490848 39499376 40420388 41238920 41938112 
1538.017 42505444 42932156 43215868 43356400 43355884 43223408 42976712 
1541.393 42642380 42249148 41816568 41347796 40830024 40244920 39580564 
1544.768 38845764 38070788 37298672 36566200 35885348 35243832 34610756 
1548.143 33954456 33257828 32531030 31808730 31137814 30553068 30062554 
1551.518 29648860 29281634 28934872 28598048 28281392 28008014 27799832 
1554.894 27661664 27576110 27504622 27400110 27208904 26879656 26376370 
1558.269 25700502 24915098 24133144 23466384 22968854 22631912 22412720 
1561.644 22262898 22141996 22018724 21874576 21704912 21520340 21343192 
1565.019 21199480 21109032 21076230 21089900 21128268 21170012 21200036 
1568.395 21215868 21227592 21253516 21310896 21407480 21540536 21700348 
1571.770 21876390 22059544 22242250 22417430 22574424 22701346 22788706 
1575.145 22836268 22859248 22887538 22955894 23085304 23277324 23517414 
1578.520 23785950 24068034 24357552 24658558 24982092 25341130 25744762 
1581.896 26195260 26686354 27205378 27733394 28246774 28719024 29118618 
1585.271 29414256 29580080 29600014 29475138 29225246 28891878 28530636 
1588.646 28205298 27981966 27914228 28041306 28384490 28943126 29692710 
1592.021 30579444 31526208 32427624 33163548 33623636 33713972 33382438 
1595.396 32628786 31505686 30107156 28542738 26926540 25350264 23877834 
1598.772 22551704 21392860 20408206 19594764 18941750 18433506 18052636 
1602.147 17785512 17624340 17568234 17620058 17782440 18052808 18421752 
1605.522 18870872 19373602 19898070 20402650 20839988 21161628 21318414 
1608.897 21272410 21002848 20510734 19821938 18983908 18062444 17123594 
1612.273 16223470 15399969 14665790 14015862 13433814 12901864 12406909 
1615.648 11945688 11526873 11165608 10877069 10669468 10540684 10479208 
1619.023 10469568 10492480 10528021 10558473 10568590 10551140 10509486 
1622.398 10457790 10415738 10400603 10420457 10471367 10542007 10619416 
1625.774 10695684 10768501 10839937 10912846 10988758 11066960 11145448 
1629.149 11223916 11305732 11395250 11496932 11610788 11731754 11848497 
1632.524 11947493 12015615 12043684 12029377 11979100 11908567 11838214 
1635.899 11786734 11765081 11773831 11805528 11849655 11894979 11930702 
1639.275 11946914 11937684 11901789 11844615 11776044 11707824 11647646 
1642.650 11596222 11546268 11484786 11397427 11272644 11107375 10909414 
1646.025 10698401 10499473 10335651 10221350 10158936 10141977 10158733 
1649.400 10196417 10239567 10269252 10263043 10194212 10042205 9808972 
1652.776 9538776 9308489 9181360 9172121 9249286 9367700 9488584 9589720 
1656.633 9662555 9707718 9730929 9738045 9732250 9712800 9675497 9615838 
1660.490 9531494 9423872 9298807 9164744 9031703 8909153 8804220 8720981 
1664.348 8660202 8619540 8593280 8572293 8545799 8501499 8429467 8324683 
1668.205 8190211 8037621 7883363 7744845 7633010 7550973 7494672 7456682 
1672.063 7428099 7399315 7360793 7302630 7217119 7102557 6967957 6832524 
1675.920 6717188 6637343 6594953 6580724 6578773 6573592 6555393 6522429 
1679.778 6480421 6438046 6401527 6369079 6329438 6264522 6156697 5999210 
1683.635 5806317 5613476 5462560 5377376 5352988 5365903 5389017 5404114 
1687.492 5401665 5381536 5348191 5308007 5266216 5225570 5188347 5156727 
1691.350 5133190 5119276 5112839 5107173 5089941 5046965 4967158 4850440 
1695.207 4712584 4583679 4494081 4456653 4462143 4484138 4492139 4458695 
1699.065 4369256 4229880 4071918 3940729 3868714 3861560 3900741 3960290 
1702.922 4016903 4056567 4073089 4067203 4044728 4015131 3988378 3971892 
1706.780 3969318 3980486 4002490 4030848 4061116 4090281 4117341 4143299 
1710.637 4170931 4202914 4240554 4283317 4328125 4371398 4410258 4443263 
1714.494 4470044 4490465 4502785 4503254 4488256 4457189 4415882 4376988 
1718.352 4355534 4361124 4395196 4450293 4514838 4576848 4627815 4664387 
1722.209 4688066 4703373 4715733 4728428 4741559 4753015 4760653 4763601 
1726.067 4762964 4760820 4758542 4755025 4747588 4733486 4711713 4684717 
1729.924 4657253 4633107 4612009 4587630 4547148 4475232 4361425 4208367 
1733.781 4038273 3885663 3782739 3741596 3752024 3790961 3834382 3865037 
1737.639 3872525 3854974 3817401 3769771 3723082 3685620 3661661 3651136 
1741.496 3652673 3664000 3683481 3709480 3739858 3772244 3804900 3837123 
1745.354 3869315 3902513 3937285 3972528 4005533 4033023 4052554 4063390 
1749.211 4066935 4065998 4063958 4063156 4065196 4070781 4080682 4095331 
1753.069 4113862 4134033 4150156 4154639 4140288 4101419 4038474 3958116 
1756.926 3872291 3793368 3727994 3676397 3631355 3584046 3525785 3453238 
1760.783 3368981 3281436 3200651 3135099 3088812 3060581 3046467 3041862 
1764.641 3042696 3045799 3047735 3045332 3035623 3017338 2992415 2965392 
1768.498 2941639 2924260 2912017 2899475 2879162 2845409 2799052 2748432 
1772.356 2708654 2694418 2712355 2759169 2824564 2896006 2963924 3024311 
1776.213 3077833 3127790 3176752 3224952 3269117 3305107 3329680 3343738 
1780.071 3351518 3359832 3373823 3394794 3419440 3441548 3455442 3458080 
1783.928 3451133 3439411 3429425 3426052 3431095 3443519 3460786 3481059 
1787.785 3502770 3524683 3544525 3557487 3557220 3537444 3494353 3429759 
1791.643 3352018 3274358 3208862 3162901 3136034 3122084 3113006 3102060 
1795.500 3086142 3064986 3039693 3011032 2978436 2940472 2895840 2844708 
1799.358 2789781 2735528 2686850 2647244 2618075 2598342 2586509 2581742 
1803.215 2583676 2592609 2607809 2626809 2646111 2661779 2671280 2674614 
1807.073 2673747 2672114 2672314 2675314 2680048 2684716 2688250 2691717 
1810.930 2698019 2710821 2732294 2761937 2796818 2832468 2865554 2895173 
1814.787 2922592 2951314 2984808 3024411 3069658 3118012 3166005 3210999 
1818.645 3251657 3287746 3318796 3344539 3363371 3374124 3375593 3367679 
1822.502 3350850 3325974 3294557 3258668 3221580 3187700 3162467 3149784 
1826.360 3150752 3162033 3176886 3185998 3181292 3159029 3122551 3081904 
1830.217 3050104 3038692 3051972 3086810 3134732 3186365 3235567 3280368 
1834.074 3323069 3367679 3417636 3473277 3532500 3591830 3649097 3704802 
1837.932 3762919 3827797 3903583 3991354 4089177 4192810 4297773 4400585 
1841.789 4499303 4594227 4686525 4779145 4875973 4981603 5100703 5236133 
1845.647 5387373 5549808 5715962 5876303 6021349 6145070 6245059 6322748 
1849.504 6382260 6427151 6458829 6475914 6474905 6452810 6408891 6345610 
1853.362 6267212 6177602 6078870 5969916 5848260 5711531 5560614 5400121 
1857.219 5237777 5081225 4936325 4804941 4685453 4574738 4470144 4370930 
1861.076 4278096 4193345 4117007 4048306 3985569 3927221 3873461 3825657 
1864.934 3785513 3752993 3725588 3698720 3667642 3630019 3588723 3551273 
1868.791 3527155 3523480 3541686 3576830 3619728 3661126 3695378 3720742 
1872.649 3738922 3753026 3764924 3774784 3781302 3781970 3775820 3763086 
1876.506 3744805 3721377 3691969 3654410 3606497 3547899 3480993 3410590 
1880.364 3342268 3279967 3223984 3171846 3119514 3064152 3006094 2949579 
1884.221 2899475 2859884 2831068 2809190 2787414 2760003 2723791 2680349 
1888.078 2635143 2594675 2565077 2549312 2547212 2556911 2576609 2604609 
1891.936 2639910 2680648 2723591 2764171 2799085 2826932 2849611 2872191 
1895.793 2899542 2934801 2977769 3024345 3069591 3110036 3145045 3177153 
1899.651 3210665 3248486 3290984 3336459 3381103 3422712 3461387 3499397 
1903.508 3539348 3582509 3626911 3668478 3702061 3724485 3735146 3736483 
1907.365 3731904 3723783 3712555 3697115 3676397 3651503 3626644 3606798 
1911.223 3597042 3598579 3608535 3620797 3628983 3628883 3619661 3603256 
1915.080 3581440 3554347 3519038 3470672 3405948 3326809 3240441 3158528 
1918.938 3091281 3044098 3014636 2995485 2977402 2953549 2923025 2889535 
1922.795 2859017 2835503 2818828 2804488 2787247 2763638 2735562 2708454 
1926.653 2689483 2682716 2687316 2697185 2704553 2703220 2691551 2672314 
1930.510 2651178 2632676 2618075 2605042 2590009 2570976 2549579 2530348 
1934.367 2517717 2513218 2514218 2514484 2507953 2492389 2471029 2451735 
1938.225 2442672 2447870 2464598 2484892 2498788 2499055 2485158 2463198 
1942.082 2442505 2431310 2432376 2442772 2456467 2468197 2476961 2485925 
1945.940 2499455 2520117 2546779 2574243 2596475 2611175 2620375 2629209 
1949.797 2644377 2668713 2699519 2730227 2752967 2763471 2763071 2758069 
1953.655 2754101 2754768 2758102 2757502 2746098 2721024 2684783 2646410 
1957.512 2615509 2597175 2591142 2590775 2588542 2580576 2570276 2566410 
1961.369 2579709 2616175 2674414 2746065 2819629 2885766 2939638 2981005 
1965.227 3011232 3029650 3032586 3014536 2972565 2910783 2840639 2777610 
1969.084 2734728 2717957 2723191 2740163 2756302 2764905 2766972 2770407 
1972.942 2784412 2815126 2862318 2920891 2986076 3058245 3142108 3245448 
1976.799 3371753 3515296 3658754 3779397 3858518 3887101 3868747 3815696 
1980.656 3743869 3665337 3585115 3503105 3418705 3334288 3257399 3198915 
1984.514 3167874 3166472 3189936 3226955 3265612 3299498 3327744 3355391 
1988.371 3387781 3425952 3465061 3496725 3513125 3512157 3499798 3487406 
1992.229 3486704 3503271 3534437 3570649 3601452 3620430 3627613 3630821 
1996.086 3639708 3660926 3695745 3738455 3780500 3814627 3837324 3849291 
1999.944 3854038 3853269 3846349 3829435 3798716 3752759 3694943 3632391 
2003.801 3572721 3522812 3485635 3460619 3445756 3440045 3443151 3455208 
2007.658 3474312 3494654 3507714 3506979 3489677 3460318 3428724 3406115 
2011.516 3400237 3411291 3431997 3451200 3460518 3457546 3446925 3437741 
2015.373 3438275 3451501 3474413 3500332 3524048 3546229 3572988 3613046 
2019.231 3673657 3754731 3848890 3943905 4027973 4093224 4138582 4166615 
2023.088 4180766 4182104 4168957 4138716 4091819 4033992 3973832 3921504 
2026.946 3883457 3858317 3839363 3817702 3788120 3752558 3720107 3702596 
2030.803 3708511 3739992 3790995 3850327 3909267 3962563 4011452 4060580 
2034.660 4112725 4167050 4218471 4260964 4291214 4312765 4332543 4359183 
2038.518 4397840 4446544 4497462 4541489 4570854 4583813 4585353 4582976 
2042.375 4582674 4587496 4595231 4601761 4604106 4603603 4603469 4608593 
2046.233 4621051 4638632 4655511 4665324 4663650 4650354 4627849 4598011 
2050.090 4561177 4514436 4454310 4380201 4297538 4216664 4152130 4115769 
2053.948 4111353 4133598 4168622 4200538 4216029 4211746 4190970 4164072 
2057.805 4140321 4124900 4116872 4111855 4104931 4094061 4082354 4074962 
2061.662 4076267 4087806 4106671 4127376 4145807 4160259 4172670 4187691 
2065.520 4207899 4233126 4259458 4281074 4293021 4293991 4286362 4274483 
2069.377 4262369 4251629 4240386 4225698 4205791 4180699 4154137 4130186 
2073.235 4111521 4097639 4085364 4069410 4046567 4017238 3984767 3954906 
2077.092 3932370 3918795 3912376 3909066 3904419 3896362 3884928 3872057 
2080.949 3859721 3848622 3838326 3827563 3816532 3806504 3800588 3801123 
2084.807 3808276 3818972 3828231 3829903 3819641 3796610 3763420 3723783 
2088.664 3681744 3639374 3596508 3552242 3506144 3459416 3415632 3379166 
2092.522 3353488 3340031 3338462 3346743 3362904 3385410 3412760 3443285 
2096.379 3474312 3501601 3521476 3531765 3533001 3528959 3524816 3524883 
2100.237 3531430 3543791 3559257 3575193 3591095 3607900 3627980 3653040 
2104.094 3682044 3711352 3736850 3755165 3766495 3774149 3783708 3799752 
2107.951 3823953 3854138 3885998 3915619 3941465 3965640 3992257 4025097 
2111.809 4064594 4108009 4148852 4180599 4199936 4207464 4207932 4207698 
2115.666 4212750 4225732 4246442 4272910 4302457 4334116 4367416 4401890 
2119.524 4436233 4467901 4493210 4509783 4517885 4520061 4520864 4524213 
2123.381 4532080 4542761 4552974 4558766 4558197 4552103 4542996 4533420 
2127.239 4523710 4511256 4491302 4459532 4413505 4354698 4287733 4218437 
2131.096 4151762 4090716 4036501 3989682 3952365 3927689 3918762 3927020 
2134.953 3949022 3976741 4000450 4011519 4005232 3983964 3954304 3924346 
2138.811 3899939 3883056 3870987 3860256 3847954 3833981 3821680 3814125 
2142.668 3812888 3816699 3822181 3825591 3825357 3822582 3818905 3816198 
2146.526 3813289 3805668 3788120 3758507 3718436 3676063 3641279 3622501 
2150.383 3622267 3637737 3659924 3678770 3688126 3685353 3672053 3651035 
2154.240 3623704 3589625 3550238 3511789 3488675 3501802 3574191 3720107 
2158.098 3938221 4206226 4487385 4742731 4940782 5068050 5127624 5134363 
2161.955 5106201 5060139 5008149 4956668 4911057 4875135 4851613 4841192 
2165.813 4842164 4848631 4854629 4855165 4848932 4837607 4825881 4816097 
2169.670 4808559 4801088 4788860 4769061 4742128 4711780 4684147 4664487 
2173.528 4655177 4655177 4661372 4669980 4678755 4686860 4693124 4693860 
2177.385 4685051 4660200 4615223 4551902 4477208 4402024 4338600 4295162 
2181.242 4273679 4270768 4279769 4295296 4316680 4346632 4388301 4442560 
2185.100 4504961 4566300 4617199 4650722 4666430 4670482 4672492 4680999 
2188.957 4700492 4729935 4764505 4798810 4830437 4859018 4886997 4916117 
2192.815 4944804 4969236 4984854 4988675 4982441 4971716 4963404 4963337 
2196.672 4972755 4988441 5003289 5011601 5009456 4997088 4977748 4955026 
2200.530 4931331 4907136 4882071 4856840 4834759 4820989 4821223 4838244 
2204.387 4871214 4913771 4958846 4998764 5029936 5052998 5071369 5088969 
2208.244 5108246 5129200 5149586 5167055 5180501 5189923 5196395 5201056 
2212.102 5202833 5200017 5190996 5175840 5156459 5137482 5122696 5115018 
2215.959 5114448 5118405 5123467 5127993 5131949 5137851 5148177 5163735 
2219.817 5182982 5202733 5218426 5227749 5231002 5230130 5227884 5225469 
2223.674 5221545 5212558 5195322 5168262 5131949 5090276 5047300 5006138 
2227.531 4967426 4930225 4892559 4854963 4819649 4790535 4771339 4763668 
2231.389 4765477 4771942 4777168 4777068 4770435 4759313 4747153 4737740 
2235.246 4733285 4733519 4738577 4748158 4763299 4785476 4815696 4852685 
2239.104 4892425 4929824 4960052 4980832 4993501 5001244 5008283 5017366 
2242.961 5028160 5037680 5042942 5041735 5034595 5025109 5017534 5015221 
2246.819 5019713 5029199 5040596 5051255 5059569 5066206 5072643 5080621 
2250.676 5090779 5102614 5115421 5128831 5143416 5160550 5180869 5204208 
2254.533 5228688 5250789 5267624 5276948 5278189 5272253 5261420 5246764 
2258.391 5229560 5211116 5192807 5176544 5165412 5161455 5165110 5174834 
2262.248 5186805 5196730 5201760 5201559 5198709 5197233 5201056 5211988 
2266.106 5229862 5252097 5275842 5299085 5321222 5342388 5363253 5382643 
2269.963 5398813 5409515 5413810 5412166 5407435 5403241 5402537 5406362 
2273.821 5413474 5420889 5426156 5427934 5426961 5425116 5424713 5426491 
2277.678 5430249 5434644 5438503 5442294 5447797 5457225 5472626 5494001 
2281.535 5518934 5544069 5566185 5583268 5595788 5605790 5615456 5626063 
2285.393 5637912 5649325 5658892 5665807 5670339 5673998 5678328 5684270 
2289.250 5691656 5700015 5708408 5716701 5725967 5737517 5752525 5771563 
2293.108 5793960 5818204 5843424 5868881 5894675 5921478 5949828 5978751 
2296.965 6007373 6033780 6056862 6076418 6093117 6107869 6120974 6131930 
2300.823 6139020 6140398 6135156 6123864 6108776 6092916 6078904 6068387 
2304.680 6061297 6056694 6053401 6050982 6049941 6051150 6055216 6061667 
2308.537 6068757 6074401 6076451 6074401 6068857 6061432 6053973 6047790 
2312.395 6043019 6039391 6036636 6034855 6034687 6036871 6041507 6047253 
2316.252 6052057 6053637 6050277 6042348 6031730 6021484 6014731 6013084 
2320.110 6016813 6024709 6034620 6044330 6051419 6053536 6047421 6029983 
2323.967 5998101 5950298 5887588 5814208 5736140 5660570 5593807 5538800 
2327.824 5496048 5462828 5435886 5412434 5391768 5375061 5364595 5362549 
2331.682 5369157 5383481 5403678 5427599 5453668 5481753 5511517 5542525 
2335.539 5574039 5604481 5632877 5658657 5682390 5704917 5727377 5749436 
2339.397 5770186 5788251 5802522 5812932 5820555 5827036 5833752 5841006 
2343.254 5848260 5855346 5863003 5874322 5894305 5928599 5981472 6053905 
2347.112 6143658 6245530 6352839 6459435 6560136 6651339 6731423 6799472 
2350.969 6855413 6899713 6933548 6958260 6976408 6990853 7004322 7019340 
2354.826 7037861 7061334 7091207 7128693 7174841 7230190 7294240 7365006 
2358.684 7439896 7516045 7591096 7664136 7735872 7807621 7880461 7955272 
2362.541 8031578 8107832 8182479 8254267 8322420 8386699 8446528 8501297 
2366.399 8550361 8592875 8628463 8656518 8677373 8690692 8696066 8693092 
2370.256 8681768 8663345 8640766 8618155 8600343 8592367 8597336 8617613 
2374.114 8654151 8707019 8776393 8862820 8966753 9088169 9226643 9380430 
2377.971 9547448 9725642 9913064 10108875 10312544 10523540 10740480 
2381.346 10961708 11184544 11405999 11622972 11832561 12031284 12215682 
2384.721 12381748 12525028 12642769 12732904 12795860 12834149 12851589 
2388.097 12851965 12838244 12811592 12771836 12718233 12649796 12567079 
2391.472 12471590 12365998 12253341 12136524 12018033 11899916 11783908 
2394.847 11671607 11564167 11462741 11367903 11280397 11201034 11131442 
2398.222 11073995 11031918 11008638 11006565 11026820 11068727 11130320 
2401.598 11208922 11301753 11406917 11522654 11648157 11782308 11924471 
2404.973 12074037 12231359 12397431 12574139 12763170 12965698 13181949 
2408.348 13410883 13650845 13900587 14159202 14426466 14702326 14985872 
2411.723 15274477 15563996 15848929 16122771 16379962 16615614 16825424 
2415.099 17006872 17157614 17276342 17362790 17418350 17445736 17448564 
2418.474 17430974 17396172 17346410 17282688 17205288 17114634 17012076 
2421.849 16899690 16780236 16656583 16531037 16405595 16282152 16163316 
2425.224 16052730 15955029 15874945 15816661 15782952 15774947 15792128 
2428.600 15833981 15899587 15989060 16102655 16240221 16400572 16582154 
2431.975 16782062 16998018 17228386 17472744 17731322 18005006 18294070 
2435.350 18598786 18919184 19255578 19608700 19980114 20371396 20783398 
2438.725 21216110 21668898 22140602 22630934 23140622 23671798 24227026 
2442.101 24808892 25418412 26055772 26719792 27408580 28120484 28854060 
2445.476 29607712 30379374 31166222 31964592 32770220 33578636 34386116 
2448.851 35188960 35984328 36769112 37540752 38296832 39035524 39755144 
2452.226 40454280 41130464 41780088 42397624 42975428 43504560 43976512 
2455.602 44382508 44715240 44969064 45139096 45221420 45212924 45110936 
2458.977 44913648 44619868 44229316 43742540 43161080 42487792 41726832 
2462.352 40884556 39968848 38988804 37954696 36877704 35768152 34636448 
2465.727 33493552 32349012 31213394 30097318 29010528 27963202 26964544 
2469.103 26021718 25140614 24324610 23574852 22890542 22269278 21707490 
2472.478 21200384 20742560 20328650 19952706 19609914 19295482 19005820 
2475.853 18737592 18488408 18255504 18036608 17829630 17632792 17445116 
2479.228 17265518 17093128 16927042 16765704 16607696 16452463 16300246 
2482.604 16152518 16012438 15882781 15765533 15661677 15570074 15488550 
2485.979 15414937 15347620 15285905 15230309 15181377 15139380 15103494 
2489.354 15072859 15046274 15023738 15006211 14995064 14991943 14997499 
2492.729 15010566 15029809 15052723 15077901 15104969 15134783 15168167 
2496.104 15205877 15247365 15290539 15332791 15371168 15403952 15430387 
2499.480 15450712 15465751 15476463 15483846 15488894 15492568 15496344 
2502.855 15501495 15508707 15518390 15529482 15540814 15550739 15558947 
2506.230 15565403 15571241 15577354 15584499 15592535 15600366 15606239 
2509.605 15608815 15606445 15597893 15581785 15556336 15519179 15468773 
2512.981 15403884 15324621 15232780 15131283 15023155 14911556 14798958 
2516.356 14686834 14576452 14469524 14367485 14272662 14186212 14108747 
2519.731 14039954 13979179 13925049 13877152 13835248 13799845 13770636 
2523.106 13747277 13727921 13711369 13696117 13682952 13673276 13669377 
2526.482 13673309 13686098 13706991 13733939 13764035 13795775 13827791 
2529.857 13859945 13892958 13926896 13961523 13996219 14030783 14065417 
2533.232 14101833 14142052 14187650 14239552 14296803 14357519 14419992 
2536.607 14483056 14546848 14613186 14683646 14759603 14841230 14927330 
2539.983 15016055 15105929 15195822 15285872 15376626 15467948 15559462 
2543.358 15649827 15737703 15822195 15903609 15982838 16061189 16139416 
2546.733 16217828 16295498 16371187 16444240 16514551 16583014 16650764 
2550.108 16718423 16786022 16852324 16915708 16974622 17028374 17077102 
2553.484 17121528 17162890 17202116 17239762 17276206 17311202 17344652 
2556.859 17376068 17404348 17427524 17443322 17449048 17443184 17424904 
2560.234 17394966 17354824 17307066 17253278 17194706 17131834 17064972 
2563.609 16994226 16920738 16845710 16770456 16696179 16623670 16553272 
2566.985 16485674 16421907 16363755 16313249 16271660 16239773 16216796 
2570.360 16201217 16191104 16185395 16183641 16186461 16194681 16209196 
2573.735 16229866 16255768 16285866 16319409 16356187 16396787 16442141 
2577.110 16493075 16549520 16610932 16675863 16743217 16811784 16881328 
2580.486 16951916 17024032 17098332 17175298 17255588 17339342 17426904 
2583.861 17518002 17611778 17707404 17803566 17898992 17993608 18087730 
2587.236 18181732 18276514 18372008 18466936 18559534 18647552 18729496 
2590.611 18805128 18875198 18941784 19006720 19071734 19137242 19203454 
2593.987 19270196 19337398 19405892 19476858 19551854 19631580 19716206 
2597.362 19805256 19897828 19993436 20091774 20193326 20298790 20408936 
2600.737 20524180 20644840 20771058 20902808 21040616 21184590 21334560 
2604.112 21490330 21651064 21815970 21984424 22156082 22330808 22508884 
2607.488 22689790 22872868 23056512 23238872 23418194 23592762 23761138 
2610.863 23921980 24073462 24213714 24340556 24451836 24546138 24623172 
2614.238 24683246 24727650 24757466 24773848 24777248 24767672 24745468 
2617.613 24711410 24666868 24614090 24555638 24494146 24431926 24370906 
2620.989 24312276 24257052 24205482 24158014 24114264 24073918 24036900 
2624.364 24003318 23974114 23950480 23934584 23927758 23931364 23945718 
2627.739 23970436 24004926 24048104 24099798 24159660 24227728 24303760 
2631.114 24386746 24475426 24567912 24663046 24759780 24858500 24959700 
2634.490 25064924 25174846 25290272 25411070 25536820 25667318 25801862 
2637.865 25940002 26081034 26224120 26368168 26511558 26653304 26792032 
2641.240 26927386 27059112 27187316 27312276 27434626 27554574 27672788 
2644.615 27790048 27906878 28024272 28142402 28261696 28382156 28504206 
2647.990 28627988 28754356 28884336 29018996 29159048 29305136 29457194 
2651.366 29615054 29778078 29946278 30119408 30297722 30481370 30670750 
2654.741 30865798 31066376 31272606 31483884 31700396 31922188 32149196 
2658.116 32381498 32618892 32861378 33108260 33359074 33612572 33867940 
2661.491 34123956 34379412 34633328 34885308 35135284 35383712 35631060 
2664.867 35878152 36125816 36374488 36624960 36877596 37132580 37390352 
2668.242 37650628 37913044 38177388 38443240 38710704 38980176 39252576 
2671.617 39529064 39810084 40095940 40385440 40676916 40967492 41254400 
2674.992 41534828 41806428 42067684 42317916 42557408 42786972 43008316 
2678.368 43223772 43436040 43648228 43863780 44085604 44316932 44560500 
2681.743 44818896 45094468 45389160 45704956 46043092 46404344 46788816 
2685.118 47196044 47624920 48074060 48541776 49026360 49526004 50039048 
2688.493 50563980 51099984 51646428 52203384 52771084 53349756 53939704 
2691.869 54540900 55153232 55776604 56411172 57056944 57714164 58382728 
2695.244 59062264 59751992 60451268 61159384 61875756 62600472 63333148 
2698.619 64073400 64820020 65571868 66327176 67084536 67842952 68602032 
2701.994 69361000 70118688 70872752 71619256 72353736 73070480 73764144 
2705.370 74429936 75063344 75660208 76216344 76727216 77188304 77595408 
2708.745 77944800 78234288 78462352 78629224 78735616 78783208 78774032 
2712.120 78710448 78594320 78427272 78209776 77941472 77621040 77247168 
2715.495 76818440 76334832 75797368 75208664 74572328 73892336 73173400 
2718.871 72420280 71638128 70833040 70011072 69178960 68343208 67509720 
2722.246 66684036 65871036 65075404 64301676 63555056 62840044 62161112 
2725.621 61522100 60925464 60372788 59864816 59401540 58983464 58610916 
2728.996 58284268 58003760 57769040 57578632 57430660 57322552 57252004 
2732.372 57217036 57216168 57248600 57313704 57410728 57538568 57695736 
2735.747 57880064 58088824 58318488 58566092 58826932 59096772 59371184 
2739.122 59645472 59915284 60177200 60427620 60663896 60884028 61086800 
2742.497 61271656 61439300 61591932 61732084 61863304 61988984 62112248 
2745.873 62235096 62359276 62485520 62614136 62745316 62879176 63015916 
2749.248 63155652 63298376 63444144 63593568 63747452 63907376 64075664 
2752.623 64254956 64448736 64660488 64893580 65151588 65437520 65753436 
2755.998 66100956 66479988 66889612 67326976 67788992 68271000 68767600 
2759.374 69273200 69781176 70284296 70775288 71246528 71690416 72100568 
2762.749 72470736 72795584 73070992 73292872 73458672 73566440 73616048 
2766.124 73609064 73548576 73439560 73287304 73097920 72877712 72632384 
2769.499 72367864 72090272 71804976 71517712 71233336 70955888 70688984 
2772.875 70434800 70195368 69971872 69765144 69574928 69400456 69239816 
2776.250 69090536 68948960 68810928 68671688 68525512 68366168 68187064 
2779.625 67980952 67741672 67464512 67147072 66789636 66395700 65970840 
2783.000 65521656 65055892 64580940 64102924 63628092 63161052 62705352 
2786.375 62263700 61837092 61425520 61028260 60644048 60271748 59910876 
2789.751 59561664 59224844 58901340 58591464 58295636 58013304 57744060 
2793.126 57486900 57241116 57005672 56779080 56559664 56344924 56132060 
2796.501 55918020 55700204 55475684 55242288 54997696 54740312 54467948 
2799.876 54179456 53874056 53551476 53212280 52857260 52487272 52102884 
2803.252 51704420 51292084 50866800 50429692 49983020 49529976 49074104 
2806.627 48619372 48169636 47728204 47298524 46883408 46485724 46108264 
2810.002 45753404 45423628 45120348 44844580 44596444 44375684 44181444 
2813.377 44012552 43868180 43746868 43647824 43570344 43513828 43477860 
2816.753 43462588 43468632 43496648 43548036 43624120 43726312 43855864 
2820.128 44013948 44200704 44415648 44657548 44924416 45213988 45524144 
2823.503 45853076 46199060 46560924 46937300 47325900 47723284 48124992 
2826.878 48525068 48916984 49294260 49650168 49979228 50276732 50538184 
2830.254 50761096 50943472 51085072 51186908 51251292 51282316 51284328 
2833.629 51263112 51224416 51174496 51120036 51067668 51023360 50992956 
2837.004 50980992 50990980 51026004 51088320 51181056 51307896 51474312 
2840.379 51686880 51954000 52284476 52688856 53178536 53765664 54464116 
2843.755 55288952 56254396 57373668 58655476 60099984 61695112 63413120 
2847.130 65209144 67016020 68751920 70325120 71636168 72597536 73139608 
2850.505 73218744 72825824 71983896 70746776 69184992 67383936 65433204 
2853.880 63412972 61398460 59452220 57619568 55934188 54415024 53068036 
2857.256 51889324 50866392 49982908 49218548 48553336 47968624 47446632 
2860.631 46972076 46532748 46118140 45720972 45337556 44966600 44609956 
2864.006 44271544 43955868 43667756 43411980 43192296 43011608 42872212 
2867.381 42775488 42721524 42709204 42735784 42797356 42888524 43003124 
2870.757 43134512 43275604 43419412 43559684 43690436 43808032 43910924 
2874.132 44000528 44081016 44159032 44242780 44339644 44456684 44598940 
2877.507 44769268 44969284 45198988 45458064 45745012 46058232 46395384 
2880.882 46753684 47129752 47520740 47923332 48334444 48751212 49170008 
2884.258 49587024 49998636 50401076 50791524 51168644 51531984 51882156 
2887.633 52220572 52548972 52869196 53183480 53495068 53807180 54124544 
2891.008 54452472 54796548 55163052 55558672 55990460 56466640 56996532 
2894.383 57589336 58253764 58995912 59816748 60710116 61661884 62648320 
2897.759 63635492 64584972 65454124 66201240 66793420 67208568 67439744 
2901.134 67496016 67401312 67190616 66902256 66577732 66254764 65964168 
2904.509 65732120 65577956 65516152 65557884 65711500 65983376 66379256 
2907.884 66904188 67563448 68363216 69309808 70408768 71663760 73074240 
2911.260 74633392 76325712 78127856 80005344 81913344 83801800 85611776 
2914.635 87282736 88760152 89995680 90955984 91626016 92008840 92123512 
2918.010 91999992 91674952 91183032 90553320 89807360 88957224 88006960 
2921.385 86956272 85803088 84547368 83194048 81754048 80244904 78689864 
2924.760 77113592 75542096 73998912 72502376 71067240 69702896 68414760 
2928.136 67205664 66076108 65025604 64052656 63155264 62330784 61576008 
2931.511 60887536 60261584 59694280 59181780 58720828 58307916 57940528 
2934.886 57615936 57331584 57084568 56871040 56685856 56523016 56375408 
2938.261 56235988 56098884 55959856 55817368 55672408 55527868 55387972 
2941.637 55256628 55136868 55029856 54934296 54846016 54758428 54662520 
2945.012 54547320 54402556 54219472 53993128 53724528 53420720 53095556 
2948.387 52765848 52451004 52168484 51931036 51745588 51612356 51525868 
2951.762 51475468 51448236 51430816 51409928 51374088 51314720 51224860 
2955.138 51100056 50938220 50738452 50501224 50227928 49920980 49583344 
2958.513 49218732 48832180 48428448 48013028 47591092 47167276 46745604 
2961.888 46329764 45922416 45526680 45145312 44780876 44436200 44113588 
2965.263 43815176 43542872 43298044 43081892 42894960 42736844 42605796 
2968.639 42498536 42410152 42334940 42266348 42198932 42128392 42052312 
2972.014 41970448 41884180 41796216 41709544 41627412 41552368 41485212 
2975.389 41424880 41367404 41306000 41229660 41125508 40979036 40775680 
2978.764 40503780 40155580 39728784 39227260 38660392 38043044 37392304 
2982.140 36727712 36069144 35433500 34835980 34287824 33795372 33361826 
2985.515 32987018 32669398 32406810 32198794 32044988 31945296 31896870 
2988.890 31891878 31914380 31941410 31943336 31886778 31742278 31488586 
2992.265 31117062 30634126 30060956 29429998 28775810 28133634 27531486 
2995.641 26986650 26506626 26090008 25729504 25415144 25136646 24885658 
2999.016 24655400 24441108 24239466 24048072 23865232 23689784 23521086 
3002.391 23358750 23202518 23052074 22906746 22765764 22628736 22495484 
3005.766 22366530 22243088 22126270 22017364 21917092 21825274 21741488 
3009.142 21664682 21593674 21527306 21464568 21404588 21346464 21289774 
3012.517 21234168 21179824 21127188 21077274 21031052 20990154 20955728 
3015.892 20929026 20911014 20901974 20901696 20909068 20922488 20939282 
3019.267 20957120 20973532 20986538 20994988 20997978 20994814 20984416 
3022.643 20965186 20935562 20894360 20841518 20778184 20707318 20633130 
3026.018 20559648 20490556 20428348 20374036 20327158 20286640 20250846 
3029.393 20218214 20187114 20156256 20123980 20088928 20049958 20006136 
3032.768 19957494 19904210 19847360 19788022 19727788 19668084 19610920 
3036.144 19557988 19511442 19472906 19443590 19423874 19413340 19410674 
3039.519 19414312 19422730 19434928 19450244 19468714 19490546 19515880 
3042.894 19544714 19576638 19610780 19646104 19681120 19714058 19743634 
3046.269 19769016 19790136 19807788 19823776 19839938 19857836 19878264 
3049.645 19900394 19922456 19941952 19956522 19964292 19964606 19957216 
3053.020 19942922 19922318 19895990 19864980 19830158 19792980 19755250 
3056.395 19718600 19684172 19652380 19623224 19595874 19570156 19546100 
3059.770 19524752 19506832 19493422 19484030 19477410 19471624 19464762 
3063.146 19455580 19444352 19432676 19422904 19417118 19416736 19422002 
3066.521 19431808 19444770 19459392 19474880 19490960 19507804 19525894 
3069.896 19545510 19566654 19589566 19614212 19640904 19670128 19702338 
3073.271 19737740 19776472 19818366 19863246 19910628 19960304 20011548 
3076.646 20063560 20115130 20165142 20212626 20257372 20299138 20338720 
3080.022 20376986 20414700 20452522 20490450 20528244 20565102 20600366 
3083.397 20632990 20662004 20686782 20707110 20723374 20737380 20751006 
3086.772 20766992 20787396 20813396 20844854 20880732 20919080 20958058 
3090.147 20996762 21034982 21073238 21112266 21152376 21193252 21234376 
3093.523 21275296 21315768 21356870 21400168 21447406 21500008 21558226 
3096.898 21621218 21687324 21754236 21819908 21883044 21942532 21998298 
3100.273 22050724 22100332 22147960 22194752 22241588 22289300 22337994 
3103.648 22387496 22437350 22487144 22536732 22586604 22637602 22690872 
3107.024 22746838 22805432 22865848 22926762 22987022 23046134 23104488 
3110.399 23163164 23223210 23285364 23350008 23416620 23484678 23553652 
3113.774 23623690 23694404 23765898 23837474 23908186 23976214 24040682 
3117.149 24100920 24157594 24211962 24266198 24322158 24380824 24442440 
3120.525 24506556 24572120 24638462 24704922 24771322 24837766 24904184 
3123.900 24970648 25037090 25103504 25169894 25236506 25303196 25369722 
3127.275 25435662 25500556 25564406 25627316 25690024 25753728 25819408 
3130.650 25887350 25957342 26028542 26099788 26170236 26239396 26307260 
3134.026 26374574 26441830 26509868 26579256 26650452 26723598 26798800 
3137.401 26875778 26953826 27031748 27108344 27182308 27253214 27321204 
3140.776 27387404 27453298 27520400 27589774 27661454 27735052 27809758 
3144.151 27884832 27960094 28035546 28111610 28188362 28265764 28343462 
3147.527 28421386 28499676 28579010 28660374 28745080 28833450 28925664 
3150.902 29020624 29117024 29212984 29306980 29397946 29485350 29569508 
3154.277 29651166 29731276 29811472 29893032 29977128 30064756 30155882 
3157.652 30250118 30346256 30443412 30540590 30637966 30736004 30835738 
3161.028 30938126 31043492 31151520 31261246 31371250 31480358 31588134 
3164.403 31694196 31798958 31902790 32005858 32107524 32207288 32304536 
3167.778 32398454 32489036 32576244 32660432 32741994 32820926 32896940 
3171.153 32969468 33037498 33100392 33157394 33208396 33253248 33292382 
3174.529 33326194 33355206 33379860 33400652 33417932 33432248 33444698 
3177.904 33456512 33468786 33483424 33500996 33521936 33546168 33573012 
3181.279 33601760 33631580 33662012 33692556 33722960 33752896 33781724 
3184.654 33809268 33835376 33860524 33885672 33911964 33940552 33972300 
3188.030 34006912 34043964 34082492 34121412 34159872 34197444 34233864 
3191.405 34268964 34302704 34335084 34366468 34397416 34428868 34461508 
3194.780 34495624 34530996 34566480 34600600 34632252 34660852 34687016 
3198.155 34712280 34738160 34766372 34797172 34830164 34864128 34897448 
3201.531 34929044 34958208 34984780 35009056 35031256 35051692 35070912 
3204.906 35089588 35109096 35130432 35154900 35182636 35213144 35244872 
3208.281 35276244 35306004 35333820 35360204 35386588 35414088 35443064 
3211.656 35473012 35502496 35529680 35553484 35573156 35589340 35603004 
3215.031 35615484 35627392 35639548 35651992 35665160 35679260 35694724 
3218.407 35711884 35731024 35751744 35773836 35796900 35820896 35845908 
3221.782 35872468 35900500 35929472 35958840 35987528 36014924 36041172 
3225.157 36066876 36093480 36121820 36152536 36185088 36218764 36252116 
3228.532 36284208 36314576 36343684 36371716 36399636 36427308 36454836 
3231.908 36482120 36509004 36535996 36563644 36592840 36623984 36657156 
3235.283 36692232 36728436 36765612 36803080 36840624 36877920 36914536 
3238.658 36950248 36985064 37019700 37055352 37093460 37135504 37181560 
3242.033 37231088 37281844 37331528 37377568 37418776 37454924 37487436 
3245.409 37518104 37548664 37580348 37613660 37648204 37683796 37720008 
3248.784 37757052 37794536 37832384 37869836 37905884 37940488 37973032 
3252.159 38004348 38035592 38067856 38101712 38137088 38172796 38207204 
3255.534 38238720 38266256 38289524 38308884 38325244 38339612 38352712 
3258.910 38365088 38377068 38388872 38400780 38412432 38423368 38433320 
3262.285 38441248 38446572 38448780 38447548 38443496 38436832 38428072 
3265.660 38417792 38406316 38394084 38381596 38369400 38357924 38347356 
3269.035 38337692 38327956 38317168 38304360 38288368 38268644 38245052 
3272.411 38217984 38188064 38156664 38124716 38093828 38064780 38038524 
3275.786 38014800 37993028 37971912 37950212 37927648 37904184 37881116 
3279.161 37859860 37841748 37826996 37815252 37804552 37792732 37778488 
3282.536 37760920 37740788 37719396 37698144 37677908 37658824 37640508 
3285.912 37621932 37602568 37582552 37562756 37544184 37527712 37513444 
3289.287 37501304 37490252 37479344 37468184 37456660 37445140 37434740 
3292.662 37426500 37421592 37421048 37426140 37436976 37453808 37475476 
3296.037 37500620 37527060 37553252 37577640 37600400 37622260 37644624 
3299.413 37668800 37695580 37724524 37754596 37784632 37813876 37842796 
3302.788 37872512 37905124 37942512 37985760 38034872 38088584 38145120 
3306.163 38202428 38258980 38313768 38366828 38418552 38469740 38521116 
3309.538 38573256 38626416 38680748 38736060 38792396 38850000 38908888 
3312.914 38969880 39033208 39099368 39168296 39239844 39313404 39388096 
3316.289 39463200 39537916 39611816 39684596 39756304 39826972 39896996 
3319.664 39966848 40036460 40105972 40174912 40242448 40307776 40369584 
3323.039 40427948 40483012 40536300 40589412 40644204 40701476 40760468 
3326.415 40819648 40876620 40929116 40976304 41018652 41057728 41095972 
3329.790 41134764 41174252 41213052 41248500 41278156 41299660 41312556 
3333.165 41317220 41315436 41308516 41298016 41284572 41268832 41251084 
3336.540 41232032 41212212 41191956 41171012 41148640 41123068 41092692 
3339.916 41056020 41012208 40960828 40902320 40836976 40765088 40687248 
3343.291 40603416 40514256 40420348 40322572 40221544 40117492 40010484 
3346.666 39900228 39786588 39670112 39551420 39432032 39312928 39194584 
3350.041 39077252 38959736 38841124 38720520 38597484 38472092 38344968 
3353.417 38217300 38089668 37962868 37837592 37714444 37593788 37476384 
3356.792 37362220 37251664 37144600 37040812 36940616 36844556 36752992 
3360.167 36666600 36585668 36509544 36436784 36365732 36294544 36221896 
3363.542 36147600 36071988 35996352 35922204 35850836 35783408 35720484 
3366.917 35662136 35608044 35557836 35510476 35465212 35420992 35376916 
3370.293 35332380 35286740 35239664 35190148 35137440 35080036 35016852 
3373.668 34947288 34871380 34789812 34703988 34614704 34522708 34427828 
3377.043 34329096 34225188 34114928 33997668 33873132 33741152 33601544 
3380.418 33453972 33297536 33131644 32956026 32771218 32578316 32378894 
3383.794 32174244 31965054 31751656 31534012 31312276 31087306 30860176 
3387.169 30632240 30405136 30179500 29955686 29732980 29510812 29288688 
3390.544 29066678 28844710 28623600 28403556 28184896 27967586 27751652 
3393.919 27536850 27323214 27110708 26899076 26687938 26477184 26266674 
3397.295 26057144 25849966 25646964 25449468 25258244 25072754 24891202 
3400.670 24711094 24530186 24346688 24160360 23971628 23781786 23592134 
3404.045 23403192 23215346 23028560 22842728 22658232 22475768 22296484 
3407.420 22120762 21949188 21780888 21614742 21449564 21284658 21119710 
3410.796 20955764 20793616 20634832 20480100 20329936 20183642 20040764 
3414.171 19899840 19760244 19621352 19483302 19346404 19211836 19080458 
3417.546 18952652 18828586 18707738 18588964 18471536 18354760 18238502 
3420.921 18123552 18010774 17900926 17794212 17689940 17587106 17484264 
3424.297 17380964 17276756 17172818 17070520 16970970 16875128 16783026 
3427.672 16693665 16605871 16518233 16429752 16339775 16248338 16155303 
3431.047 16061189 15966648 15872745 15780685 15691873 15606960 15526494 
3434.422 15449991 15375905 15302552 15228490 15153036 15076015 14998563 
3437.798 14921604 14846030 14772252 14699721 14627716 14555448 14482473 
3441.173 14408723 14334985 14262013 14190012 14119186 14049091 13978699 
3444.548 13907054 13832819 13755485 13674985 13592073 13508219 13425954 
3447.923 13347462 13274416 13207805 13146942 13090047 13034594 12978637 
3451.299 12920057 12858449 12794427 12728776 12662453 12596173 12529836 
3454.674 12463134 12395828 12328158 12260703 12194110 12129061 12064772 
3458.049 12000388 11934722 11866271 11795041 11721712 11647986 11575703 
3461.424 11506255 11439982 11376338 11313995 11251152 11187197 11121720 
3464.800 11054995 10988452 10922802 10859301 10798697 10741057 10686141 
3468.175 10633134 10580303 10525814 10467566 10404064 10334872 10261347 
3471.550 10185800 10111520 10041628 9978495 9922793 9873642 9829172 9786876 
3475.407 9744686 9701314 9656117 9609300 9561233 9512223 9462610 9412460 
3479.265 9361673 9310452 9259034 9207656 9156757 9107286 9059985 9016208 
3483.122 8976630 8941926 8911351 8883619 8856395 8827044 8793805 8755937 
3486.980 8714085 8670309 8627483 8588041 8554112 8526301 8504203 8487004 
3490.837 8473388 8462070 8452373 8443318 8434569 8425852 8417035 8408691 
3494.695 8401394 8396192 8393793 8394537 8398691 8405481 8414468 8425311 
3498.552 8438014 8452778 8470246 8490079 8512008 8535053 8557897 8579965 
3502.409 8601627 8623968 8649318 8680145 8718817 8765979 8822005 8884802 
3506.267 8952006 9020844 9088744 9153745 9215237 9273758 9331238 9390350 
3510.124 9454483 9525635 9605438 9693318 9787520 9885641 9985004 10083169 
3513.982 10178914 10271559 10360762 10446692 10528666 10606208 10678602 
3517.357 10745744 10807869 10865892 10921136 10973975 11024407 11071106 
3520.732 11111556 11143238 11163636 11170945 11164928 11146162 11115805 
3524.107 11075287 11025223 10965412 10894804 10811945 10715449 10605122 
3527.483 10482059 10348749 10208934 10066213 9923810 9783860 9647004 9512528 
3531.340 9379076 9245359 9109147 8968884 8822851 8669531 8508358 8339848 
3535.198 8165935 7990268 7817202 7651321 7495818 7351998 7219039 7094776 
3539.055 6975836 6859890 6744615 6629268 6513819 6398030 6282339 6166645 
3542.912 6050512 5934074 5817465 5700720 5584107 5467861 5352317 5237709 
3546.770 5125646 5017501 4915212 4819884 4731476 4648143 4567371 4486213 
3550.627 4402258 4315575 4227337 4141158 4060346 3987542 3923343 3866541 
3554.485 3814159 3763487 3712454 3660291 3607232 3554146 3501468 3449263 
3558.342 3397332 3345207 3292787 3240808 3190470 3142942 3098890 3058779 
3562.199 3021242 2985509 2949446 2911283 2868856 2820095 2762571 2695151 
3566.057 2617842 2533081 2446137 2363975 2292854 2237430 2198332 2173289 
3569.914 2157572 2145351 2132032 2114618 2092244 2065443 2035714 2004922 
3573.772 1973833 1942580 1910729 1877284 1841778 1804080 1764787 1724899 
3577.629 1685548 1648129 1613673 1583276 1557105 1535259 1517170 1502208 
3581.487 1489274 1477904 1467531 1457624 1447417 1435583 1419925 1397420 
3585.344 1364846 1319976 1262417 1194998 1122905 1054045 996123 954413 
3589.201 931202 925126 931999 946344 962649 975699 981444 977725 963545 
3593.541 939537 908192 872599 836312 802418 773440 750272 732813 720036 
3597.881 709946 700587 690863 679845 668330 658043 651406 650676 657611 
3602.220 672180 693585 718708 743965 765739 780377 784792 776925 755715 
3606.560 721098 674337 618655 558269 499020 446246 403528 372254 350500 
3610.899 334617 320159 303879 284449 262733 242045 225204 214264 208562 
3615.239 204816 198418 184231 158641 120790 73033 20344 -29521 -69112 -92599 
3620.061 -97734 -85477 -60299 -27765 6792 39000 66670 88874 106936 122281 
3624.883 135539 145880 149095 139583 110416 56629 -21901 -116516 -210880 
3629.222 -286051 -327538 -331843 -306381 -264594 -220086 -183291 -160206 
3633.080 -151727 -154874 -163883 -173653 -180741 -184318 -185676 -187001 
3636.937 -190213 -195446 -202004 -207932 -211840 -212900 -211012 -206740 
3640.794 -200944 -193525 -183755 -171169 -155138 -136292 -116318 -98032 
3644.652 -84781 -80243 -87233 -107738 -142254 -189452 -246381 -308600 
3648.509 -370744 -426921 -471175 -498447 -505529 -491232 -457671 -409674 
3652.367 -353661 -296912 -246215 -207932 -186040 -182397 -195612 -220749 
3656.224 -249427 -273667 -286448 -285157 -270256 -245586 -216212 -186637 
3660.082 -160835 -140962 -127348 -118603 -112574 -106910 -99457 -88790 
3663.939 -74379 -55761 -32039 -2418 33433 75485 122414 171502 221159 272182 
3668.761 332229 415500 543008 736564 1009142 1362120 1784882 2261211 2772641 
3673.100 3300132 3823451 4310455 4716168 4987401 5074051 4953081 4638197 
3676.958 4171399 3604593 2985242 2356746 1754474 1210414 751799 392716 
3680.815 133418 -40057 -148978 -216808 -261216 -292243 -313368 -324691 
3684.673 -327241 -325155 -325883 -337736 -367996 -419771 -490107 -571120 
3688.530 -651158 -720432 -772263 -805073 -820286 -820782 -809207 -787974 
3692.387 -760389 -729627 -699823 -674681 -656088 -644608 -638487 -634814 
3696.245 -630679 -624061 -614301 -603349 -593952 -589849 -594051 -609040 
3700.102 -634814 -669553 -708424 -745505 -773884 -788768 -787478 -770940 
3703.960 -742859 -707729 -670082 -633656 -600503 -571120 -546103 -525486 
3707.817 -510494 -502816 -504934 -518503 -544812 -582569 -629256 -680305 
3711.675 -729264 -769750 -795845 -803221 -790818 -760522 -717421 -667535 
3715.532 -618403 -576712 -546467 -529556 -524559 -528067 -536075 -545904 
3719.389 -556824 -569697 -585415 -604374 -624525 -642424 -654070 -657378 
3723.247 -652812 -643615 -635079 -631737 -635807 -646361 -658966 -668263 
3727.104 -668858 -657974 -636899 -609503 -581278 -558413 -546070 -546897 
3730.962 -560961 -584984 -613837 -641299 -663466 -679974 -694431 -711732 
3734.819 -736706 -770312 -808347 -842906 -864699 -867708 -850611 -816979 
3738.677 -772065 -721788 -670611 -620455 -573568 -532601 -502617 -491960 
3742.534 -510725 -566884 -659628 -774182 -883150 -954932 -971661 -934963 
3746.391 -862847 -778515 -703065 -652812 -635542 -650331 -688476 -737434 
3750.249 -784104 -820121 -842509 -850611 -844494 -823262 -785493 -732406 
3754.106 -668428 -600867 -538624 -489345 -458266 -446814 -452706 -470546 
3757.964 -494906 -521084 -546003 -567513 -583231 -590312 -585878 -569598 
3761.821 -543588 -513472 -486797 -470877 -470050 -484215 -507945 -533527 
3765.678 -552159 -558975 -554475 -544415 -535910 -536075 -548088 -570425 
3769.536 -598121 -623234 -638751 -640670 -628561 -605102 -574561 -541801 
3773.393 -510725 -484579 -464820 -452209 -446086 -445424 -449396 -457571 
3777.251 -469884 -486797 -507912 -531575 -554343 -571815 -579922 -576977 
3781.108 -564667 -547195 -530350 -519992 -519595 -529556 -547261 -568340 
3784.966 -587433 -601330 -607948 -608510 -604441 -597360 -588459 -578333 
3788.823 -567347 -556196 -546268 -538822 -534586 -533229 -533064 -532303 
3792.680 -529258 -523831 -517477 -513207 -513538 -519992 -531542 -544448 
3796.538 -553449 -554475 -545838 -530582 -514928 -507681 -518039 -552159 
3800.395 -611058 -686888 -765483 -827495 -858217 -852629 -815722 -760323 
3804.253 -701344 -653375 -626510 -624756 -644078 -673589 -698301 -704652 
3808.110 -686689 -646394 -592066 -532965 -477497 -430694 -393487 -364983 
3811.968 -343431 -328366 -321579 -326909 -348430 -388786 -445523 -510626 
3815.825 -570656 -611290 -624293 -609801 -576414 -537267 -507945 -501128 
3819.682 -525221 -580914 -659694 -744049 -812481 -849421 -848793 -815457 
3823.540 -760389 -697540 -638388 -590510 -557387 -537432 -526048 -517146 
3827.397 -505993 -490405 -471705 -453070 -438407 -430992 -431886 -440360 
3831.255 -453897 -468858 -481932 -490636 -493350 -490835 -484877 -478324 
3835.112 -475411 -480475 -497289 -527140 -568870 -617609 -666311 -707200 
3838.969 -734688 -746596 -744314 -730917 -710872 -687550 -662936 -638255 
3842.827 -613672 -588657 -563079 -536506 -509203 -481369 -453500 -425828 
3846.684 -398916 -372896 -347867 -323698 -300421 -279230 -262507 -254957 
3850.542 -263435 -295918 -360083 -459326 -588128 -730454 -859044 -948188 
3854.399 -983595 -966999 -912050 -835532 -752385 -671802 -599014 -535877 
3858.257 -482759 -439631 -406232 -383059 -370280 -367069 -372763 -385310 
3862.114 -403153 -424736 -448568 -473624 -496792 -514167 -521183 -514829 
3865.971 -495237 -467005 -438042 -418678 -418115 -442180 -489941 -553284 
3869.829 -617245 -666046 -689832 -687980 -667766 -640141 -615757 -601165 
3873.686 -596930 -598683 -598319 -588823 -565594 -529358 -484579 -438704 
3877.544 -399081 -372300 -362302 -369552 -390871 -419307 -446814 -465482 
3881.401 -470447 -461510 -442577 -420995 -404775 -401498 -415533 -445887 
3885.259 -485705 -523202 -546434 -547095 -524195 -483388 -434931 -390077 
3889.116 -358064 -345847 -354654 -381271 -417486 -453897 -481998 -496163 
3892.973 -495733 -482097 -458763 -429502 -397492 -366274 -338398 -316778 
3896.831 -303136 -298931 -303732 -315917 -332505 -349887 -364983 -376802 
3900.688 -385773 -394414 -405404 -421591 -443769 -470778 -499043 -523566 
3904.546 -539451 -542231 -530450 -505198 -469950 -429138 -388223 -351840 
3908.403 -322870 -302706 -290852 -284759 -280918 -276415 -268501 -255984 
3912.260 -239062 -219391 -199586 -182728 -171699 -169116 -176601 -193956 
3916.118 -219656 -250023 -281084 -308136 -328366 -340418 -344523 -342040 
3919.975 -335054 -325320 -314195 -302805 -292408 -284130 -279594 -279826 
3923.833 -285422 -295256 -306746 -316877 -322539 -321744 -314493 -302507 
3927.690 -287971 -273567 -261481 -253004 -248599 -248533 -252838 -261216 
3931.548 -273336 -287541 -301812 -313897 -321082 -322274 -317970 -309759 
3935.405 -300223 -291415 -284958 -280720 -278137 -275753 -272607 -268766 
3939.262 -264925 -262706 -263401 -267541 -275190 -285322 -296448 -306448 
3943.120 -314030 -317970 -317771 -313997 -307308 -299494 -292673 -288700 
3946.977 -289097 -294163 -302772 -312838 -322042 -328101 -329657 -327009 
3950.835 -320884 -312374 -302706 -292475 -282110 -271978 -262971 -256183 
3954.692 -252739 -253202 -256911 -262143 -266249 -266746 -262143 -252474 
3958.550 -239161 -224789 -212370 -204090 -200977 -202898 -208495 -215615 
3962.407 -222206 -226610 -227107 -223332 -215615 -204918 -192896 -181271 
3966.264 -171865 -165638 -162790 -162723 -164280 -166201 -167360 -167360 
3970.122 -165837 -162690 -158086 -151992 -144307 -135762 -127348 -120028 
3973.979 -114694 -111349 -109527 -107738 -104359 -98463 -89618 -78785 -66892 
3978.319 -55396 -44894 -35352 -26440 -18289 -10867 -5599 -3976 -6991 -14976 
3983.141 -26904 -40653 -54104 -65732 -74743 -81733 -87796 -93891 -100583 
3987.480 -107572 -113634 -117709 -118703 -116715 -112011 -105618 -98661 
3991.338 -92367 -87498 -85013 -85411 -88790 -94885 -102869 -111382 -119266 
3995.677 -125626 -130296 -133642 -136490 -139902 -144042 -148812 -153516 
3999.535 -157987 -162028 -166201 
##END=
