
##TITLE=1675_1_c
##JCAMP-DX=5.01  $$ Nicolet v. 1
##DATATYPE=INFRARED SPECTRUM
##ORIGIN=UniL
##OWNER=Nicolet
##LONGDATE=2011/09/16
##TIME=11:24:14
##SPECTROMETER/DATA SYSTEM=Nicolet iS5
##DATA PROCESSING=
Ratio against background
%Transmittance->Absorbance
Truncated
ElementMultiply or ElementDivide
##COMMENTS=
Number of sample scans: 32
Collection length: 51.15 sec
Sample gain: 2.0
Background collected on: Ven Sep 16 11:19:38 2011 (GMT+02:00);
Number of background scans: 32
Background gain: 2.0
Sample spacing:  1.000
Number of scan points: 12415
Resolution points: 8192
Number of FFT points: 65536
Apodization: N-B fort;
Phase correction: Mertz;
Laser frequency: 15798.0 cm-1
Number of rejected sample scans: 0
Number of rejected background scans: 0
Bench serial number: ASB1000141;
##RESOLUTION=4.000
##XUNITS=1/CM
##YUNITS=ABSORBANCE
##FIRSTX=649.893372
##LASTX=4000.122314
##FIRSTY=0.068644
##MAXX=4000.122314
##MINX=649.893372
##MAXY=0.252140
##MINY=-0.003990
##XFACTOR=1.000000
##YFACTOR=1.000000E-009
##NPOINTS=6950
##DELTAX=0.482117
##ZPD=6100
##XYDATA=(X++(Y..Y))
649.893 68644328 68370432 68167568 68068344 68081248 68192608 68378072 
653.268 68620736 68919208 69288048 69748800 70314720 70981240 71728400 
656.643 72527824 73356816 74210424 75098480 76037656 77041456 78111672 
660.018 79242432 80430400 81684176 83028264 84492704 86099400 87844512 
663.393 89696784 91602280 93508040 95377824 97185776 98911856 100514176 
666.767 101901568 102942680 103509424 103553912 103144904 102425296 
669.660 101528352 100523824 99424904 98214016 96875640 95420544 93892072 
673.035 92349456 90855008 89445936 88127120 86881024 85683936 84523056 
676.410 83404584 82348816 81377520 80502864 79718936 79005008 78332768 
679.785 77678648 77027408 76373320 75716848 75058224 74396504 73730696 
683.159 73062800 72401520 71760528 71154440 70592808 70075864 69595424 
686.534 69139328 68698624 68271512 67864568 67487152 67145408 66835316 
689.909 66542008 66241956 65912180 65536260 65109624 64638728 64137912 
693.284 63624024 63111080 62611112 62135496 61695988 61307448 60985364 
696.659 60742472 60585684 60514228 60520128 60591056 60715452 60886164 
700.034 61100492 61360376 61667956 62022732 62420560 62852868 63309380 
703.408 63781448 64262412 64747096 65231472 65708644 66169948 66606312 
706.783 67011496 67384872 67732840 68068144 68405528 68758592 69139648 
710.158 69560232 70035912 70591600 71260576 72080416 73083776 74280944 
713.533 75647432 77111728 78566688 79877368 80905544 81549592 81757408 
716.908 81546280 80996480 80246336 79466216 78819520 78458264 78490624 
720.282 78968208 79885488 81173040 82706264 84301440 85748392 86838048 
723.657 87383208 87273296 86492416 85133192 83372016 81437032 79562184 
727.032 77921416 76618592 75677920 75062360 74701696 74521736 74468240 
730.407 74505760 74615800 74786472 75001000 75237896 75475192 75694992 
733.782 75890832 76065288 76226424 76380504 76529104 76669856 76800448 
737.156 76923488 77048376 77187000 77349152 77536192 77740504 77947736 
740.531 78144040 78323840 78490384 78654248 78825400 79009064 79201512 
743.906 79394720 79581016 79760456 79941448 80137296 80359032 80608000 
747.281 80874408 81141448 81392464 81618480 81821888 82012504 82201888 
750.656 82395192 82588592 82771768 82936448 83080896 83213632 83348536 
754.031 83498584 83667960 83850712 84033296 84203128 84356320 84499224 
757.405 84645240 84806648 84988264 85184800 85385448 85580824 85770392 
760.780 85963928 86176608 86419360 86693840 86989704 87292856 87594120 
764.155 87898344 88225320 88605928 89070320 89637440 90313344 91092256 
767.530 91963216 92915576 93940984 95033968 96195232 97441856 98823904 
770.905 100447728 102466864 105061256 108382616 112465816 117153648 
773.797 122035496 126515464 129853216 131352320 130590064 127508344 
776.690 122473416 116125648 109263464 102613136 96673456 91718536 87774960 
780.065 84706080 82288984 80304576 78587256 77029552 75585240 74243632 
783.440 73010976 71899392 70925416 70110360 69476896 69046336 68832432 
786.815 68837864 69057552 69487008 70130416 71007544 72151664 73600544 
790.189 75390800 77549016 80091800 83032200 86386528 90176224 94422448 
793.564 99129984 104268152 109743552 115401040 121011912 126273040 130856272 
796.939 134407136 136583968 137127504 135880208 132837264 128153112 
799.832 122134200 115193120 107761112 100277320 93112360 86529744 80704912 
803.206 75705328 71515176 68060472 65239944 62952748 61112008 59661432 
806.581 58570948 57826688 57418140 57322396 57490268 57848000 58294576 
809.956 58712936 58995988 59050836 58816040 58266988 57410768 56279852 
813.331 54921364 53395392 51765748 50093856 48441676 46861520 45393424 
816.706 44066092 42893024 41875748 41008420 40282072 39688484 39222652 
820.081 38882868 38668936 38581008 38619176 38784604 39081676 39519520 
823.455 40112768 40879460 41835544 42989768 44337112 45852816 47485548 
826.830 49156912 50765752 52183432 53277752 53928748 54044084 53587948 
830.205 52587452 51135352 49365640 47438280 45515680 43726344 42165744 
833.580 40885212 39891764 39158576 38632468 38249284 37936112 37625512 
836.955 37266608 36826236 36297212 35695336 35054780 34416816 33818828 
840.329 33289344 32841652 32475826 32183808 31955532 31782240 31658054 
843.704 31579264 31542384 31542170 31573560 31631362 31713442 31820674 
847.079 31955570 32120262 32314352 32534174 32774366 33030956 33302796 
850.454 33592740 33906448 34250392 34628804 35043684 35495916 35986956 
853.829 36521008 37105764 37750152 38462572 39248984 40112692 41056564 
857.204 42086228 43211148 44447324 45814672 47333068 49023208 50903348 
860.578 52988744 55293580 57824756 60576392 63517392 66583760 69673760 
863.953 72640184 75316552 77529888 79118688 79970088 80026976 79302160 
867.328 77874784 75886616 73526320 70990608 68481480 66176392 64204708 
870.703 62657496 61577916 60966340 60788392 60981132 61463540 62130752 
874.078 62868340 63558468 64080388 64334756 64252764 63803324 62999524 
877.452 61892112 60561608 59096584 57588088 56120524 54759108 53557248 
880.827 52555028 51777956 51242268 50951892 50898204 51059096 51399824 
884.202 51878048 52443640 53047592 53648528 54214144 54730652 55204060 
887.577 55661596 56145936 56707980 57398288 58252100 59285380 60490232 
890.952 61840876 63298188 64819908 66371380 67923800 69455936 70951864 
894.327 72393184 73757624 75017976 76137336 77070616 77766144 78161456 
897.701 78193464 77807440 76964504 75657416 73915120 71805760 69423552 
901.076 66881732 64301984 61790636 59440976 57326068 55492140 53966752 
904.451 52758812 51861692 51257148 50918620 50817376 50925216 51219716 
907.826 51687440 52322036 53123000 54092084 55230396 56537244 58009596 
911.201 59641972 61425520 63343920 65368728 67460368 69566560 71628904 
914.575 73598384 75441888 77153360 78754608 80294336 81840448 83465256 
917.950 85244184 87242384 89503784 92046680 94850160 97850960 100933416 
921.325 103947576 106731064 109128408 111040112 112443672 113411688 
924.218 114099760 114734464 115587184 116912184 118936576 121820640 
927.110 125626176 130302768 135663920 141402976 147058624 152059680 
930.003 155812688 157714032 157294656 154308928 148773712 140995248 
932.896 131504256 121007624 110222448 99793232 90253752 81939032 75025808 
936.271 69557272 65478392 62683688 61049312 60462388 60813012 61984624 
939.646 63843356 66200160 68807272 71385928 73620688 75226040 75998336 
943.020 75832720 74754592 72899384 70494976 67798832 65054468 62470788 
946.395 60181540 58254828 56703676 55502640 54606492 53962700 53524788 
949.770 53251048 53105180 53057552 53081776 53155844 53264456 53397340 
953.145 53550240 53722692 53916108 54131828 54369548 54627988 54905456 
956.520 55200600 55513184 55843668 56192468 56559248 56942848 57341380 
959.894 57753372 58178864 58619068 59076272 59552540 60048280 60562292 
963.269 61091948 61634240 62187224 62750980 63327164 63917896 64524540 
966.644 65147044 65783628 66432536 67092352 67763704 68448592 69149704 
970.019 69868968 70606608 71361944 72133936 72922936 73731832 74564576 
973.394 75426200 76319904 77246688 78204968 79192328 80207560 81252056 
976.768 82330272 83447824 84610936 85824656 87092176 88417472 89805896 
980.143 91265728 92808440 94445920 96188504 98043096 100011688 102090984 
983.518 104271904 106539536 108867688 111214296 113523688 115718256 
986.411 117706880 119400920 120716760 121594728 122008464 121965768 
989.304 121509288 120707912 119657776 118466344 117243088 116097864 
992.196 115120896 114379504 113917144 113749632 113872696 114269272 
995.089 114918032 115798232 116892320 118186736 119668208 121322304 
997.982 123134832 125090208 127174632 129375440 131677104 134056760 
1000.874 136481152 138900496 141254928 143482816 145525344 147341680 
1003.767 148912208 150240496 151350864 152285360 153102592 153869216 
1006.660 154659872 155552160 156612240 157893488 159428672 161227504 
1009.552 163281552 165571232 168075360 170774688 173654032 176701888 
1012.445 179903024 183238320 186685968 190221968 193825904 197479392 
1015.338 201158928 204828240 208427952 211866256 215033088 217807264 
1018.231 220075072 221759664 222827856 223302672 223256640 222813504 
1021.123 222136880 221402384 220801024 220508624 220658720 221343696 
1024.016 222596160 224394896 226671600 229329424 232260496 235345296 
1026.909 238468816 241516560 244365568 246900000 249012784 250616784 
1029.802 251662944 252140432 252075488 251518368 250536704 249206160 
1032.695 247600096 245794672 243859424 241844768 239775200 237633712 
1035.588 235363088 232864416 230019696 226716752 222858288 218386304 
1038.481 213284656 207574896 201313280 194584944 187505200 180202960 
1041.374 172820176 165500704 158364128 151508128 145000048 138874032 
1044.267 133145152 127815528 122881664 118340704 114190904 110429848 
1047.160 107053584 104055056 101423960 99147216 97210520 95597688 94289744 
1050.536 93265080 92499200 91963592 91630520 91473424 91467168 91590048 
1053.911 91819016 92125896 92477384 92829360 93129936 93327880 93371632 
1057.286 93218504 92840520 92223152 91369864 90302216 89062064 87709184 
1060.661 86315512 84966344 83744984 82725464 81971648 81525728 81410488 
1064.037 81630040 82171144 83005520 84089864 85372216 86787464 88262584 
1067.412 89726816 91110448 92354328 93416368 94267016 94890264 95279608 
1070.787 95434864 95361072 95068112 94572704 93897704 93071176 92128232 
1074.162 91107456 90051824 89011792 88039136 87187144 86507104 86037272 
1077.538 85801520 85804144 86030368 86448912 87015936 87684896 88403944 
1080.913 89120888 89786336 90349248 90765280 91004568 91057688 90945408 
1084.288 90720160 90468792 90298456 90325872 90673496 91444264 92717656 
1087.663 94539744 96911464 99782104 103039416 106523400 110018704 113274728 
1091.039 116054440 118139328 119373872 119689416 119102576 117713968 
1093.932 115678424 113198400 110482528 107717336 105066736 102642976 
1096.825 100507360 98675208 97119432 95780168 94571296 93399608 92168096 
1100.200 90785296 89182560 87314168 85166576 82759816 80146664 77405768 
1103.575 74624456 71897552 69311328 66933444 64818256 63001356 61501904 
1106.950 60328508 59480376 58950332 58726440 58792712 59129420 59710816 
1110.326 60506800 61480984 62587424 63775540 64985080 66147724 67197888 
1113.701 68069968 68709072 69078960 69160736 68956264 68483192 67773464 
1117.076 66867352 65807224 64638996 63405076 62141420 60879948 59644520 
1120.451 58452468 57318012 56251716 55261704 54353624 53527824 52778044 
1123.827 52090068 51444956 50821096 50200664 49576620 48955628 48359480 
1127.202 47819932 47375640 47062832 46907436 46923792 47110692 47453616 
1130.577 47925664 48491944 49111796 49738548 50325988 50832308 51223220 
1133.952 51481064 51607280 51623660 51566608 51484048 51426304 51434584 
1137.328 51539036 51751824 52066608 52458484 52887424 53305472 53656924 
1140.703 53889020 53957824 53829684 53486260 52923240 52148124 51177512 
1144.078 50034140 48746908 47347000 45867988 44345920 42813152 41299036 
1147.453 39827372 38413376 37065636 35786968 34576816 33433930 32358438 
1150.829 31352624 30420490 29566460 28794644 28107970 27508540 26998144 
1154.204 26579150 26254038 26024706 25892062 25854644 25909612 26053452 
1157.579 26283534 26599546 27002904 27496396 28082166 28760692 29529928 
1160.954 30384846 31318042 32319852 33376568 34470048 35577828 36670928 
1164.330 37716972 38684332 39541224 40261748 40826240 41221176 41440012 
1167.705 41482768 41355708 41070620 40643840 40095612 39446796 38718740 
1171.080 37932928 37108220 36263356 35416856 34585928 33788100 33039644 
1174.455 32354012 31742386 31212574 30769224 30415300 30152792 29983128 
1177.831 29908296 29929734 30048848 30267026 30585738 31008224 31539142 
1181.206 32184626 32951090 33844224 34867324 36022268 37310296 38732980 
1184.581 40294324 41999532 43853628 45858412 48008848 50290908 52677632 
1187.956 55128328 57590396 59993568 62257504 64297564 66027196 67376816 
1191.332 68301792 68789888 68863840 68577008 68006136 67231616 66331848 
1194.707 65371884 64393356 63418032 62448372 61474304 60479072 59446560 
1198.082 58366504 57235292 56056356 54837632 53588288 52316504 51027644 
1201.457 49725992 48416040 47104708 45804248 44530796 43304084 42145408 
1204.833 41071972 40096412 39224176 38453524 37777008 37183976 36663784 
1208.208 36206192 35803088 35448096 35136112 34862868 34625936 34424672 
1211.583 34261184 34140124 34068656 34054784 34106428 34231608 34437084 
1214.958 34728972 35113080 35593692 36173136 36850544 37622476 38482700 
1218.333 39424268 40441260 41529468 42686360 43911032 45202332 46559820 
1221.709 47983940 49478324 51050900 52713956 54483348 56374840 58400388 
1225.084 60565988 62868992 65298132 67831096 70436168 73069344 75670024 
1228.459 78168392 80481208 82517904 84195160 85436672 86184048 86406024 
1231.834 86100656 85303216 84082184 82546872 80835568 79096832 77494432 
1235.210 76179896 75282264 74914720 75160120 76076416 77702424 80056496 
1238.585 83138960 86927040 91375184 96404720 101896328 107704560 113643424 
1241.960 119494616 125034928 130022512 134223040 137442800 139530128 
1244.853 140407392 140077360 138622688 136191472 132971448 129189936 
1247.746 125078928 120858096 116734840 112864376 109341072 106187568 
1250.639 103349400 100705320 98084336 95314600 92244216 88777352 84896568 
1254.015 80660352 76193048 71647704 67194952 62986724 59130408 55693012 
1257.390 52691320 50102484 47873572 45935492 44215816 42641028 41150028 
1260.765 39695816 38244976 36781408 35301652 33812132 32324456 30852138 
1264.140 29408724 28005750 26654046 25364138 24145614 23007144 21954974 
1267.516 20991060 20113430 19316716 18594946 17942534 17356100 16834380 
1270.891 16376279 15979882 15641481 15356064 15119000 14927090 14778662 
1274.266 14672885 14607429 14577069 14573917 14588103 14610136 14633816 
1277.641 14656777 14680184 14706679 14739482 14780479 14830224 14888478 
1281.017 14954011 15023532 15090114 15142228 15163877 15136806 15046000 
1284.392 14884089 14655440 14375329 14068188 13763419 13487061 13260035 
1287.767 13096228 13002774 12983314 13039852 13173956 13385938 13674131 
1291.142 14033930 14456815 14931583 15444738 15979333 16515376 17030580 
1294.518 17499236 17897196 18206158 18416256 18529968 18560986 18532078 
1297.893 18468422 18394754 18332364 18296490 18298148 18344842 18439348 
1301.268 18580144 18758764 18961134 19166990 19353680 19501288 19593552 
1304.643 19620554 19578196 19465940 19286164 19042792 18743716 18400630 
1308.019 18030288 17653842 17292134 16963218 16679754 16447542 16267635 
1311.394 16139243 16062116 16037844 16068684 16155923 16298251 16491696 
1314.769 16731475 17014212 17339410 17709440 18127352 18594048 19106496 
1318.144 19657580 20237828 20839120 21455308 22083562 22722120 23367000 
1321.520 24010286 24639410 25237910 25789872 26282304 26708234 27069022 
1324.895 27376570 27653050 27928362 28241258 28632022 29133394 29766014 
1328.270 30527650 31391696 32306466 33207394 34030060 34719208 35244404 
1331.645 35601568 35813128 35918172 35966152 36009384 36092368 36252908 
1335.021 36519348 36908256 37426432 38069812 38826668 39679156 40607348 
1338.396 41593936 42623412 43683144 44761300 45845228 46920836 47973176 
1341.771 48985000 49937556 50808172 51566420 52177040 52600092 52794808 
1345.146 52729744 52385392 51758060 50858716 49710980 48347556 46804132 
1348.521 45121560 43344280 41517404 39693276 37927432 36273332 34784356 
1351.897 33503324 32458830 31666004 31125746 30829050 30758482 30891020 
1355.272 31196126 31632360 32151944 32700516 33222236 33671828 34014296 
1358.647 34229956 34314216 34274488 34129012 33904048 33637704 33379682 
1362.022 33185862 33118092 33228602 33549208 34088620 34832496 35753004 
1365.398 36814692 37982796 39220808 40483196 41715780 42850856 43809352 
1368.773 44518132 44915596 44962780 44649980 43994844 43040404 41845500 
1372.148 40489160 39064348 37665944 36395024 35336588 34545704 34042712 
1375.523 33812384 33818292 34017196 34377368 34884808 35545140 36379244 
1378.899 37418628 38701536 40265604 42144640 44357188 46890792 49680112 
1382.274 52588536 55424712 57938860 59867288 60985592 61115632 60169780 
1385.649 58166892 55258812 51722264 47908200 44197988 40889432 38150836 
1389.024 36024860 34454944 33336352 32550280 31994834 31587138 31262420 
1392.400 30975630 30693722 30396004 30076188 29740218 29404186 29085810 
1395.775 28798434 28547196 28328820 28136214 27963168 27806826 27669504 
1399.150 27556410 27473310 27424072 27409566 27427954 27477016 27555914 
1402.525 27666114 27813114 28005750 28255614 28575046 28972948 29452656 
1405.901 30010500 30636614 31318400 32043240 32802560 33590664 34404336 
1409.276 35241352 36097804 36968680 37848904 38733960 39619836 40500400 
1412.651 41362664 42185792 42941560 43599172 44136144 44544492 44834768 
1416.026 45031836 45170788 45290036 45424252 45607308 45871636 46244284 
1419.402 46745676 47380996 48136652 48985560 49894404 50833648 51782808 
1422.777 52737824 53711816 54731708 55826792 57017196 58306136 59679568 
1426.152 61113496 62582752 64069592 65560652 67042544 68496880 69893488 
1429.527 71192808 72356864 73357720 74190888 74876776 75459112 75993368 
1432.903 76532264 77124352 77810256 78630928 79640160 80908168 82514304 
1436.278 84528168 86968536 89792528 92908480 96205040 99570480 102887040 
1439.653 106032312 108850152 111157544 112784760 113583160 113467024 
1442.546 112425040 110512104 107833320 104514616 100700224 96525744 92106968 
1445.921 87554840 82973632 78480656 74226536 70373864 67070580 64414264 
1449.297 62424460 61055564 60225612 59856068 59888280 60287012 61031348 
1452.672 62093140 63428388 64987124 66713364 68563584 70516648 72562288 
1456.047 74693552 76886584 79098144 81269672 83348904 85313256 87160736 
1459.422 88902856 90555560 92135728 93656536 95121400 96522104 97827344 
1462.798 98978648 99904488 100533008 100826792 100805648 100551552 100176864 
1466.173 99775688 99406416 99080568 98779352 98471112 98122008 97695256 
1469.548 97137120 96366912 95272264 93720512 91609608 88925096 85783472 
1472.923 82402608 79022976 75819176 72861568 70148360 67657752 65389872 
1476.299 63386128 61714932 60434708 59576560 59130596 59060592 59326436 
1479.674 59906196 60804056 62045776 63661500 65667636 68056552 70799848 
1483.049 73861536 77210160 80832656 84727672 88889960 93295928 97873456 
1486.424 102481632 106922600 110928496 114188320 116398512 117283848 
1489.317 116670856 114545456 111083080 106621352 101559576 96279888 91048368 
1492.693 85995584 81160184 76514136 72014632 67650320 63455344 59516436 
1496.068 55953520 52874476 50339052 48342852 46839080 45760472 45045728 
1499.443 44652956 44553524 44726040 45149684 45798728 46641560 47645444 
1502.818 48767188 49954732 51143332 52231632 53081288 53515308 53337428 
1506.194 52411600 50744000 48505024 45940576 43258216 40569076 37903280 
1509.569 35260108 32645538 30082262 27620774 25322866 23237298 21395992 
1512.944 19802724 18439866 17279446 16291268 15448756 14727210 14106556 
1516.319 13572450 13118084 12745801 12462315 12271610 12168553 12135842 
1519.695 12145689 12170393 12191895 12215307 12267520 12383555 12585838 
1523.070 12871145 13217027 13594021 13980547 14368410 14767624 15199872 
1526.445 15689159 16249267 16878780 17564162 18289024 19041788 19818990 
1529.820 20624790 21467632 22354144 23288826 24272680 25303584 26377920 
1533.196 27489620 28628908 29779994 30924178 32041278 33112872 34118728 
1536.571 35038368 35853860 36545116 37096636 37497444 37745236 37843084 
1539.946 37798080 37625040 37345756 36987696 36578496 36135252 35659148 
1543.321 35135640 34545564 33877184 33139798 32365292 31597328 30872128 
1546.697 30201166 29569828 28944506 28291578 27592562 26858118 26125298 
1550.072 25444972 24855378 24367716 23964800 23614628 23288372 22972070 
1553.447 22672546 22411916 22212748 22082586 22006906 21951106 21869386 
1556.822 21708464 21414092 20944708 20293582 19516780 18725138 18036056 
1560.198 17512208 17151376 16914364 16753444 16627043 16502332 16359076 
1563.573 16190760 16006628 15828243 15681429 15586731 15549228 15558088 
1566.948 15592020 15629217 15654121 15663911 15668720 15687648 15738871 
1570.323 15831370 15962729 16123287 16301898 16489323 16677482 16859110 
1573.698 17023344 17157442 17250864 17301100 17321754 17341652 17396382 
1577.074 17508964 17683452 17907174 18161658 18431708 18710298 19000524 
1580.449 19312110 19656852 20042742 20471138 20934762 21420080 21908066 
1583.824 22376018 22799146 23149114 23398262 23524060 23513112 23366932 
1587.199 23104698 22765694 22402426 22075474 21847642 21769808 21879526 
1590.575 22196566 22720164 23426866 24265602 25163784 26022174 26727438 
1593.950 27175852 27278370 26984570 26292828 25250658 23944352 22475976 
1597.325 20952772 19462234 18066556 16808892 15711593 14783463 14022467 
1600.700 13417786 12952999 12609612 12372918 12235141 12195780 12258283 
1604.076 12425797 12695988 13058666 13494855 13977468 14475143 14948284 
1607.451 15353352 15646357 15783297 15730144 15467914 14997396 14342177 
1610.826 13545991 12670742 11778972 10924398 10143978 9451029 8841178 
1614.201 8299184 7807385 7351627 6925670 6534572 6190138 5906094 5691925 
1618.059 5549103 5470814 5445414 5456621 5486451 5517658 5534672 5529068 
1621.916 5501987 5464473 5433705 5425317 5447025 5496383 5564071 5639691 
1625.774 5717305 5796075 5878419 5967094 6062372 6161402 6260623 6358050 
1629.631 6455702 6558286 6670383 6793077 6922202 7047661 7156550 7235951 
1633.489 7275877 7273013 7231336 7163994 7089253 7025570 6986072 6974859 
1637.346 6988530 7018937 7056350 7089421 7107036 7101041 7067699 7010451 
1641.203 6938228 6863492 6795736 6737716 6684380 6623482 6540425 6421400 
1645.061 6259715 6059550 5837413 5617504 5425720 5281409 5192237 5155822 
1648.918 5162729 5200385 5253036 5300124 5317264 5274098 5144255 4921613 
1652.776 4644057 4388569 4225497 4179696 4226902 4323841 4431246 4524547 
1656.633 4592988 4635183 4655578 4659698 4651224 4630260 4593691 4537672 
1660.490 4460235 4362262 4248584 4126105 4003025 3887335 3785045 3700390 
1664.348 3634930 3587821 3554948 3528858 3500165 3457780 3391989 3297628 
1668.205 3176786 3038992 2899309 2773275 2670914 2595475 2543613 2508652 
1672.063 2482859 2457700 2424212 2373103 2296784 2193470 2071336 1948570 
1675.920 1845206 1775533 1741067 1731952 1731985 1725398 1702745 1663096 
1679.778 1614205 1567414 1531501 1506497 1481561 1436713 1350587 1210780 
1683.635 1025648 828179 662523 559099 519852 525193 548880 570943 579403 
1687.975 570445 546293 511459 470592 427573 386315 351064 326393 315418 
1692.314 317075 324669 325000 301525 239625 134047 -4307 -146758 -260289 
1696.654 -326049 -346510 -343530 -345285 -379947 -464820 -598055 -752583 
1700.511 -886093 -965710 -983033 -953874 -903155 -853753 -820782 -811555 
1704.369 -826437 -859606 -900973 -938732 -963693 -971396 -962040 -939591 
1708.226 -909933 -878752 -850644 -827099 -806892 -787048 -764259 -736441 
1712.083 -704289 -670181 -637825 -609404 -586143 -567050 -550967 -538822 
1715.941 -534024 -541039 -562847 -596268 -630811 -652349 -649967 -620653 
1719.798 -569895 -508574 -448668 -399743 -366274 -347701 -339557 -335783 
1723.656 -331743 -325982 -320354 -317407 -319327 -326181 -337107 -350681 
1727.513 -366705 -386502 -411197 -440525 -471738 -500664 -524096 -542992 
1731.371 -563939 -600569 -668792 -780731 -935855 -1114424 -1281785 -1404069 
1735.228 -1466089 -1474807 -1451592 -1420020 -1397595 -1395713 -1416487 
1738.603 -1455390 -1501686 -1544147 -1574026 -1587264 -1585151 -1570625 
1741.979 -1546986 -1516709 -1481048 -1441421 -1399015 -1354558 -1308643 
1745.354 -1260674 -1209925 -1156229 -1100477 -1044122 -989645 -939228 
1748.729 -893864 -853819 -818765 -788040 -760852 -736508 -713055 -687649 
1752.586 -657974 -623466 -585878 -550802 -525783 -518800 -535083 -574230 
1756.444 -629487 -689270 -742759 -783939 -814498 -841815 -875710 -924349 
1760.301 -990505 -1070565 -1155006 -1232492 -1293513 -1333814 -1354789 
1763.677 -1361263 -1358654 -1351883 -1345012 -1341412 -1344715 -1357036 
1767.052 -1378604 -1406083 -1433792 -1455192 -1467113 -1470712 -1472165 
1770.427 -1479463 -1499572 -1532888 -1572573 -1604200 -1613773 -1594494 
1773.802 -1548736 -1486199 -1418303 -1354327 -1297675 -1247525 -1200211 
1777.177 -1152561 -1104244 -1058336 -1018934 -989877 -971760 -960718 -951196 
1781.035 -938534 -921043 -901601 -885729 -878157 -881034 -892706 -907652 
1784.892 -919125 -922729 -916679 -902593 -883481 -861756 -838971 -816185 
1788.750 -794952 -779077 -774347 -787114 -821576 -877793 -948651 -1022339 
1792.607 -1087190 -1134616 -1163267 -1177675 -1185110 -1191851 -1201764 
1795.982 -1216170 -1234904 -1257800 -1285287 -1318289 -1357762 -1402450 
1799.358 -1449776 -1495247 -1534176 -1563527 -1582741 -1593041 -1596706 
1802.733 -1595484 -1590103 -1580662 -1567720 -1553028 -1538666 -1527539 
1806.108 -1521134 -1519219 -1520143 -1521563 -1521497 -1519945 -1517535 
1809.483 -1515455 -1513441 -1509544 -1499936 -1481147 -1452418 -1415100 
1812.859 -1374244 -1335301 -1302135 -1275971 -1254595 -1233880 -1209562 
1816.234 -1179525 -1144101 -1106194 -1069309 -1036586 -1009017 -986339 
1819.609 -967264 -950833 -936880 -926234 -919754 -918662 -924349 -937211 
1823.467 -957610 -984521 -1015463 -1045610 -1069441 -1081836 -1080844 
1826.842 -1069078 -1052386 -1039924 -1040354 -1057972 -1090561 -1129031 
1830.217 -1160558 -1172917 -1160690 -1125627 -1075787 -1021182 -969578 
1833.592 -925110 -887548 -853654 -818930 -780731 -737698 -689468 -636733 
1837.450 -578168 -511354 -434368 -345814 -246248 -139405 -29620 78601 181513 
1841.789 276856 364527 445483 523170 603027 691527 795281 918418 1060489 
1846.129 1216728 1379371 1538451 1684749 1812497 1918717 2004090 2071302 
1849.986 2122276 2157105 2173656 2168594 2139557 2086750 2013444 1924408 
1853.844 1824875 1718147 1605059 1485351 1358829 1226762 1092476 959760 
1857.701 831133 706727 584446 461205 336076 211081 91061 -17759 -110620 
1862.041 -186968 -250156 -304991 -356144 -404775 -448932 -485076 -510692 
1865.898 -526677 -537896 -551794 -574098 -606128 -643317 -676037 -694960 
1869.756 -694331 -674648 -642027 -605036 -570359 -542165 -521614 -507648 
1873.613 -499473 -497388 -501690 -513075 -531012 -553648 -578532 -604573 
1877.470 -631936 -663300 -701576 -748118 -801666 -858879 -914893 -966338 
1881.328 -1013480 -1059162 -1107748 -1163168 -1224893 -1288591 -1347754 
1884.703 -1395713 -1429135 -1449677 -1462820 -1474807 -1491317 -1513540 
1888.078 -1539459 -1564947 -1584986 -1596508 -1599281 -1594428 -1583765 
1891.454 -1569833 -1553887 -1537246 -1521101 -1506110 -1491483 -1475071 
1894.829 -1453078 -1421407 -1378406 -1325523 -1267480 -1211181 -1162441 
1898.204 -1122983 -1090793 -1060352 -1025314 -982042 -930797 -875909 -823725 
1902.062 -779507 -744612 -717851 -695522 -674217 -652548 -631142 -611985 
1905.919 -596400 -584521 -574958 -566619 -560365 -558479 -564402 -580584 
1909.776 -605996 -635906 -664127 -684705 -695456 -699095 -701708 -709780 
1913.634 -727345 -754435 -787312 -821609 -854646 -886424 -920448 -960553 
1917.491 -1007001 -1057146 -1104707 -1143836 -1172950 -1195948 -1219672 
1920.866 -1252316 -1298039 -1355648 -1417676 -1475104 -1520308 -1550552 
1924.242 -1569437 -1582973 -1596409 -1611990 -1627043 -1637111 -1638795 
1927.617 -1631995 -1620012 -1608722 -1602219 -1601493 -1605025 -1608722 
1930.992 -1610076 -1610076 -1611990 -1620177 -1637408 -1662990 -1692266 
1934.367 -1721046 -1745072 -1764047 -1780546 -1796715 -1812785 -1826610 
1937.743 -1833242 -1829447 -1816249 -1800048 -1789588 -1794108 -1817668 
1941.118 -1856106 -1899852 -1936040 -1954842 -1953886 -1936964 -1911860 
1944.493 -1885568 -1861517 -1837333 -1810376 -1778434 -1743389 -1710584 
1947.868 -1686292 -1673090 -1669954 -1670780 -1668865 -1659260 -1642096 
1951.244 -1620606 -1600568 -1585713 -1576172 -1569272 -1562768 -1556792 
1954.619 -1555075 -1564055 -1588090 -1626746 -1674476 -1720848 -1755863 
1957.994 -1775036 -1780711 -1780513 -1783516 -1794537 -1810475 -1823409 
1961.369 -1823805 -1806119 -1772264 -1731013 -1691705 -1663254 -1648532 
1964.745 -1644538 -1647344 -1654573 -1665994 -1684081 -1709726 -1738702 
1968.120 -1761803 -1769789 -1754774 -1718538 -1671605 -1628133 -1601460 
1971.495 -1597630 -1611759 -1631103 -1642723 -1635923 -1608062 -1563890 
1974.870 -1507530 -1440298 -1359381 -1258263 -1135409 -998571 -864467 
1978.246 -754865 -688013 -671108 -697309 -753311 -820583 -884870 -941708 
1982.103 -991232 -1036388 -1079588 -1117960 -1145753 -1159335 -1158905 
1985.478 -1150148 -1143175 -1146579 -1162177 -1185143 -1205035 -1210652 
1988.854 -1196774 -1165680 -1124536 -1083951 -1050799 -1024851 -1002406 
1992.229 -977248 -946336 -911950 -880406 -856961 -844758 -841087 -839434 
1996.086 -832787 -818302 -797995 -778581 -767368 -767567 -777390 -792108 
1999.944 -804874 -812580 -817276 -824817 -841054 -869427 -906991 -946700 
2003.801 -981248 -1005579 -1018769 -1025380 -1030834 -1037578 -1045015 
2007.176 -1049477 -1046899 -1037049 -1024554 -1014835 -1013909 -1023298 
2010.552 -1038900 -1054501 -1065541 -1069309 -1069541 -1072515 -1081968 
2013.927 -1097733 -1115250 -1125297 -1120967 -1100708 -1066599 -1026107 
2017.302 -986207 -949378 -914298 -878521 -839235 -797797 -760290 -731579 
2021.159 -714345 -706538 -699823 -684969 -657147 -617212 -572476 -534222 
2025.017 -510891 -504470 -513836 -532601 -556196 -585415 -623962 -676963 
2028.874 -745637 -824089 -899749 -959296 -991695 -992951 -968851 -929309 
2032.732 -882026 -831762 -776563 -711996 -637362 -556494 -478622 -416295 
2036.589 -378954 -366903 -374783 -391567 -405967 -410303 -403319 -386833 
2040.447 -365778 -343099 -319096 -293667 -267176 -241148 -219523 -206276 
2044.304 -201540 -202468 -204720 -202236 -192134 -175309 -155304 -136225 
2048.161 -121021 -110057 -103067 -102173 -112077 -139074 -189386 -263534 
2052.019 -354224 -448270 -527273 -575752 -586540 -562913 -517411 -467336 
2055.876 -428476 -408251 -407258 -419837 -438440 -458200 -476868 -495137 
2059.734 -513439 -530383 -541701 -543323 -533329 -513009 -487624 -464257 
2063.591 -446913 -436586 -430462 -423643 -411793 -395208 -375610 -357302 
2067.448 -343695 -334690 -328565 -322771 -315785 -309030 -306646 -312639 
2071.306 -328631 -354224 -384846 -415236 -442842 -467005 -489809 -514564 
2075.163 -542131 -570359 -595474 -613308 -620885 -620455 -616749 -614863 
2079.021 -618701 -628793 -641928 -654467 -663730 -669090 -673192 -679445 
2082.878 -689005 -702072 -715470 -726154 -732571 -735978 -739088 -745902 
2086.736 -758835 -777125 -798822 -821609 -844824 -871081 -904346 -947725 
2090.593 -1001447 -1062137 -1121727 -1171264 -1204010 -1216434 -1210123 
2093.968 -1189736 -1160888 -1128469 -1096246 -1066698 -1041809 -1023727 
2097.344 -1013810 -1010868 -1012158 -1011695 -1002736 -981711 -948188 
2100.719 -905933 -861888 -822535 -791645 -769386 -752881 -738426 -724368 
2104.576 -711070 -700484 -694133 -690858 -686458 -674846 -651258 -614036 
2108.434 -566322 -515557 -468064 -429039 -399445 -376305 -354952 -332604 
2112.291 -307971 -283038 -260587 -241744 -225617 -209820 -191008 -167824 
2116.148 -141359 -114396 -89552 -68317 -48936 -27864 -2948 26673 58087 85726 
2120.970 104318 111311 107765 98651 91128 89636 96364 110118 126424 140975 
2125.792 150620 153338 148200 133849 108129 67996 12491 -57881 -138975 
2130.132 -224358 -307507 -383655 -450223 -507846 -557883 -600404 -634616 
2133.989 -658867 -671836 -675706 -675475 -676864 -684572 -700517 -721655 
2137.846 -743123 -760687 -772892 -782450 -794324 -812216 -836358 -862582 
2141.704 -883977 -894062 -890921 -877992 -862450 -852000 -850975 -858316 
2145.561 -869824 -879645 -884704 -886721 -891285 -903254 -926003 -958238 
2149.419 -995166 -1032487 -1068020 -1103550 -1143803 -1194131 -1254959 
2152.794 -1323971 -1396671 -1467641 -1535596 -1603506 -1673090 -1743190 
2156.169 -1804634 -1839115 -1823673 -1740913 -1584392 -1365524 -1110391 
2159.544 -848131 -606691 -402656 -240983 -120657 -39096 7024 21670 9078 
2163.884 -20178 -51520 -72524 -72590 -50427 -14081 23757 50598 58883 48974 
2168.706 27866 3081 -19416 -37936 -56589 -80143 -110355 -146494 -182960 
2173.045 -213098 -233333 -243831 -247043 -248798 -252010 -257010 -261746 
2176.903 -264229 -263137 -260653 -260189 -262938 -268004 -271084 -265455 
2180.760 -246712 -214556 -171997 -125891 -83357 -46948 -16666 9443 34361 
2185.100 58021 77606 90763 95900 94839 92984 97458 111775 137229 169944 
2189.922 204352 235812 263495 289456 318137 352424 391389 431287 466778 
2194.261 493447 510862 522606 533056 545994 560923 573464 577213 568023 
2198.601 545496 514312 482368 456661 440972 434737 433277 431022 425583 
2202.940 417391 408701 403561 403063 405285 407972 408138 405551 403528 
2207.280 407574 421934 448700 486116 528743 570910 608137 637768 660432 
2211.620 676759 686516 688474 681272 664315 639825 613280 590419 576616 
2215.959 575223 584844 602230 623433 645101 666372 688242 711274 734938 
2220.299 757640 776029 786917 789207 783431 771581 756645 740215 722591 
2224.638 704371 684923 664680 645267 627780 612384 598514 584911 569383 
2228.978 552331 535046 519653 509038 504294 504161 506351 508607 508407 
2233.318 506351 504161 503332 505455 510298 516634 523899 532658 544634 
2237.657 562217 586570 616067 646428 672478 689270 695178 693020 688009 
2241.997 687545 696837 718011 749176 786618 824959 860016 889897 913405 
2246.336 929841 939105 940201 932564 917057 896272 872997 851218 833955 
2250.676 822402 818054 821274 833225 855667 890030 934988 987621 1041690 
2255.016 1089487 1124699 1143933 1146857 1137488 1121211 1102276 1084305 
2258.873 1068693 1055474 1044912 1038202 1035911 1039000 1047303 1058795 
2262.730 1071018 1082412 1092011 1101445 1113238 1129183 1149681 1173501 
2266.588 1197290 1218156 1234936 1248261 1260390 1274081 1290398 1308477 
2270.445 1326158 1340283 1348758 1351683 1350254 1346698 1342975 1340117 
2274.303 1338023 1337159 1338356 1343141 1354209 1372790 1398617 1428934 
2278.160 1459585 1486282 1506630 1520728 1530271 1539149 1550555 1565951 
2282.018 1585438 1607653 1630701 1653251 1674904 1695360 1714920 1733515 
2285.875 1750515 1765586 1779126 1791769 1804945 1819684 1836488 1854756 
2289.732 1873424 1891494 1908533 1925373 1943345 1963448 1986781 2012578 
2293.590 2039642 2066375 2091911 2115717 2138758 2161934 2185977 2211619 
2297.447 2238463 2266007 2294153 2322767 2351882 2381766 2412151 2442106 
2301.305 2470696 2496888 2519617 2538980 2554978 2567543 2577043 2583609 
2305.162 2587742 2590542 2593942 2599875 2610342 2626576 2648177 2674014 
2309.020 2702253 2731194 2759470 2786980 2813792 2840172 2866254 2891437 
2312.877 2915453 2938137 2959954 2981806 3005160 3030417 3057812 3087110 
2316.734 3117411 3148382 3180591 3214771 3252091 3293722 3340131 3391054 
2320.592 3445723 3502637 3558790 3611375 3654978 3684317 3694308 3681443 
2324.449 3645556 3590193 3522979 3452703 3389017 3339263 3306910 3291919 
2328.307 3290918 3299164 3312218 3326876 3341801 3357060 3373389 3390720 
2332.164 3409287 3428857 3449263 3471240 3495723 3523180 3553645 3586952 
2336.021 3621866 3657150 3692069 3726056 3758775 3789825 3818671 3843976 
2339.879 3865605 3883223 3897365 3909300 3919431 3927154 3930698 3926787 
2343.736 3911975 3884594 3845547 3798482 3750653 3710884 3687859 3688694 
2347.594 3718336 3778360 3867945 3983462 4119649 4268861 4422576 4572897 
2351.451 4712785 4838512 4949261 5047534 5137314 5222048 5304284 5384555 
2355.309 5462694 5538431 5612603 5686218 5760617 5836473 5912711 5987686 
2359.166 6060222 6129375 6196188 6262472 6329438 6396516 6462125 6522328 
2363.023 6573592 6614331 6645048 6668465 6688216 6707160 6725534 6742023 
2366.881 6753398 6755855 6747105 6726139 6692961 6648950 6594920 6532015 
2370.738 6461083 6383974 6303384 6222875 6147153 6080282 6025986 5987250 
2374.596 5965851 5962760 5978616 6012681 6064221 6131593 6212556 6305232 
2378.453 6408320 6521252 6644307 6778235 6922976 7077836 7240904 7409258 
2382.311 7579564 7749027 7914676 8073974 8224145 8361770 8483050 8584493 
2386.168 8663447 8718885 8751712 8764660 8760908 8743733 8715504 8677339 
2390.025 8629578 8572327 8505249 8428724 8343564 8250215 8149526 8042684 
2393.883 7931244 7817404 7704067 7594366 7491301 7397562 7314593 7243532 
2397.740 7185317 7140718 7110909 7097538 7101311 7122900 7161670 7216209 
2401.598 7284974 7366590 7459850 7564156 7679581 7805867 7943122 8091088 
2405.455 8249911 8419535 8600174 8791608 8993171 9204136 9423431 9650460 
2409.313 9885539 10129326 10382413 10645154 10915971 11191344 11466551 
2412.688 11735804 11993474 12235381 12457917 12658120 12833877 12982529 
2416.063 13101658 13189531 13245858 13272026 13271103 13247429 13205141 
2419.438 13147795 13078198 12997994 12908760 12812410 12710556 12605314 
2422.813 12498496 12391260 12284460 12179185 12076797 11980327 11893616 
2426.189 11820543 11765456 11731243 11719601 11730937 11765626 11823130 
2429.564 11903424 12006691 12132503 12279824 12447585 12634104 12837836 
2432.939 13058222 13294505 13546572 13814108 14096322 14392283 14701675 
2436.314 15024767 15362826 15717672 16091481 16485192 16899378 17333340 
2439.690 17785822 18256644 18745896 19255130 19785768 20339414 20916508 
2443.065 21517068 22140218 22784374 23448478 24131076 24830608 25545148 
2446.440 26272270 27009322 27753914 28503498 29255406 30006560 30753362 
2449.815 31491150 32215208 32921854 33608132 34273056 34916404 35537232 
2453.191 36133308 36700524 37232028 37719648 38155180 38531000 38839712 
2456.566 39076200 39234876 39310424 39299108 39197052 39002576 38715988 
2459.941 38338852 37873632 37323584 36691944 35981952 35198124 34346416 
2463.316 33434216 32470506 31466108 30431222 29376674 28312832 27249438 
2466.692 26196632 25164698 24163478 23202484 22290312 21432472 20632748 
2470.067 19892416 19211038 18587616 18020342 17507654 17047258 16635891 
2473.442 16269390 15941624 15646838 15379028 15132758 14904629 14691221 
2476.817 14490421 14300158 14118673 13944414 13776895 13616107 13462453 
2480.193 13316541 13177918 13045384 12917361 12792038 12668388 12546821 
2483.568 12428832 12316569 12212172 12116999 12031182 11954339 11885580 
2486.943 11824186 11769575 11721337 11678891 11641078 11607215 11576315 
2490.318 11548514 11524900 11506868 11496218 11494211 11500470 11513842 
2493.694 11532555 11554435 11577643 11601191 11624026 11645468 11664663 
2497.069 11680831 11693833 11704249 11713032 11721440 11730562 11739856 
2500.444 11748128 11753507 11754290 11749694 11740639 11729337 11718512 
2503.819 11710580 11706972 11707551 11711704 11717933 11725048 11732571 
2507.195 11739685 11745745 11750001 11751465 11748775 11741660 11729575 
2510.570 11711942 11688557 11658027 11618854 11569441 11509385 11438859 
2513.945 11359944 11275432 11187434 11097619 11006055 10911996 10814799 
2517.320 10714804 10613610 10514171 10420151 10334125 10257615 10190583 
2520.696 10132107 10081100 10037390 10001177 9973985 9956729 9949846 9952389 
2524.553 9963306 9980597 10002329 10027590 10055057 10083881 10113182 
2527.928 10142045 10170095 10197435 10225250 10254867 10287166 10322927 
2531.303 10361203 10400840 10440345 10478801 10516548 10555112 10595785 
2534.679 10640400 10689537 10743061 10800192 10860388 10923175 10988622 
2538.054 11057409 11129300 11204162 11281519 11360148 11439914 11520817 
2541.429 11603199 11687570 11773933 11861777 11949775 12037042 12122486 
2544.804 12205799 12287731 12368281 12447585 12525232 12600334 12671663 
2548.180 12738841 12802104 12862204 12920126 12976725 13031897 13085607 
2551.555 13137242 13186389 13233629 13279097 13323443 13366494 13407876 
2554.930 13446356 13481353 13512184 13539120 13562775 13583457 13600756 
2558.305 13613543 13619936 13617235 13604312 13580483 13546503 13503707 
2561.681 13454149 13398615 13338203 13273050 13203160 13128977 13051769 
2565.056 12973004 12894799 12819304 12748258 12683262 12625542 12575844 
2568.431 12535088 12503475 12480968 12466578 12459622 12458735 12463066 
2571.806 12471931 12485094 12502281 12523698 12549242 12578641 12612307 
2575.182 12650376 12693054 12740240 12791594 12846129 12902616 12960032 
2578.557 13017659 13075603 13134818 13196260 13261162 13329900 13402271 
2581.932 13477594 13555049 13634228 13715199 13798408 13884165 13972849 
2585.307 14064218 14157456 14251570 14345705 14438831 14530574 14620999 
2588.683 14709867 14797347 14883746 14968758 15052311 15134233 15213803 
2592.058 15290367 15363822 15433683 15500706 15566193 15631691 15698984 
2595.433 15769277 15842916 15919453 15998136 16078208 16159190 16241664 
2598.808 16326770 16415780 16509732 16609520 16715083 16826836 16944476 
2602.184 17068244 17198290 17334720 17477228 17625372 17778402 17935422 
2605.559 18096572 18261966 18431672 18605564 18782982 18961686 19139668 
2608.934 19314258 19483268 19645066 19798770 19943790 20079420 20205058 
2612.309 20319658 20422062 20511500 20587440 20649462 20697624 20731960 
2615.685 20752394 20759310 20753056 20734774 20706068 20668398 20623748 
2619.060 20573684 20519662 20463184 20405914 20349692 20296394 20247374 
2622.435 20203740 20165142 20131024 20100656 20073242 20049300 20030042 
2625.810 20017098 20012554 20017724 20032922 20058008 20092120 20134424 
2629.186 20184232 20241542 20305978 20377056 20454430 20536824 20623052 
2632.561 20712670 20804810 20899924 20998256 21100022 21205324 21314168 
2635.936 21426032 21540954 21658868 21779668 21903570 22030400 22159640 
2639.311 22290416 22421998 22553378 22683576 22811926 22937906 23060496 
2642.687 23179766 23295608 23408332 23519162 23629252 23739580 23851090 
2646.062 23963960 24077910 24192834 24308982 24426668 24547224 24671954 
2649.437 24801734 24937030 25077738 25222950 25372252 25525118 25681518 
2652.812 25842266 26007856 26178930 26355774 26538290 26726064 26919066 
2656.188 27117090 27320110 27528344 27741446 27959102 28180830 28406350 
2659.563 28634996 28866736 29101328 29338562 29577738 29818358 30059002 
2662.938 30298824 30537034 30773064 31006908 31239064 31470310 31701394 
2666.313 31933316 32167144 32403488 32642678 32885038 33129860 33377140 
2669.688 33626356 33877680 34131520 34388380 34648864 34912672 35179260 
2673.064 35447200 35714764 35980440 36242932 36501400 36755188 37003356 
2676.439 37245056 37478692 37703024 37917524 38122872 38320900 38515212 
2679.814 38710088 38909756 39118548 39340172 39577152 39831912 40106224 
2683.189 40400820 40716432 41053068 41410268 41787276 42183632 42598376 
2686.565 43031036 43480900 43946888 44427136 44919564 45422304 45933136 
2689.940 46451724 46977912 47512792 48057660 48613480 49180848 49760248 
2693.315 50351176 50953308 51566384 52189784 52822908 53464828 54114560 
2696.690 54770948 55433148 56100728 56773644 57451612 58134352 58821088 
2700.066 59510892 60202932 60896304 61590476 62285004 62978416 63668720 
2703.441 64352432 65025068 65681592 66316948 66926724 67506928 68054192 
2706.816 68564432 69033632 69457256 69831144 70151792 70417272 70626648 
2710.191 70780592 70880240 70927176 70922728 70867920 70763936 70611560 
2713.567 70411696 70164720 69870952 69530008 69141736 68705376 68221336 
2716.942 67690672 67115400 66498680 65844776 65158516 64444744 63709348 
2720.317 62957196 62193836 61424604 60654868 59890032 59136292 58399288 
2723.692 57685140 56999704 56347600 55732524 55156840 54621524 54126796 
2727.068 53672596 53258760 52885700 52554204 52264744 52017564 51812224 
2730.443 51647356 51521056 51431080 51375616 51353020 51362788 51404112 
2733.818 51476400 51578660 51709312 51865988 52046140 52246732 52464388 
2737.193 52696076 52938136 53186740 53438184 53689020 53935652 54175476 
2740.569 54405936 54624908 54830568 55021728 55197324 55358048 55505244 
2743.944 55641072 55768808 55891832 56012664 56133304 56255336 56378992 
2747.319 56504752 56633080 56764240 56898648 57036696 57178068 57322664 
2750.694 57469992 57620436 57774756 57934808 58102912 58282488 58476848 
2754.070 58689344 58923348 59181552 59466052 59777884 60117380 60482992 
2757.445 60872512 61282916 61710312 62150440 62598332 63048980 63495764 
2760.820 63932060 64350472 64743252 65103888 65426388 65705836 65938944 
2764.195 66122756 66255188 66335128 66362268 66337564 66263988 66146100 
2767.571 65989508 65800084 65584660 65348776 65097964 64837300 64571248 
2770.946 64304328 64040944 63784176 63537484 63302784 63081464 62874316 
2774.321 62681996 62504464 62341684 62193072 62056748 61929980 61808480 
2777.696 61686824 61558444 61416136 61252920 61061820 60837676 60576464 
2781.072 60276852 59939856 59568880 59169252 58747568 58311096 57866776 
2784.447 57420712 56978244 56543284 56118940 55707176 55309084 54925048 
2787.822 54554348 54196196 53849372 53513056 53186776 52870992 52566360 
2791.197 52273936 51994744 51729244 51477296 51237872 51009424 50790184 
2794.573 50577788 50370116 50165296 49961308 49756348 49548656 49336424 
2797.948 49117840 48891176 48654392 48406188 48145240 47870684 47582552 
2801.323 47280568 46965212 46636800 46295628 45941608 45574888 45195756 
2804.698 44804864 44403832 43995140 43581916 43168068 42757248 42353420 
2808.073 41959824 41579860 41215928 40870212 40545032 40241832 39962452 
2811.449 39707944 39478876 39275536 39097340 38943136 38811776 38701536 
2814.824 38610952 38538928 38485052 38449144 38431908 38434516 38458012 
2818.199 38503880 38573328 38667128 38785908 38930776 39101324 39298056 
2821.574 39520280 39767128 40036788 40327336 40636492 40961812 41301224 
2824.950 41652972 42014720 42383960 42756732 43128144 43492252 43842300 
2828.325 44171136 44473056 44742564 44976376 45172296 45330232 45450556 
2831.700 45535216 45586920 45609076 45605728 45581808 45542908 45494668 
2835.075 45443492 45394972 45354476 45326376 45313612 45318760 45343772 
2838.451 45390776 45462880 45565356 45703892 45886476 46122008 46419384 
2841.826 46788260 47238972 47781648 48428632 49193424 50089652 51131032 
2845.201 52327420 53681036 55182012 56804644 58506040 60220780 61869148 
2848.576 63362128 64603544 65509760 66014776 66077612 65690340 64875112 
2851.952 63682912 62180724 60449100 58573412 56630588 54693300 52822424 
2855.327 51062900 49448172 47997116 46715936 45600424 44637756 43811148 
2858.702 43099748 42483152 41942928 41462136 41026884 40626372 40251496 
2862.077 39896084 39556172 39229908 38917696 38621600 38344496 38089560 
2865.453 37860184 37659624 37490324 37355144 37256540 37196144 37175100 
2868.828 37193436 37249208 37338460 37455288 37592704 37742056 37895036 
2872.203 38043948 38182456 38306892 38416016 38512064 38599476 38684584 
2875.578 38774604 38876420 38995908 39137656 39304552 39497996 39718328 
2878.954 39965248 40237612 40533024 40849280 41183176 41531184 41890712 
2882.329 42259412 42635328 43017572 43404256 43793224 44181848 44565936 
2885.704 44941284 45304088 45651216 45981056 46294040 46592204 46878828 
2889.079 47158704 47436724 47718108 48007476 48309632 48628600 48969388 
2892.455 49337392 49739256 50183220 50678760 51234780 51859824 52559256 
2895.830 53333648 54176940 55075664 56007496 56940656 57839064 58662416 
2899.205 59370424 59931680 60324548 60542376 60593572 60500936 60297672 
2902.580 60020084 59706636 59392080 59104480 58867796 58699924 58614856 
2905.956 58624264 58737172 58960960 59301824 59764844 60355124 61078332 
2909.331 61940408 62947124 64103044 65408320 66857264 68435320 70119824 
2912.706 71876480 73661512 75425720 77112240 78663536 80028368 81161776 
2916.081 82033392 82629832 82954304 83025336 82870640 82525000 82021352 
2919.457 81387352 80643952 79802864 78868904 77841688 76720104 75504096 
2922.832 74198592 72813960 71366784 69878656 68373264 66874808 65405740 
2926.207 63983740 62622944 61332364 60117336 58980084 57920800 56938576 
2929.582 56031928 55198868 54437336 53745152 53119408 52557196 52054952 
2932.958 51608848 51214944 50869296 50568260 50308428 50086568 49899384 
2936.333 49743120 49613096 49503388 49407368 49317680 49227900 49132832 
2939.708 49029584 48918132 48801184 48683304 48569492 48464604 48371444 
2943.083 48289672 48215504 48142204 48060252 47958300 47826440 47656792 
2946.458 47445484 47194420 46910984 46607696 46299568 46003416 45734516 
2949.834 45504308 45319976 45182884 45089800 45032756 45001036 44983176 
2953.209 44966492 44939888 44894284 44822460 44719284 44581980 44409116 
2956.584 44200480 43956968 43680760 43374560 43042672 42690340 42322520 
2959.959 41944644 41561516 41176836 40793768 40414784 40042488 39679880 
2963.335 39330556 38997900 38685888 38397668 38135788 37901656 37696228 
2966.710 37519224 37370056 37247188 37148172 37069248 37006316 36953964 
2970.085 36906596 36859884 36809572 36753280 36690320 36621424 36548432 
2973.460 36474084 36401764 36334140 36273548 36219736 36169928 36118112 
2976.836 36054308 35966080 35839608 35660624 35418040 35104604 34718492 
2980.211 34263336 33748528 33188116 32597996 31996298 31400458 30825100 
2983.586 30282692 29781946 29327576 28921662 28564500 28255472 27994830 
2986.961 27784006 27624694 27517752 27461028 27447156 27460638 27479664 
2990.337 27476804 27420968 27285424 27050332 26707108 26260830 25729716 
2993.712 25142122 24529204 23923276 23350498 22828062 22364228 21958912 
2997.087 21606628 21298402 21025036 20778844 20553602 20344518 20148620 
3000.462 19963286 19786530 19616742 19452634 19293162 19137936 18986678 
3003.838 18839106 18695492 18556318 18422096 18293794 18172748 18059302 
3007.213 17953722 17855488 17763388 17675998 17592318 17511724 17434146 
3010.588 17360410 17291134 17227144 17168782 17115772 17067798 17024618 
3013.963 16985992 16952020 16923598 16901066 16885084 16876436 16874818 
3017.339 16879880 16890768 16905856 16923252 16941236 16957808 16971554 
3020.714 16981478 16986474 16985270 16976516 16958222 16928490 16886288 
3024.089 16831692 16766634 16694663 16620640 16549004 16483746 16427033 
3027.464 16379308 16339568 16306370 16277920 16252741 16229592 16207304 
3030.840 16184261 16158501 16127998 16090794 16045820 15993048 15933855 
3034.215 15870478 15805632 15742306 15683319 15630763 15586113 15550155 
3037.590 15522785 15503041 15489546 15481099 15476223 15474507 15476052 
3040.965 15481682 15492464 15509016 15531301 15558603 15589547 15622313 
3044.341 15655357 15687544 15717810 15746085 15772473 15797110 15820580 
3047.716 15843499 15866010 15888384 15910173 15930349 15947638 15960734 
3051.091 15968470 15970532 15967438 15959704 15948325 15933855 15916565 
3054.466 15896115 15872436 15845321 15815699 15784567 15753163 15722826 
3057.842 15694449 15668306 15644537 15623275 15604797 15589273 15577045 
3061.217 15567533 15560115 15553864 15548129 15542497 15538032 15535835 
3064.592 15537311 15543390 15554104 15568013 15583742 15599439 15614036 
3067.967 15627259 15639763 15652368 15666109 15681017 15697300 15714685 
3071.343 15733132 15753198 15775874 15802229 15833156 15869068 15909899 
3074.718 15954513 16001815 16050702 16099768 16148254 16195850 16241940 
3078.093 16286589 16329797 16371978 16413303 16453737 16493279 16531553 
3081.468 16567972 16602291 16634136 16663503 16690429 16715117 16737260 
3084.844 16756888 16774004 16789226 16803622 16819260 16837894 16861694 
3088.219 16891524 16927388 16968524 17012904 17059044 17105432 17150858 
3091.594 17195154 17238316 17280308 17321616 17362584 17404036 17447046 
3094.969 17492958 17542428 17596112 17653428 17713546 17774708 17835464 
3098.344 17894608 17951616 18006664 18060164 18113154 18166286 18220464 
3101.720 18275788 18332468 18389950 18447266 18503690 18557770 18609126 
3105.095 18658342 18706388 18755236 18806960 18862636 18922264 18985190 
3108.470 19048988 19111516 19171420 19227940 19281904 19334730 19387980 
3111.845 19442792 19499902 19559030 19619724 19681536 19743844 19806194 
3115.221 19868276 19929708 19989620 20048014 20104962 20161150 20217728 
3118.596 20275670 20335874 20398830 20463982 20530432 20597516 20664854 
3121.971 20732064 20799352 20866618 20933648 20999928 21064858 21127918 
3125.346 21189146 21249270 21309088 21369748 21431984 21496038 21561706 
3128.722 21628462 21695752 21762806 21829106 21894264 21958250 22021094 
3132.097 22083110 22145100 22207934 22272732 22339844 22409790 22482258 
3135.472 22556520 22631840 22707806 22783990 22860470 22936752 23012350 
3138.847 23086388 23157748 23225482 23289454 23350358 23409278 23468134 
3142.223 23528642 23591818 23657874 23726596 23797082 23868872 23941728 
3145.598 24015538 24090728 24167892 24246928 24327940 24410894 24495408 
3148.973 24581306 24668622 24757114 24846502 24936574 25026734 25116284 
3152.348 25204550 25290904 25374676 25456004 25534852 25611886 25688304 
3155.724 25765400 25844410 25926776 26012676 26101830 26193534 26286350 
3159.099 26379152 26471550 26563230 26654960 26747700 26841974 26938594 
3162.474 27037532 27138852 27241996 27346964 27453334 27560504 27668304 
3165.849 27775600 27881228 27984230 28083508 28178250 28268380 28353682 
3169.225 28434544 28511246 28583998 28652904 28717750 28778218 28833946 
3172.600 28884690 28929878 28969512 29003446 29032032 29055908 29075394 
3175.975 29091374 29104624 29116174 29127264 29139204 29153520 29171380 
3179.350 29193492 29219610 29249276 29281068 29313218 29344662 29374582 
3182.726 29402698 29429786 29456486 29483506 29511166 29539432 29567770 
3186.101 29595792 29623318 29650314 29677064 29704346 29732766 29763104 
3189.476 29796284 29832588 29872374 29915252 29960406 30006418 30051760 
3192.851 30094726 30134500 30170516 30202658 30231786 30258714 30283902 
3196.227 30308380 30332682 30357768 30384314 30413452 30445152 30479272 
3199.602 30514818 30550544 30584812 30616988 30646856 30675160 30702968 
3202.977 30731204 30759904 30789070 30817276 30843634 30867648 30889100 
3206.352 30908560 30926990 30944994 30963174 30981928 31001962 31024062 
3209.728 31048974 31077268 31108804 31142514 31176224 31207448 31233760 
3213.103 31254374 31269434 31280938 31291336 31303230 31317864 31335636 
3216.478 31355296 31375420 31394400 31411428 31426422 31440492 31454884 
3219.853 31471308 31491398 31515840 31545128 31579264 31616892 31656522 
3223.229 31696048 31733580 31767588 31797856 31824668 31849660 31874404 
3226.604 31900756 31929500 31961024 31994942 32030146 32065782 32100994 
3229.979 32134924 32167428 32198294 32227840 32256820 32286264 32316782 
3233.354 32349334 32384138 32420340 32456900 32492716 32526426 32558032 
3236.729 32587744 32616854 32646358 32677330 32709874 32744064 32779582 
3240.105 32816280 32853946 32893118 32933540 32974790 33015940 33055410 
3243.480 33091988 33125494 33156212 33185650 33215836 33248492 33284516 
3246.855 33323794 33365406 33407878 33449926 33490974 33530348 33568648 
3250.230 33605592 33641392 33675836 33708924 33740684 33771628 33802356 
3253.606 33833088 33864108 33894700 33923932 33950656 33973768 33992616 
3256.981 34007736 34020028 34030564 34041172 34052780 34066040 34081020 
3260.356 34097436 34114176 34130232 34144244 34155572 34163492 34167936 
3263.731 34169016 34166972 34162240 34154964 34145212 34133276 34119692 
3267.107 34105032 34090340 34076472 34064248 34053676 34044216 34035080 
3270.482 34025044 34013040 33998744 33982260 33964380 33945820 33927584 
3273.857 33909996 33892976 33876216 33858696 33839568 33818076 33794116 
3277.232 33767760 33740256 33713000 33687580 33665592 33647800 33634232 
3280.608 33623884 33615364 33606916 33597180 33585688 33572296 33558016 
3283.983 33544090 33531420 33520360 33511124 33502928 33494770 33485714 
3287.358 33474978 33462164 33447672 33431924 33416432 33402688 33392240 
3290.733 33386302 33385944 33391238 33401578 33415894 33432998 33451680 
3294.109 33471256 33491618 33512988 33536036 33561344 33589160 33619768 
3297.484 33652848 33688080 33724892 33762636 33800564 33838316 33875604 
3300.859 33912288 33949368 33987416 34027192 34070020 34116216 34166004 
3304.234 34219416 34275708 34334300 34394620 34455880 34517472 34579000 
3307.610 34640144 34700652 34761060 34821764 34883624 34947504 35013908 
3310.985 35083124 35154576 35228232 35303196 35379328 35456220 35534248 
3314.360 35613472 35694364 35776932 35861272 35947576 36035520 36124628 
3317.735 36214372 36303840 36391924 36477684 36560508 36640208 36717616 
3321.111 36793596 36868904 36944512 37020492 37096420 37171776 37245996 
3324.486 37318456 37388796 37456808 37521856 37584072 37643072 37699340 
3327.861 37754056 37808204 37863076 37919260 37976428 38032772 38086340 
3331.236 38134920 38177172 38212992 38243204 38268536 38289704 38306532 
3334.612 38317896 38322272 38318872 38307688 38289956 38267992 38243820 
3337.987 38218888 38193564 38166972 38137236 38103268 38063336 38017004 
3341.362 37964280 37905016 37838892 37765984 37685856 37598412 37503836 
3344.737 37402124 37293796 37179320 37059104 36933760 36804848 36673628 
3348.113 36541656 36410448 36280464 36151128 36021332 35889452 35754120 
3351.488 35614984 35472436 35327460 35181056 35034236 34887072 34739952 
3354.863 34592852 34446696 34302992 34163640 34029992 33902756 33781476 
3358.238 33664916 33551466 33439942 33329700 33221416 33115842 33013902 
3361.614 32915954 32821640 32729634 32638822 32548532 32458044 32367434 
3364.989 32277412 32188658 32102138 32018912 31939984 31865988 31797216 
3368.364 31733402 31673022 31614684 31556350 31496458 31434224 31369612 
3371.739 31303302 31236038 31168324 31100012 31029826 30956202 30877254 
3375.115 30791522 30698308 30597078 30488408 30373084 30252106 30126652 
3378.490 29997932 29866342 29731986 29593912 29450634 29299818 29139596 
3381.865 28968378 28785828 28592634 28390576 28181608 27967938 27751018 
3385.240 27532050 27311854 27090992 26869820 26649042 26428448 26207542 
3388.615 25985622 25761392 25533938 25302704 25068504 24832644 24597434 
3391.991 24364912 24137172 23915608 23700316 23490692 23285748 23083416 
3395.366 22882264 22680784 22478316 22274686 22071082 21869282 21671022 
3398.741 21478006 21290782 21108370 20929408 20751492 20572190 20390356 
3402.116 20204990 20016684 19826204 19634802 19443452 19252842 19063564 
3405.492 18876374 18692172 18512058 18336372 18165526 17998892 17835188 
3408.867 17673238 17511966 17351340 17191638 17033852 16878676 16726136 
3412.242 16576026 16427377 16279262 16131196 15983561 15837109 15693350 
3415.617 15553487 15417924 15286867 15159623 15035057 14912379 14790799 
3418.993 14669697 14549247 14429617 14311424 14195318 14082461 13973190 
3422.368 13867813 13765746 13665889 13566569 13466281 13364068 13260137 
3425.743 13155958 13053408 12954501 12860804 12772178 12687459 12604735 
3429.118 12521753 12436844 12349226 12259374 12168246 12077411 11987956 
3432.494 11900802 11816627 11735498 11657652 11582849 11510848 11440867 
3435.869 11372188 11303759 11234627 11164417 11093031 11020941 10948761 
3439.244 10876865 10805083 10733178 10660673 10586889 10511930 10436136 
3442.619 10360152 10284688 10209986 10135804 10061533 9986293 9909878 
3445.995 9832527 9755293 9679258 9606217 9536677 9471076 9408465 9347590 
3449.852 9287501 9226880 9165455 9102989 9039889 8976360 8912433 8848042 
3453.709 8782749 8716417 8649013 8580606 8512075 8443690 8375889 8309012 
3457.567 8242887 8177616 8112794 8047949 7982843 7916970 7849860 7781916 
3461.424 7713207 7644576 7577339 7512843 7451794 7394731 7340945 7289051 
3465.282 7237670 7185250 7131085 7075276 7018633 6961829 6905874 6850903 
3469.139 6796577 6741990 6686433 6629403 6571002 6511633 6452002 6392885 
3472.997 6334952 6278641 6224623 6173972 6127427 6085658 6049033 6016410 
3476.854 5985839 5954900 5920504 5880434 5833618 5779957 5720696 5658355 
3480.711 5595485 5534874 5478766 5428807 5385998 5350908 5322631 5300057 
3484.569 5281611 5264640 5246999 5227414 5204611 5178422 5149988 5120517 
3488.426 5091349 5064028 5039355 5017902 4999736 4984519 4971582 4960488 
3492.284 4950065 4939341 4927913 4915145 4901507 4887567 4874565 4863809 
3496.141 4856505 4853422 4854796 4860593 4870008 4882306 4896715 4912531 
3499.999 4929153 4946144 4963471 4981804 5002116 5025545 5053635 5087661 
3503.856 5128831 5177583 5233618 5296033 5363287 5433101 5503229 5571689 
3507.713 5636872 5698505 5757796 5817230 5879896 5948920 6025851 6110792 
3511.571 6201229 6293870 6385084 6472248 6554485 6633138 6710862 6790317 
3515.428 6873220 6959371 7046617 7131455 7210010 7279920 7339630 7389710 
3519.286 7431671 7466558 7495481 7517866 7532497 7538296 7533913 7519888 
3523.143 7496964 7466491 7429514 7386069 7334912 7273788 7200140 7112863 
3527.000 7012000 6899613 6778740 6653560 6527071 6400989 6275212 6149001 
3530.858 6020408 5888293 5752122 5611966 5467794 5320350 5169469 5015188 
3534.715 4858013 4699353 4541556 4387096 4238278 4096502 3961493 3831908 
3538.573 3705871 3582008 3459550 3338863 3220746 3105965 2994584 2886000 
3542.430 2779044 2672114 2564144 2454001 2341388 2226440 2109790 1992673 
3546.288 1877217 1766284 1662630 1568478 1484387 1408556 1337425 1266671 
3550.145 1191908 1110780 1023556 933095 843549 759532 684226 618323 560890 
3554.485 509668 462300 417722 375305 335180 297214 260577 223546 184396 
3558.824 141505 94342 43208 -10039 -63844 -115788 -165108 -211244 -254428 
3563.164 -296249 -338464 -384019 -436056 -497653 -570656 -654367 -745240 
3567.021 -836292 -919026 -986736 -1034470 -1062467 -1073936 -1074697 
3570.396 -1070763 -1067789 -1069441 -1078068 -1094230 -1117828 -1147769 
3573.772 -1183094 -1222382 -1264077 -1307024 -1349570 -1390494 -1429135 
3577.147 -1465197 -1498681 -1529917 -1559565 -1587627 -1615127 -1642261 
3580.522 -1669393 -1696524 -1722861 -1747217 -1768436 -1785628 -1798464 
3583.897 -1808363 -1818196 -1831394 -1852477 -1884182 -1927596 -1980504 
3587.273 -2037858 -2092863 -2137938 -2169358 -2185546 -2188513 -2182612 
3590.648 -2173644 -2166622 -2165995 -2173875 -2190854 -2215150 -2244092 
3594.023 -2274187 -2302499 -2327020 -2346794 -2361986 -2373190 -2380704 
3597.398 -2384955 -2386240 -2384955 -2382220 -2379517 -2378364 -2379880 
3600.774 -2384164 -2390557 -2396883 -2401167 -2401299 -2396718 -2387360 
3604.149 -2374476 -2360338 -2347815 -2340763 -2342938 -2358064 -2388546 
3607.524 -2434414 -2493355 -2559404 -2625310 -2684028 -2731412 -2766345 
3610.899 -2791564 -2811251 -2830146 -2851115 -2874584 -2897987 -2918031 
3614.275 -2931393 -2936856 -2935869 -2931920 -2929846 -2934421 -2949362 
3617.650 -2975887 -3012643 -3055154 -3096839 -3130789 -3151019 -3154934 
3621.025 -3143947 -3121972 -3094634 -3067821 -3045020 -3027088 -3012248 
3624.400 -2997079 -2978256 -2955582 -2933038 -2918590 -2924317 -2961275 
3627.776 -3035018 -3140690 -3260610 -3369778 -3444931 -3475632 -3465278 
3631.151 -3427015 -3376749 -3328219 -3291259 -3268766 -3259459 -3258341 
3634.526 -3260117 -3260972 -3258998 -3255710 -3253046 -3252586 -3255447 
3637.901 -3260807 -3267187 -3273271 -3278565 -3283630 -3289121 -3295501 
3641.277 -3301650 -3305596 -3304116 -3293955 -3273337 -3242818 -3204700 
3644.652 -3163947 -3126710 -3098648 -3084633 -3087561 -3108419 -3145986 
3648.027 -3198122 -3261202 -3331441 -3403017 -3468401 -3518526 -3545344 
3651.402 -3543569 -3513398 -3460183 -3392957 -3323582 -3264096 -3224105 
3654.778 -3209863 -3222098 -3254986 -3297276 -3336537 -3362479 -3369778 
3658.153 -3359257 -3335189 -3302768 -3267943 -3234169 -3204371 -3179768 
3661.528 -3160756 -3146809 -3137467 -3131512 -3126874 -3121051 -3110689 
3664.903 -3091706 -3060517 -3014551 -2953476 -2880016 -2800091 -2719854 
3668.279 -2644576 -2572876 -2494376 -2388711 -2228995 -1993598 -1671077 
3671.654 -1264342 -786155 -255951 303713 867021 1395426 1837253 2134563 
3675.511 2234133 2113253 1788242 1304190 715256 70614 -585249 -1214782 
3679.369 -1783384 -2260870 -2631140 -2893247 -3062721 -3163947 -3222559 
3682.744 -3258637 -3282446 -3296816 -3300927 -3294777 -3282577 -3272942 
3686.119 -3275902 -3300663 -3351169 -3425108 -3512774 -3601342 -3679115 
3689.494 -3739334 -3780295 -3804175 -3813765 -3810776 -3796522 -3772379 
3692.870 -3740319 -3704084 -3667945 -3634760 -3606928 -3584517 -3566738 
3696.245 -3552048 -3539625 -3529108 -3521352 -3517605 -3518986 -3526216 
3699.620 -3539330 -3557865 -3580179 -3604233 -3626709 -3644222 -3653915 
3702.995 -3654112 -3644485 -3626906 -3603905 -3578339 -3552476 -3527465 
3706.371 -3503571 -3480892 -3459296 -3440033 -3425108 -3417745 -3420835 
3709.746 -3436976 -3466790 -3508961 -3560166 -3614946 -3666762 -3709012 
3713.121 -3736246 -3744622 -3734012 -3706548 -3666762 -3620795 -3575677 
3716.496 -3536602 -3507877 -3490785 -3484277 -3485230 -3490851 -3498246 
3719.872 -3506595 -3515633 -3524639 -3532790 -3538410 -3539264 -3534860 
3723.247 -3525493 -3514121 -3504557 -3500646 -3504294 -3514615 -3528287 
3726.622 -3539527 -3542189 -3532954 -3510309 -3477079 -3438291 -3401011 
3729.997 -3372277 -3357975 -3361033 -3380464 -3412222 -3449599 -3486677 
3733.373 -3521483 -3555893 -3594769 -3642514 -3699978 -3761704 -3817969 
3736.748 -3857085 -3871370 -3859482 -3825096 -3774843 -3715352 -3651648 
3740.123 -3585799 -3519742 -3456633 -3403115 -3370272 -3373000 -3424056 
3743.498 -3527597 -3670047 -3819546 -3935535 -3990071 -3978777 -3917935 
3746.874 -3833406 -3750338 -3688840 -3660585 -3667320 -3701554 -3750897 
3750.249 -3802105 -3845262 -3876658 -3894982 -3899251 -3887659 -3858136 
3753.624 -3811203 -3750995 -3685128 -3622898 -3572029 -3538344 -3522930 
3756.999 -3523916 -3536405 -3555959 -3579226 -3603970 -3628352 -3649250 
3760.375 -3661111 -3658745 -3639228 -3603708 -3558358 -3513070 -3477900 
3763.750 -3460348 -3462846 -3481089 -3506299 -3528057 -3539100 -3537719 
3767.125 -3528911 -3520333 -3519643 -3531475 -3555532 -3586160 -3614584 
3770.500 -3632558 -3635187 -3621846 -3595788 -3562729 -3528221 -3497063 
3773.875 -3471524 -3451965 -3437337 -3425240 -3414161 -3404102 -3396737 
3777.251 -3395620 -3404562 -3425470 -3457192 -3494138 -3527860 -3549748 
3780.626 -3554677 -3542616 -3518558 -3490424 -3466922 -3453346 -3452064 
3784.001 -3460578 -3474318 -3488222 -3499002 -3505937 -3510769 -3515502 
3787.376 -3521023 -3526643 -3530029 -3528846 -3521812 -3509224 -3493053 
3790.752 -3475895 -3459625 -3445128 -3432538 -3422018 -3414326 -3412222 
3794.127 -3418829 -3436548 -3465147 -3500449 -3534170 -3556222 -3558982 
3797.502 -3539527 -3502388 -3457619 -3419816 -3403773 -3421394 -3476651 
3800.877 -3562433 -3660289 -3744589 -3792547 -3794617 -3754083 -3685226 
3804.253 -3607717 -3541532 -3502256 -3498805 -3529569 -3582545 -3639130 
3807.628 -3678820 -3689859 -3670606 -3628089 -3573048 -3515633 -3462945 
3811.003 -3416923 -3376749 -3340286 -3306747 -3278467 -3261366 -3262386 
3814.378 -3287872 -3339102 -3409625 -3484934 -3546921 -3581724 -3584878 
3817.754 -3562696 -3528648 -3500251 -3493250 -3517901 -3576038 -3658088 
3821.129 -3743276 -3807295 -3832552 -3813568 -3758320 -3682105 -3602787 
3824.504 -3535419 -3489240 -3467020 -3464654 -3473529 -3482732 -3483455 
3827.879 -3471951 -3449533 -3421098 -3393417 -3372146 -3361000 -3360276 
3831.255 -3367937 -3379674 -3391181 -3398283 -3398809 -3391642 -3378721 
3834.630 -3362677 -3348867 -3342850 -3350314 -3374513 -3415739 -3469387 
3838.005 -3527202 -3579949 -3619119 -3640970 -3645307 -3636041 -3618034 
3841.380 -3596741 -3576038 -3558490 -3544982 -3534334 -3524639 -3513234 
3844.756 -3497260 -3474778 -3445128 -3409066 -3368956 -3327232 -3286392 
3848.131 -3247587 -3211475 -3177499 -3146085 -3119834 -3104964 -3110886 
3851.506 -3149276 -3229926 -3353997 -3509389 -3668076 -3796916 -3871994 
3854.881 -3887002 -3851797 -3784237 -3702179 -3618199 -3540513 -3473069 
3858.257 -3416660 -3370962 -3335189 -3308226 -3288858 -3275639 -3267187 
3861.632 -3262715 -3262649 -3269391 -3285767 -3314244 -3352879 -3395817 
3865.007 -3433261 -3454792 -3453971 -3431157 -3394535 -3358074 -3336176 
3868.382 -3341371 -3377735 -3439441 -3509421 -3566738 -3596380 -3593948 
3871.758 -3566541 -3527202 -3490391 -3466034 -3456929 -3459099 -3463175 
3875.133 -3459887 -3443090 -3412057 -3371817 -3330816 -3297474 -3279388 
3878.508 -3280736 -3302209 -3339398 -3384409 -3426752 -3456535 -3467744 
3881.883 -3458277 -3432275 -3398020 -3365011 -3343475 -3340812 -3358731 
3885.259 -3391905 -3429218 -3457061 -3464489 -3448251 -3412255 -3366425 
3888.634 -3322037 -3289516 -3275968 -3283465 -3308029 -3340845 -3372047 
3892.009 -3392792 -3398184 -3388716 -3367510 -3339300 -3308391 -3278105 
3895.384 -3250777 -3228117 -3211508 -3202529 -3202332 -3211311 -3228479 
3898.760 -3251796 -3277349 -3301354 -3320755 -3334630 -3343771 -3351399 
3902.135 -3361033 -3374907 -3393910 -3416167 -3437436 -3453313 -3459526 
3905.510 -3454004 -3437370 -3411794 -3380266 -3346204 -3311613 -3277908 
3908.885 -3245482 -3214501 -3184899 -3157138 -3132565 -3111544 -3094996 
3912.260 -3082988 -3075158 -3071243 -3071111 -3074993 -3084008 -3098845 
3915.636 -3119571 -3144671 -3171578 -3196576 -3216310 -3228315 -3232228 
3919.011 -3228545 -3219237 -3206279 -3191543 -3176610 -3163058 -3152565 
3922.386 -3146776 -3147138 -3153848 -3165887 -3180064 -3192464 -3199075 
3925.761 -3197530 -3187925 -3172630 -3155559 -3140197 -3129243 -3123617 
3929.137 -3122301 -3123782 -3126578 -3129802 -3134013 -3140131 -3148355 
3932.512 -3158124 -3167466 -3173913 -3175130 -3170756 -3161315 -3149013 
3935.887 -3136677 -3126512 -3119275 -3115163 -3112597 -3110327 -3107498 
3939.262 -3104372 -3102366 -3103550 -3110261 -3123584 -3143486 -3167631 
3942.638 -3192300 -3213679 -3227657 -3231932 -3226308 -3212659 -3193945 
3946.013 -3174308 -3157467 -3145625 -3139966 -3139671 -3142598 -3147138 
3949.388 -3151118 -3153585 -3154111 -3152894 -3149736 -3144868 -3138552 
3952.763 -3130723 -3122598 -3115459 -3110327 -3107794 -3107432 -3108057 
3956.139 -3107300 -3103583 -3095983 -3085192 -3073118 -3062195 -3054891 
3959.514 -3052654 -3055417 -3061965 -3070585 -3079369 -3086837 -3091871 
3962.889 -3094239 -3093615 -3090390 -3084633 -3076967 -3068019 -3058905 
3966.264 -3050317 -3042717 -3035939 -3029556 -3023074 -3016032 -3008464 
3969.640 -3001093 -2994347 -2988852 -2984311 -2980296 -2975821 -2970127 
3973.015 -2963250 -2955352 -2947387 -2939884 -2933269 -2927345 -2921519 
3976.390 -2915036 -2907696 -2899764 -2891997 -2884920 -2879456 -2875440 
3979.765 -2872972 -2871787 -2871688 -2872478 -2874486 -2877547 -2881266 
3983.141 -2884953 -2887652 -2888771 -2888145 -2886105 -2883373 -2881266 
3986.516 -2880707 -2881892 -2885183 -2889956 -2895452 -2901212 -2906347 
3989.891 -2910527 -2913357 -2914937 -2915299 -2915398 -2916188 -2918228 
3993.266 -2922671 -2929287 -2937712 -2947025 -2956043 -2963480 -2968844 
3996.642 -2972332 -2973813 -2974274 -2974142 -2973879 -2974241 -2975426 
4000.017 -2977532 -2980559 
##END=
