
##TITLE=1675_1_d
##JCAMP-DX=5.01  $$ Nicolet v. 1
##DATATYPE=INFRARED SPECTRUM
##ORIGIN=UniL
##OWNER=Nicolet
##LONGDATE=2011/09/16
##TIME=11:25:42
##SPECTROMETER/DATA SYSTEM=Nicolet iS5
##DATA PROCESSING=
Ratio against background
%Transmittance->Absorbance
Truncated
ElementMultiply or ElementDivide
##COMMENTS=
Number of sample scans: 32
Collection length: 51.15 sec
Sample gain: 2.0
Background collected on: Ven Sep 16 11:19:38 2011 (GMT+02:00);
Number of background scans: 32
Background gain: 2.0
Sample spacing:  1.000
Number of scan points: 12415
Resolution points: 8192
Number of FFT points: 65536
Apodization: N-B fort;
Phase correction: Mertz;
Laser frequency: 15798.0 cm-1
Number of rejected sample scans: 0
Number of rejected background scans: 0
Bench serial number: ASB1000141;
##RESOLUTION=4.000
##XUNITS=1/CM
##YUNITS=ABSORBANCE
##FIRSTX=649.893372
##LASTX=4000.122314
##FIRSTY=0.076116
##MAXX=4000.122314
##MINX=649.893372
##MAXY=0.249483
##MINY=-0.003590
##XFACTOR=1.000000
##YFACTOR=1.000000E-009
##NPOINTS=6950
##DELTAX=0.482117
##ZPD=6100
##XYDATA=(X++(Y..Y))
649.893 76115744 75714680 75382720 75155952 75045304 75039512 75116912 
653.268 75261144 75467632 75745920 76110248 76568040 77112680 77726200 
656.643 78386224 79076912 79798240 80561056 81380920 82267312 83218248 
660.018 84225328 85283336 86399064 87595008 88901136 90342024 91922920 
663.393 93626408 95416456 97256072 99118536 100978696 102804784 104530968 
666.767 106028000 107124224 107663968 107604064 107047904 106186424 
669.660 105189856 104142176 103055208 101900272 100647248 99292040 97866360 
673.035 96422056 95018584 93693248 92453688 91284576 90164600 89081840 
676.410 88042096 87063384 86163920 85350600 84612584 83925432 83260352 
679.785 82596728 81925912 81250576 80578568 79914920 79259016 78606832 
683.159 77954600 77304408 76664760 76046808 75459192 74903112 74373584 
686.534 73862920 73367800 72892408 72448072 72047448 71697528 71392680 
689.909 71115600 70839672 70540304 70200632 69816472 69394904 68950048 
693.284 68497160 68048728 67615088 67207256 66837944 66523976 66282748 
696.659 66127428 66063844 66088148 66189856 66354432 66569968 66830100 
700.034 67133688 67483592 67881336 68324480 68806464 69316960 69845032 
703.408 70382904 70924680 71465832 72001336 72522232 73017288 73476248 
706.783 73892728 74267464 74609224 74931968 75251056 75579408 75928248 
710.158 76309048 76737144 77237704 77842840 78587416 79499800 80586944 
713.533 81823848 83144816 84453424 85630584 86554696 87136112 87328104 
716.908 87145304 86659416 85995344 85310152 84754816 84469768 84552328 
720.282 85044488 85932504 87144296 88560256 90013048 91317288 92293184 
723.657 92782176 92691976 92010720 90819808 89272088 87567120 85911136 
727.032 84459376 83306232 82475912 81937552 81630592 81490104 81468488 
730.407 81533680 81667304 81854696 82075544 82305280 82521632 82710072 
733.782 82870768 83015024 83159464 83315784 83486176 83663384 83837648 
737.156 84003184 84163224 84328080 84510664 84717768 84946768 85186776 
740.531 85423080 85646400 85854728 86053592 86249832 86447016 86641336 
743.906 86824608 86989496 87136312 87274832 87421984 87593912 87797912 
747.281 88029352 88274240 88515240 88739384 88943960 89133584 89316568 
750.656 89498088 89676544 89845784 90000944 90142704 90279536 90423864 
754.031 90585440 90765200 90954112 91136840 91300280 91441320 91568408 
757.405 91697544 91843584 92013384 92202056 92398064 92589568 92773448 
760.780 92956736 93153256 93373480 93619584 93882528 94149176 94410872 
764.155 94672944 94955160 95288392 95702880 96216904 96834640 97547568 
767.530 98341768 99203968 100125488 101102800 102140152 103256848 104500872 
770.905 105968280 107794504 110136880 113124744 116782056 120961040 
773.797 125288248 129228976 132124680 133361128 132569984 129706872 
776.690 125100728 119320136 113071784 106996696 101532992 96919248 93174768 
780.065 90176752 87728200 85639376 83769528 82030272 80387024 78835536 
783.440 77386128 76053952 74857648 73819952 72963616 72309736 71871280 
786.815 71651176 71645360 71850480 72270456 72922312 73833424 75033728 
790.189 76550368 78401072 80595240 83141040 86051168 89344736 93041624 
793.564 97147232 101635072 106422464 111371328 116278584 120874816 124868632 
796.939 127944512 129796832 130191952 128985120 126166432 121868280 
799.832 116360616 110011152 103207768 96349664 89776680 83733648 78386272 
803.206 73801328 69967480 66818348 64260452 62198964 60550716 59260504 
806.581 58297908 57648244 57300964 57234764 57404792 57744024 58160792 
809.956 58549332 58813428 58869956 58663592 58172196 57400824 56376916 
813.331 55141232 53746728 52250956 50710676 49183812 47719624 46355380 
816.706 45117152 44016660 43055404 42228656 41530784 40957660 40508436 
820.081 40184180 39985556 39911344 39958636 40124652 40410276 40821580 
823.455 41371340 42076516 42952460 44007716 45237340 46617544 48099596 
826.830 49609568 51053024 52311124 53262772 53799416 53839472 53353876 
830.205 52372088 50983080 49312148 47506804 45714384 44050324 42598888 
833.580 41404432 40472936 39780636 39281952 38920920 38633556 38359008 
836.955 38049264 37670860 37213288 36687836 36123404 35557372 35024680 
840.329 34553132 34155860 33833624 33578636 33380754 33231002 33123780 
843.704 33056412 33027164 33033174 33071358 33138082 33231180 33350054 
847.079 33494874 33665128 33858628 34070808 34297112 34534980 34785504 
850.454 35053524 35346044 35669904 36029076 36424644 36856064 37323368 
853.829 37829456 38380836 38985760 39652508 40387584 41194980 42078564 
857.204 43044136 44101008 45263964 46550780 47979280 49567228 51330304 
860.578 53281388 55431904 57786792 60339020 63058444 65885112 68725560 
863.953 71446224 73897832 75926824 77391472 78194616 78289280 77691048 
867.328 76473904 74768088 72746024 70587312 68477368 66579856 65014324 
870.703 63864848 63169828 62926440 63096412 63611976 64385444 65303868 
874.078 66243464 67077892 67678776 67942784 67801080 67227520 66243844 
877.452 64912856 63329660 61596892 59820132 58095752 56497920 55085708 
880.827 53900388 52965724 52293184 51880700 51714536 51768400 52005612 
884.202 52384760 52858232 53380812 53914344 54429260 54911812 55366144 
887.577 55814920 56295092 56851780 57530436 58363888 59368376 60539212 
890.952 61855816 63285308 64791672 66344664 67919232 69496608 71062568 
894.327 72600784 74091056 75507880 76814008 77961056 78889888 79525264 
897.701 79787888 79605216 78920640 77713672 76006512 73867824 71399400 
901.076 68727192 65989548 63308576 60792240 58524616 56558044 54922376 
904.451 53624872 52655188 51990152 51598512 51448348 51509452 51758920 
907.826 52184216 52780772 53549828 54494728 55617344 56916708 58388376 
911.201 60023776 61810048 63725964 65736904 67797088 69847368 71822640 
914.575 73667904 75345120 76844936 78188344 79426112 80630624 81879664 
917.950 83255776 84830336 86653024 88747512 91099368 93653248 96305488 
921.325 98920800 101352488 103459392 105150520 106402864 107278336 107913128 
924.700 108506432 109298408 110514496 112356832 114968160 118403800 
927.593 122619152 127448040 132616696 137712832 142225424 145622368 
930.485 147360016 147012512 144351680 139382016 132368952 123783408 
933.378 114261072 104453544 94951576 86248824 78658296 72347272 67359712 
936.753 63647656 61116052 59652044 59152240 59515372 60632964 62380088 
940.128 64580284 67003532 69392136 71456272 72935280 73645024 73492456 
943.502 72503712 70805352 68607696 66147372 63647808 61300196 59226476 
946.877 57488184 56096580 55027412 54238956 53682908 53317164 53103008 
950.252 53006748 53000276 53057892 53157644 53284236 53427616 53584088 
953.627 53754416 53941880 54149692 54379384 54631596 54905496 55200336 
957.002 55515672 55851432 56207368 56582348 56974620 57382140 57803524 
960.377 58238992 58690028 59158964 59647672 60156536 60683904 61227436 
963.751 61784296 62353460 62935552 63533268 64148784 64783596 65436520 
967.126 66105120 66786580 67479176 68183968 68904024 69643264 70404720 
970.501 71189608 71996960 72825160 73673640 74544240 75440584 76367744 
973.876 77329704 78327968 79362064 80429928 81530560 82664896 83836560 
977.251 85050728 86312680 87627288 88998088 90430072 91930336 93509104 
980.625 95180176 96957480 98852616 100872640 103018872 105285784 107660656 
984.000 110124200 112644264 115171352 117641448 119967200 122047432 
986.893 123784424 125087288 125892712 126174896 125947360 125262336 
989.786 124201536 122876608 121410552 119926272 118545472 117365896 
992.678 116458776 115868312 115608328 115671632 116037040 116679912 
995.571 117576512 118706448 120054120 121604104 123339984 125244648 
998.464 127300176 129489320 131795976 134200152 136673776 139177808 
1001.356 141655744 144040864 146266000 148268368 150005568 151459760 
1004.249 152638992 153574368 154316112 154932720 155499600 156099552 
1007.142 156817488 157724464 158877392 160310944 162035280 164041680 
1010.035 166309024 168814464 171535888 174455680 177559040 180827776 
1012.927 184239744 187770000 191391376 195079808 198812880 202561424 
1015.820 206282464 209908176 213337376 216450304 219117840 221221280 
1018.713 222683008 223475728 223634096 223246016 222454800 221444016 
1021.605 220405728 219544192 219042208 219034144 219608192 220788832 
1024.498 222544976 224797248 227438464 230351888 233410304 236493376 
1027.391 239483248 242255760 244696160 246700976 248188576 249116976 
1030.284 249482816 249320032 248684864 247649312 246290464 244680144 
1033.177 242889840 240981856 238998960 236957280 234834096 232569488 
1036.070 230065984 227210880 223900112 220046736 215602720 210559712 
1038.963 204944768 198815280 192254208 185370896 178286784 171135136 
1041.856 164052064 157151520 150527920 144248160 138348272 132846712 
1044.750 127749576 123056480 118767160 114880560 111393856 108301400 
1047.643 105593576 103257272 101276424 99633952 98311936 97289816 96545648 
1051.018 96054672 95788920 95721256 95825488 96076576 96452424 96928112 
1054.393 97472336 98047424 98603352 99081776 99425448 99577232 99491064 
1057.768 99137848 98505024 97601160 96454704 95117688 93660896 92167392 
1061.144 90733152 89449840 88397976 87645240 87235336 87190584 87512608 
1064.519 88184888 89173696 90429464 91892752 93490904 95142480 96769712 
1067.894 98296520 99658880 100811160 101721912 102373704 102759744 102880072 
1071.269 102740936 102353992 101738544 100919752 99928472 98802064 97582280 
1074.645 96315912 95059072 93870600 92812376 91945072 91315856 90956528 
1078.020 90877520 91068264 91498376 92122536 92888944 93736712 94600680 
1081.395 95416704 96116888 96641376 96948536 97022144 96882632 96587528 
1084.770 96234024 95941264 95838208 96058144 96711336 97881768 99615952 
1088.146 101913256 104719216 107917208 111344192 114782976 117984392 
1091.039 120714176 122758392 123965248 124267296 123679088 122294968 
1093.932 120261680 117771056 115022176 112194080 109445288 106885688 
1096.825 104576200 102534872 100738960 99135600 97648368 96195200 94691728 
1100.200 93059968 91242504 89202992 86933880 84457328 81824408 79109432 
1103.575 76393496 73764216 71301032 69065992 67108936 65461904 64142220 
1106.950 63156912 62504268 62176136 62159236 62435976 62984772 63777692 
1110.326 64782096 65959192 67260096 68630864 70007456 71317232 72490200 
1113.701 73457016 74159640 74560328 74640032 74402048 73866328 73068128 
1117.076 72051832 70863856 69554824 68171056 66752000 65331824 63935632 
1120.451 62581228 61282568 60050256 58893180 57818852 56830516 55926200 
1123.827 55096844 54329140 53607104 52918224 52258876 51637360 51074936 
1127.202 50600312 50247644 50047712 50021128 50177008 50510044 51002380 
1130.577 51623588 52334972 53092184 53843448 54538792 55133104 55591324 
1133.952 55897444 56057068 56098164 56063740 56007916 55985900 56041576 
1137.328 56205364 56487244 56876896 57343648 57840656 58313560 58700568 
1140.703 58944068 58997472 58826096 58411912 57751892 56855968 55743188 
1144.078 54438764 52975156 51387364 49712988 47992748 46263044 44557232 
1147.453 42902640 41317404 39812736 38393392 37060040 35811940 34648688 
1150.829 33571368 32582246 31683892 30878676 30168276 29554186 29037876 
1154.204 28621264 28306750 28095738 27988434 27982994 28076192 28264630 
1157.579 28546064 28920884 29391352 29960798 30631672 31404338 32275736 
1160.954 33239442 34286032 35403520 36575720 37781812 38996956 40189632 
1164.330 41325128 42369308 43287904 44052012 44639444 45034004 45227668 
1167.705 45220020 45018384 44636616 44094112 43414876 42623448 41744888 
1171.080 40804144 39823344 38824168 37827468 36851840 35915868 35035960 
1174.455 34225296 33494696 32851442 32299828 31842564 31480960 31216242 
1177.831 31049400 30981322 31012638 31144152 31376734 31712838 32156084 
1181.206 32711338 33383544 34177008 35093864 36135432 37302244 38595780 
1184.581 40019636 41578292 43276116 45114100 47087204 49182292 51374612 
1187.956 53627536 55893864 58110224 60204340 62099788 63718132 64996280 
1191.332 65893592 66399060 66533320 66345088 65904312 65283880 64555256 
1194.707 63777380 62987684 62205576 61432812 60659252 59868240 59043132 
1198.082 58171852 57247468 56268952 55238716 54159940 53035168 51865128 
1201.457 50650796 49395156 48106336 46799368 45495076 44218748 42998000 
1204.833 41855680 40809532 39869212 39036216 38304940 37666128 37109336 
1208.208 36624384 36202556 35837380 35522776 35254108 35028060 34842872 
1211.583 34699360 34600924 34553280 34563396 34638672 34786472 35013116 
1214.958 35324008 35723180 36213108 36793704 37462040 38212808 39038932 
1218.333 39932848 40889032 41903300 42973052 44096860 45273160 46500436 
1221.709 47778800 49111424 50505952 51974688 53533484 55198156 56981608 
1225.084 58891208 60926760 63079976 65332524 67657056 70014424 72349744 
1228.459 74599552 76687648 78531120 80053864 81185824 81873016 82085792 
1231.834 81820368 81106664 80005384 78614768 77060528 75479064 74021384 
1235.210 72827712 72017288 71694168 71933880 72788256 74291128 76457544 
1238.585 79286296 82755368 86822344 91415136 96425288 101720488 107132656 
1241.960 112464488 117514960 122065776 125906008 128861088 130794120 
1244.853 131634832 131384928 130118352 127968192 125103336 121729112 
1247.746 118055488 114281808 110597240 107143728 104008064 101211208 
1250.639 98703120 96371792 94058848 91604776 88868288 85760016 82263552 
1254.015 78432704 74383024 70256600 66212044 62390796 58892840 55780296 
1257.390 53068148 50733908 48725672 46975988 45413620 43966024 42573376 
1260.765 41190280 39786080 38348008 36876408 35382128 33880692 32389458 
1264.140 30925390 29502550 28133918 26831082 25604294 24462280 23410744 
1267.516 22451028 21580510 20793096 20082126 19441338 18866616 18355902 
1270.891 17907174 17518038 17184294 16900688 16662642 16466849 16312012 
1274.266 16197296 16120881 16078208 16061945 16063079 16072741 16085258 
1277.641 16098391 16113143 16132297 16158707 16194062 16238535 16291371 
1281.017 16350474 16412169 16468914 16509388 16518647 16480030 16380442 
1284.392 16214285 15986895 15713962 15419401 15131523 14875380 14671206 
1287.767 14532527 14466578 14477335 14567269 14738316 14991120 15324312 
1291.142 15733615 16210159 16741632 17312790 17903342 18489444 19044800 
1294.518 19539966 19948266 20250742 20438318 20515980 20500348 20418312 
1297.893 20298408 20168752 20053532 19969706 19929672 19940910 20006100 
1301.268 20122764 20281710 20468046 20661482 20839536 20982678 21074874 
1304.643 21106562 21073238 20974020 20810720 20586710 20308964 19988302 
1308.019 19640348 19284812 18941680 18628218 18357216 18135230 17964704 
1311.394 17846098 17780162 17768806 17813716 17915532 18071944 18278484 
1314.769 18530556 18825368 19163110 19547210 19981224 20466866 21001630 
1318.144 21579084 22190812 22829352 23489328 24167962 24862920 25568764 
1321.520 26275614 26967998 27625894 28229908 28763206 29215288 29585720 
1324.895 29885578 30138798 30378486 30648134 30992782 31449542 32042384 
1328.270 32770828 33609172 34506172 35397336 36218296 36913920 37453372 
1331.645 37831844 38070280 38206372 38288220 38367512 38488784 38690308 
1335.021 39000980 39437620 40005940 40699948 41505192 42400000 43360428 
1338.396 44365112 45394604 46433032 47466592 48481904 49465848 50405764 
1341.771 51287832 52097388 52816096 53418808 53875292 54150740 54209372 
1345.146 54023444 53575804 52863360 51896980 50699204 49302052 47740664 
1348.521 46056060 44292828 42495908 40717164 39010480 37427624 36019680 
1351.897 34827796 33879364 33188760 32756570 32573100 32619498 32870672 
1355.272 33292670 33840036 34461044 35097348 35689760 36190456 36562452 
1358.647 36785048 36853720 36777364 36577304 36283744 35939876 35600776 
1362.022 35327028 35184540 35228272 35491136 35981376 36682388 37562684 
1365.398 38581840 39699448 40873960 42055856 43190100 44212148 45050504 
1368.773 45641832 45935824 45903640 45541992 44871504 43934276 42785512 
1372.148 41498628 40159648 38857216 37685716 36724612 36025076 35604732 
1375.523 35447160 35515980 35768260 36172164 36712968 37394468 38235316 
1378.899 39263600 40514076 42020264 43811880 45903896 48281860 50882560 
1382.274 53577188 56187720 58483744 60223940 61204208 61263684 60324780 
1385.649 58407588 55654896 52325028 48744984 45270180 42177612 39623792 
1389.024 37647156 36193592 35163736 34444868 33939840 33569040 33269312 
1392.400 32995672 32714482 32404240 32058366 31683930 31299204 30924606 
1395.775 30576246 30260240 29973186 29707398 29456308 29218476 28999406 
1399.150 28809232 28658214 28553176 28495608 28482022 28507248 28567826 
1402.525 28663170 28797584 28979572 29220498 29532092 29922352 30394014 
1405.901 30942430 31557918 32228020 32940798 33688188 34464416 35266076 
1409.276 36090424 36932968 37788392 38651588 39517848 40383516 41242892 
1412.651 42084256 42889072 43632548 44287468 44834696 45267568 45595644 
1416.026 45840848 46033548 46206800 46390588 46615588 46912532 47308428 
1419.402 47824664 48467124 49222628 50063216 50954280 51865240 52773592 
1422.777 53673832 54577376 55509908 56501052 57572428 58730232 59963896 
1426.152 61252580 62573800 63911712 65254696 66591212 67905400 69170296 
1429.527 70350136 71409784 72323320 73086240 73716912 74255032 74750464 
1432.903 75249992 75795272 76419648 77156048 78049008 79159960 80561888 
1436.278 82324136 84473184 86979504 89765024 92728112 95761824 98751520 
1439.653 101578840 104096272 106134432 107539160 108177520 107975112 
1442.546 106924928 105079864 102537264 99412832 95838328 91937216 87814304 
1445.921 83569304 79296000 75100720 71122160 67511808 64409500 61909264 
1449.297 60032336 58739224 57955860 57610712 57650404 58042880 58767788 
1452.672 59796364 61082488 62573188 64207324 65933816 67722304 69553264 
1456.047 71416192 73294992 75167136 77001224 78766328 80448712 82044568 
1459.422 83558616 85000160 86381112 87712552 88997688 90230096 91382552 
1462.798 92403928 93232384 93806576 94096456 94122016 93956616 93697488 
1466.173 93423680 93180480 92971800 92775368 92557744 92284576 91919200 
1469.548 91409664 90679496 89624528 88124320 86090880 83520864 80535008 
1472.923 77345976 74182272 71205344 68475976 65986536 63710996 61645388 
1476.299 59825072 58312084 57159776 56396836 56014020 55977796 56251076 
1479.674 56813560 57669208 58842032 60359652 62237236 64467072 67021436 
1483.049 69865264 72967112 76312128 79897040 83715288 87745152 91921656 
1486.424 96118872 100159248 103802120 106766952 108779144 109589016 
1489.317 109037936 107112048 103968912 99913920 95308872 90500136 85728736 
1492.693 81111688 76681992 72411936 68260800 64217804 60315756 56638140 
1496.068 53300792 50408852 48022688 46141572 44723064 43704616 43028220 
1499.443 42653896 42554156 42708804 43098504 43699484 44482600 45416968 
1502.818 46461572 47566396 48669332 49673940 50450312 50833912 50645660 
1506.194 49764968 48203844 46123704 43751700 41275280 38791740 36324700 
1509.569 33871020 31435650 29040604 26734626 24577342 22616344 20882714 
1512.944 19380460 18092980 16993572 16053349 15247091 14551919 13950197 
1516.319 13430054 12986898 12624212 12348237 12161329 12056732 12015615 
1519.695 12009722 12011766 12005873 11999332 12020929 12107017 12278835 
1523.070 12532223 12843296 13181607 13524968 13865179 14211923 14586834 
1526.445 15013929 15506715 16063493 16671045 17313306 17979484 18667024 
1529.820 19380738 20128942 20917552 21749500 22623884 23537282 24486434 
1533.196 25467774 26476198 27500772 28526390 29533900 30504474 31416520 
1536.571 32249004 32983694 33601148 34086612 34430772 34632968 34699076 
1539.946 34639824 34473240 34221568 33910244 33562420 33190370 32792088 
1543.321 32351832 31851158 31279440 30645432 29978088 29316408 28691734 
1546.697 28112670 27564636 27016796 26439610 25818072 25164558 24514514 
1550.072 23915014 23400184 22977972 22630620 22327318 22040858 21758696 
1553.447 21488102 21250382 21067362 20946444 20874406 20818782 20736860 
1556.822 20578650 20293790 19844898 19228772 18502306 17772568 17149792 
1560.198 16689293 16384674 16195094 16072879 15977887 15878726 15757011 
1563.573 15607613 15440824 15278492 15145555 15061093 15028506 15036429 
1566.948 15063185 15088159 15097318 15089805 15078210 15083253 15124181 
1570.323 15210235 15338214 15497134 15674902 15860820 16045718 16221268 
1573.698 16375970 16496962 16574236 16606767 16610175 16615236 16658271 
1577.074 16762191 16929728 17146930 17394346 17656362 17925786 18205434 
1580.449 18504934 18835956 19206502 19618476 20065642 20535886 21011924 
1583.824 21472748 21894964 22251456 22515304 22664480 22685356 22579450 
1587.199 22364504 22077462 21767302 21490330 21304458 21256472 21380642 
1590.575 21695228 22199494 22871820 23664590 24510062 25315384 25974544 
1593.950 26390418 26479860 26196138 25538192 24551012 23316060 21929010 
1597.325 20490660 19083194 17765112 16577264 15540745 14663871 13944449 
1600.700 13372201 12931425 12604940 12379157 12247241 12209241 12268815 
1604.076 12428900 12687015 13033262 13449877 13911261 14388173 14843562 
1607.451 15235937 15523335 15663052 15621523 15380093 14939059 14321150 
1610.826 13568655 12741297 11899440 11094288 10361101 9711547 9141056 
1614.201 8633736 8172080 7741641 7336294 6961055 6628596 6353646 6146884 
1618.059 6010397 5937735 5916977 5931588 5963164 5994775 6011270 6004685 
1621.916 5976634 5938675 5908009 5899847 5921411 5969882 6035527 6108104 
1625.774 6181769 6255984 6333473 6417365 6508538 6604709 6702551 6800111 
1629.631 6899242 7003918 7118016 7241948 7371038 7494773 7599964 7673410 
1633.489 7704843 7690610 7634932 7552692 7464569 7392237 7351290 7346539 
1637.346 7373667 7422705 7481660 7537925 7578789 7595378 7583610 7546826 
1641.203 7494065 7437873 7387822 7346876 7310077 7265263 7198118 7095282 
1645.061 6950786 6769485 6568748 6373080 6208186 6092277 6031562 6022189 
1648.918 6053502 6112405 6182441 6242774 6268186 6227648 6093857 5861257 
1652.776 5570011 5301768 5130642 5083471 5135168 5240493 5358322 5462560 
1656.633 5541619 5593538 5622505 5633783 5631098 5614348 5580516 5525376 
1660.490 5446924 5346246 5228554 5102010 4976006 4859453 4758710 4677482 
1664.348 4616161 4572294 4540552 4512528 4478312 4426493 4347536 4236974 
1668.205 4097740 3940796 3783040 3641780 3528324 3446357 3391521 3355858 
1672.063 3329313 3301334 3261606 3200150 3110069 2991281 2854847 2721458 
1675.920 2612375 2541513 2508486 2501587 2502920 2495922 2470996 2427811 
1679.778 2374669 2323366 2282961 2252984 2222277 2170159 2075531 1926172 
1683.635 1732152 1527910 1358996 1255904 1219652 1229288 1257599 1283652 
1687.492 1294752 1286975 1262417 1226031 1183170 1138419 1096629 1062183 
1691.350 1039464 1030397 1032722 1038667 1034018 1002333 929874 813838 
1695.207 668330 524397 416329 361244 353916 368971 375836 344067 255505 
1699.547 112372 -55794 -202964 -292938 -315917 -288799 -238300 -189220 
1703.404 -158285 -153482 -175044 -216145 -265157 -308666 -336908 -345185 
1707.262 -334260 -308798 -275190 -239791 -206872 -178522 -153880 -130694 
1711.119 -106645 -80342 -52812 -26208 -3048 15341 29490 41088 51327 58949 
1715.941 59479 47384 19715 -20045 -60465 -86338 -86438 -57980 -7156 54807 
1720.763 115388 165005 199280 218872 228088 232663 237138 242708 247946 
1725.102 250598 249405 244498 236973 227690 215789 199148 176043 146576 
1729.442 114128 83737 59313 39928 18091 -20907 -94620 -215947 -383059 
1733.781 -573403 -748382 -871312 -926565 -923391 -886192 -841352 -808744 
1737.639 -800277 -818202 -856498 -902725 -943559 -969214 -975826 -965446 
1741.496 -942666 -912050 -876768 -838210 -797532 -755329 -712062 -667766 
1745.354 -622010 -573866 -522937 -469719 -415434 -362302 -312474 -267673 
1749.211 -228962 -196705 -170209 -148249 -128640 -107738 -81634 -47478 -4970 
1753.551 42910 89404 125331 142035 133484 99678 47450 -10934 -63877 -104724 
1758.373 -134536 -160604 -192764 -239493 -304196 -383522 -468130 -546202 
1762.230 -607882 -648214 -668263 -672927 -668163 -659859 -652614 -650530 
1766.087 -657014 -673655 -699327 -729892 -758636 -779441 -789694 -791910 
1769.945 -793365 -802923 -827099 -865294 -908677 -941013 -947427 -921175 
1773.802 -865889 -792935 -715370 -643450 -581378 -528265 -480277 -434004 
1777.660 -388852 -347569 -314493 -293302 -284130 -282905 -283104 -278899 
1781.517 -267475 -251083 -234889 -223762 -220749 -224888 -231810 -236082 
1785.375 -233631 -223232 -206376 -185510 -162856 -139438 -116152 -94620 
1789.232 -78884 -74743 -88889 -125427 -184318 -258070 -334425 -401266 
1793.089 -449760 -478821 -493052 -500135 -506588 -516219 -530483 -548750 
1796.947 -570623 -596533 -627238 -664293 -707034 -753311 -799053 -839798 
1800.804 -871907 -893864 -905999 -909504 -905437 -894459 -877066 -854646 
1804.662 -829877 -805966 -786320 -773057 -765748 -762407 -760158 -756751 
1808.519 -751591 -745439 -739551 -734225 -727676 -716230 -696713 -667601 
1812.376 -630381 -589782 -551133 -518436 -493251 -473657 -455552 -434666 
1816.234 -408714 -377663 -344192 -311646 -282673 -258203 -237208 -218066 
1820.091 -199487 -181304 -165108 -152687 -146692 -149276 -161564 -183590 
1823.949 -213595 -247771 -279892 -303732 -314129 -309858 -294263 -274031 
1827.806 -258931 -257474 -273799 -305189 -342338 -372333 -383191 -369684 
1831.664 -333995 -284097 -229823 -178688 -134437 -96641 -61691 -25214 15904 
1836.003 62694 115156 172397 235448 306067 386514 478122 580598 690731 
1840.343 804078 915729 1021131 1116826 1201277 1274812 1340649 1405631 
1844.200 1477970 1566716 1677864 1811732 1963415 2124374 2283727 2431243 
1848.058 2560444 2668013 2754234 2821363 2870824 2902211 2913252 2900676 
1851.915 2863019 2801687 2721591 2629242 2530748 2429777 2326231 2218613 
1855.772 2104796 1984751 1860978 1737474 1617630 1503106 1392966 1284549 
1859.630 1176492 1069590 966999 873230 791862 722989 663551 608966 555217 
1863.969 501508 449961 404556 368242 341116 319496 297081 269231 234652 
1868.309 198153 168154 153338 158277 181711 217049 255273 289721 316247 
1872.649 334351 345825 352755 356536 357464 354745 348245 338297 325266 
1876.988 308786 287997 260014 222419 174717 118768 58584 -728 -55065 -103597 
1881.810 -147885 -191605 -237870 -287276 -337107 -383555 -422253 -451647 
1885.667 -473293 -491298 -510163 -533031 -560067 -588757 -615293 -635542 
1889.525 -646990 -649107 -642225 -627072 -605036 -577639 -546831 -515326 
1893.382 -486499 -461212 -439433 -418049 -393089 -361673 -323565 -281349 
1897.240 -239526 -202169 -169613 -139604 -106910 -66329 -15672 42877 104384 
1901.579 161724 210054 248311 278945 305968 333191 361609 389565 414107 
1905.919 432448 444057 449994 452349 452050 448302 439447 423858 402367 
1910.259 378588 357066 342409 336507 336971 339458 339126 333124 321519 
1914.598 306133 288892 269397 244697 210518 163746 106439 45164 -10205 
1918.938 -51354 -75936 -88458 -97900 -114595 -145003 -189352 -240784 -290223 
1923.277 -328995 -353197 -365513 -371141 -375610 -381702 -387859 -390706 
1927.135 -387693 -378921 -367698 -359421 -357700 -363328 -374418 -386138 
1930.992 -394877 -399743 -402094 -404245 -408118 -413349 -417288 -418480 
1934.850 -416626 -413812 -414507 -420896 -432283 -444232 -449859 -444298 
1938.707 -427318 -405073 -386767 -381768 -395374 -424272 -460319 -491497 
1942.564 -508971 -510262 -499374 -482858 -467501 -455453 -444332 -430727 
1946.422 -412157 -389349 -366605 -348860 -337736 -331412 -324526 -311282 
1950.279 -288634 -258832 -226809 -199222 -179052 -165174 -152389 -136292 
1954.137 -115423 -93659 -78752 -78156 -95548 -128905 -169778 -208329 -238234 
1958.476 -257905 -271415 -284197 -299958 -316414 -327274 -324890 -304792 
1962.334 -268567 -223994 -179416 -143082 -118338 -103365 -95879 -93129 
1966.191 -94620 -101113 -111912 -122313 -124798 -112343 -80872 -34855 14711 
1970.531 54674 74591 71476 52255 29457 14976 16534 34427 63124 99247 143494 
1975.835 201402 281830 388372 513748 640489 745260 808626 821440 789141 
1980.174 725246 647988 572237 503631 442200 385188 329875 278846 237370 
1984.514 210186 198750 199877 206242 210949 211844 211943 217380 234420 
1988.854 263760 299800 333754 356204 362571 356569 346554 343205 353617 
1993.193 378986 414704 455467 495802 534283 572270 611090 649382 682766 
1997.533 704503 710079 699824 679248 656384 639858 633288 634084 635777 
2001.872 630567 614242 587698 556975 527980 505488 489864 477558 464489 
2006.212 448999 432680 419480 412515 411653 412084 408635 397127 378820 
2010.552 360581 350766 355640 376897 408204 439546 462996 475103 478619 
2014.891 482003 494110 519720 558966 607141 656948 704537 748380 788543 
2019.231 826353 860780 887407 904473 911379 911512 912508 922170 943721 
2023.570 975533 1010437 1039099 1055009 1057832 1050624 1039066 1026711 
2027.428 1011101 985728 944186 883257 808792 733544 672711 640090 642612 
2031.767 677191 734938 806568 883821 962715 1042819 1120978 1192506 1250056 
2036.107 1285314 1294120 1279232 1248427 1212873 1183867 1167787 1166425 
2039.964 1178252 1199251 1226663 1258961 1294486 1330279 1362253 1384789 
2043.822 1393332 1387980 1371925 1350487 1330179 1314193 1302960 1294054 
2047.679 1285214 1275178 1265009 1255738 1245802 1230750 1203902 1158883 
2051.537 1094436 1015684 933693 862905 815099 795414 799630 817523 835847 
2055.876 844844 841923 830071 816261 806601 802916 803282 803514 800228 
2060.216 793389 786551 784361 789970 803846 823166 842952 861245 878310 
2064.555 896803 920510 950860 985064 1018242 1044181 1058596 1061552 1055972 
2068.895 1046340 1036243 1026578 1015219 999942 979684 954911 928845 904738 
2073.235 883124 862772 840728 813805 781805 747782 716152 691461 675664 
2077.574 666273 658441 647723 631397 610791 590584 575123 567061 565767 
2081.914 567028 566066 560426 549942 537269 526023 517464 509900 500081 
2086.253 483595 458386 425914 390162 355375 324337 296485 268800 238365 
2090.593 204219 168519 136434 113896 104252 107400 119133 133716 146079 
2094.933 153934 157580 159039 160597 162552 164541 166232 168353 174518 
2099.272 188507 213203 247913 289025 329543 362836 385453 397127 401272 
2103.612 402698 404722 408668 413709 419049 425218 435533 453941 483595 
2107.951 524795 573896 623864 668927 705233 733013 755981 779315 805871 
2112.291 836312 867818 896272 919614 937976 953583 970087 989448 1011566 
2116.631 1034250 1054776 1071583 1085600 1099917 1116759 1137920 1162006 
2120.488 1185661 1205829 1220881 1232311 1243775 1259260 1280163 1304788 
2124.345 1329049 1347063 1354509 1350254 1335763 1314193 1288039 1258097 
2128.203 1222642 1180213 1129848 1072712 1012762 954181 900787 854505 815099 
2132.542 781639 754155 733245 720301 715555 716385 718077 714792 702844 
2136.882 681704 656085 633388 619982 619451 630069 646893 664348 678784 
2141.222 690432 702213 717082 735601 754022 765673 764478 747550 716949 
2145.561 679613 643342 615602 598216 590120 588162 589025 591812 597054 
2149.901 604819 613512 619484 617726 604055 579005 545463 508242 471521 
2154.240 435865 398122 355839 309549 266744 242211 254544 317142 434936 
2158.580 598415 787348 980515 1158485 1310671 1435184 1532133 1602265 
2162.438 1644537 1658971 1646765 1615635 1577823 1544669 1525716 1522224 
2166.295 1527511 1530903 1521726 1495226 1453435 1404468 1356968 1318082 
2170.152 1290066 1269961 1253279 1237395 1221280 1207225 1198387 1195330 
2174.010 1196327 1198586 1198187 1194533 1188951 1184332 1181874 1181774 
2177.867 1180179 1174066 1162804 1149947 1142605 1148618 1172339 1211843 
2181.725 1260157 1305918 1339286 1356702 1359827 1355007 1350188 1349855 
2185.582 1354608 1362087 1369565 1375914 1383559 1396789 1417997 1447850 
2189.439 1482027 1514710 1540213 1555875 1563191 1566217 1570141 1577024 
2193.297 1587799 1601002 1614670 1628572 1644636 1664060 1687477 1712225 
2197.154 1732717 1742564 1737707 1717315 1684849 1646499 1608252 1573865 
2201.012 1544370 1519165 1496988 1478868 1467431 1464639 1472086 1487147 
2204.869 1504403 1518700 1525649 1525017 1520761 1519066 1524718 1539914 
2208.727 1563291 1590326 1616499 1638882 1656377 1670380 1681822 1689972 
2212.584 1693398 1690005 1679061 1663096 1647098 1636055 1634060 1641976 
2216.441 1656244 1671544 1683718 1689905 1691402 1691302 1692566 1696192 
2220.299 1701248 1704175 1701381 1691635 1675137 1654215 1632497 1612209 
2224.156 1594716 1580716 1570473 1564687 1564787 1570606 1580649 1591623 
2228.014 1598740 1597410 1586170 1566350 1542042 1519199 1502142 1492998 
2231.871 1490704 1492466 1495126 1496556 1496589 1495658 1494993 1494860 
2235.729 1494494 1493963 1493763 1495924 1502275 1514976 1532865 1553248 
2239.586 1571671 1583509 1586702 1582645 1575062 1569775 1571404 1582112 
2243.443 1601201 1626311 1653949 1681323 1707335 1731553 1753309 1772206 
2247.301 1786912 1795994 1799189 1797492 1791969 1785181 1778461 1772273 
2251.158 1767482 1764954 1766417 1774735 1792401 1819485 1853791 1889963 
2255.016 1921079 1941215 1947339 1939651 1922378 1900978 1879880 1862309 
2258.873 1848566 1837719 1828469 1820350 1813462 1808804 1807141 1808272 
2262.730 1811732 1817455 1825141 1835822 1850763 1869564 1890795 1911961 
2266.588 1929300 1940449 1945575 1946540 1947006 1950334 1957723 1968507 
2270.445 1979758 1988112 1991208 1988512 1981455 1971836 1961484 1951100 
2274.303 1940449 1929799 1920247 1913957 1914190 1923376 1942114 1968474 
2278.160 1998598 2028157 2053491 2073267 2088015 2100135 2112054 2125439 
2282.018 2141122 2158870 2178118 2198631 2220345 2242792 2265208 2286058 
2285.875 2303479 2316038 2323566 2327230 2328929 2331061 2335192 2342088 
2289.732 2351349 2362642 2375769 2391927 2412384 2438607 2471662 2510652 
2293.590 2553645 2598075 2641477 2681782 2718523 2752000 2782879 2812658 
2297.447 2842174 2871991 2902678 2934100 2965592 2996319 3024945 3050037 
2301.305 3070926 3087778 3101326 3113306 3125287 3137936 3151386 3164837 
2305.162 3177186 3188101 3198114 3208562 3221113 3237336 3257566 3281102 
2309.020 3306609 3332752 3358463 3383707 3408853 3434435 3460886 3488007 
2312.877 3515330 3542621 3569814 3597476 3626477 3657451 3691100 3727526 
2316.734 3766696 3808443 3852968 3899705 3948720 3999313 4050948 4102790 
2320.592 4154605 4206025 4256012 4303294 4344089 4374043 4388200 4383046 
2324.449 4357844 4315509 4262470 4207096 4157884 4121689 4101887 4098375 
2328.307 4108142 4127075 4150390 4174945 4198230 4219174 4237375 4252231 
2332.164 4264411 4275085 4286127 4300182 4319223 4344356 4374645 4408250 
2336.021 4442593 4475132 4504961 4532080 4557460 4582105 4606383 4629791 
2339.879 4651660 4671487 4688836 4704344 4717776 4727624 4731375 4724743 
2343.736 4703775 4666296 4613315 4549592 4483535 4425689 4386360 4373808 
2347.594 4394024 4449021 4538409 4658626 4804372 4968029 5140365 5312367 
2351.451 5475881 5625325 5758669 5877579 5985604 6086162 6182307 6275044 
2355.309 6364204 6449581 6532184 6612985 6694172 6776922 6860900 6944591 
2359.166 7026446 7104746 7179085 7250034 7317929 7382261 7441884 7494369 
2363.023 7538127 7572956 7600908 7625186 7649095 7674084 7698569 7719143 
2366.881 7730543 7728081 7709733 7675164 7626299 7565943 7496324 7418830 
2370.738 7334340 7243633 7148667 7053049 6961392 6878472 6808559 6754778 
2374.596 6718669 6700061 6698345 6712107 6740307 6781836 6835890 6902272 
2378.453 6981257 7073256 7178849 7298385 7431064 7574911 7727204 7884172 
2382.311 8042076 8198044 8349374 8494100 8630153 8755194 8866304 8960699 
2386.168 9036168 9091281 9126303 9142748 9142579 9127994 9100586 9061203 
2390.025 9010627 8949570 8878647 8799283 8712631 8619777 8521908 8419805 
2393.883 8314989 8208984 8104558 8004476 7911673 7828740 7757224 7698198 
2397.740 7652164 7619420 7600402 7595783 7605662 7629974 7668149 7718839 
2401.598 7781174 7854718 7939107 8034752 8142267 8261596 8392307 8533803 
2405.455 8685114 8845642 9015498 9194762 9384121 9584199 9795247 10017350 
2409.313 10250490 10494008 10746627 11006463 11270399 11534631 11794973 
2412.688 12047159 12287630 12513774 12723214 12913265 13081374 13224235 
2416.063 13338989 13423596 13477833 13503228 13503297 13482276 13444271 
2419.438 13392669 13330139 13258565 13179421 13094452 13004822 12911729 
2422.813 12815550 12716322 12614251 12510636 12407829 12310467 12224134 
2426.189 12154276 12105245 12079625 12077547 12097852 12139113 12200313 
2429.564 12280778 12381135 12501770 12642394 12802309 12980446 13175323 
2432.939 13386347 13612961 13854643 14111075 14380946 14663117 14957132 
2436.314 15263495 15583915 15921000 16277129 16653553 17050014 17464534 
2439.690 17894850 18339450 18798242 19273280 19767596 20284868 20827682 
2443.065 21397070 21992406 22611632 23251804 23909588 24581410 25264002 
2446.440 25953790 26648198 27345200 28043780 28742886 29441628 30138160 
2449.815 30829228 31510816 32178920 32829680 33460482 34069948 34656400 
2453.191 35217744 35750308 36248728 36706256 37115904 37471144 37765948 
2456.566 37995560 38154996 38239260 38244148 38164948 37998776 37744624 
2459.941 37402920 36976152 36467740 35882112 35223276 34496020 33705340 
2463.316 32857232 31958598 31017690 30043522 29045706 28034732 27020500 
2466.692 26013274 25023400 24060328 23133424 22250796 21418618 20641504 
2470.067 19922110 19261224 18659068 18114604 17626202 17191328 16805964 
2473.442 16464785 16160807 15886974 15636636 15403986 15185186 14977984 
2476.817 14780754 14592831 14413415 14241914 14078182 13922620 13775561 
2480.193 13637442 13507741 13384810 13266628 13150732 13035209 12919853 
2483.568 12806234 12696943 12595014 12503202 12422387 12352532 12292299 
2486.943 12240015 12193940 12152879 12116080 12083032 12053461 12027197 
2490.318 12004681 11986355 11973276 11966362 11966362 11972867 11985231 
2493.694 12002228 12022326 12044536 12068348 12093219 12119010 12145314 
2497.069 12171007 12195303 12217386 12236471 12252353 12264862 12273757 
2500.444 12278870 12280063 12277404 12272019 12265202 12259237 12255693 
2503.819 12255966 12259987 12266702 12274575 12281733 12286778 12289675 
2507.195 12290493 12290152 12289776 12289675 12289538 12288823 12285857 
2510.570 12278461 12264316 12240970 12206754 12160545 12103098 12035815 
2513.945 11961287 11882243 11800250 11716401 11630220 11541232 11449031 
2517.320 11354196 11258599 11164485 11075015 10992155 10916686 10848974 
2520.696 10788304 10734129 10686651 10646343 10614459 10591914 10579250 
2524.071 10576330 10582747 10597313 10618499 10645019 10674867 10706076 
2527.446 10736948 10766055 10792957 10818467 10844150 10871905 10902959 
2530.821 10937752 10975539 11015163 11055574 11096293 11137969 11182097 
2534.197 11229458 11280702 11335116 11391304 11447840 11504009 11560151 
2537.572 11617628 11678449 11743804 11814312 11889598 11967997 12048317 
2540.947 12129130 12209889 12290595 12371350 12452222 12533076 12614013 
2544.322 12694486 12774328 12853398 12930810 13005641 13076627 13142638 
2547.698 13203570 13259625 13312373 13363590 13415189 13467785 13521207 
2551.073 13574774 13626877 13676592 13723612 13767865 13809696 13849135 
2554.448 13886013 13919404 13948999 13974319 13995706 14013706 14028660 
2557.823 14040535 14048544 14051556 14047620 14036018 14015930 13987391 
2561.198 13950813 13906711 13855054 13795980 13729870 13657205 13579287 
2564.574 13498273 13416316 13336050 13259454 13188131 13123001 13064778 
2567.949 13014074 12970990 12935589 12908009 12887427 12874013 12867358 
2571.324 12867664 12875208 12889918 12911080 12937911 12968805 13001784 
2574.699 13035892 13070446 13105551 13142160 13181061 13223040 13268028 
2578.075 13315857 13366085 13418367 13472945 13529993 13590090 13653478 
2581.450 13720021 13789721 13862237 13937401 14015280 14096356 14180255 
2584.825 14266978 14355876 14446162 14537015 14627544 14717304 14805780 
2588.200 14892799 14977846 15060715 15141335 15219740 15296202 15371270 
2591.576 15445219 15518047 15590062 15660854 15730727 15799962 15869068 
2594.951 15938496 16008312 16078174 16147496 16216006 16283700 16351955 
2598.326 16422354 16497480 16579261 16668668 16765876 16869822 16979686 
2601.701 17094404 17213802 17337928 17467258 17601600 17740536 17883108 
2605.077 18028250 18175962 18326628 18481146 18640564 18805196 18973802 
2608.452 19144446 19313840 19479040 19637124 19786424 19926132 20055928 
2611.827 20175590 20284800 20382612 20467770 20539290 20595884 20637334 
2615.202 20663638 20675662 20674930 20663080 20642058 20613742 20579486 
2618.578 20540228 20496772 20449430 20399002 20346638 20294244 20243764 
2621.953 20197180 20155944 20120474 20090384 20064846 20042914 20024038 
2625.328 20008632 19997670 19992602 19994962 20005544 20025218 20053914 
2628.703 20091392 20137514 20191696 20253208 20321360 20395286 20473916 
2632.079 20556764 20643728 20734496 20829978 20930138 21035190 21144582 
2635.454 21257828 21373924 21492628 21613176 21735462 21859420 21984216 
2638.829 22109570 22234578 22358610 22481246 22602276 22721770 22840004 
2642.204 22956908 23072550 23186616 23299104 23410150 23520142 23629216 
2645.580 23737864 23846400 23955030 24064250 24174864 24287782 24404060 
2648.955 24524856 24650560 24781144 24916186 25054920 25196966 25342324 
2652.330 25491280 25644890 25803972 25968950 26140150 26317014 26499196 
2655.705 26686212 26877716 27073536 27273818 27478286 27687162 27900164 
2659.081 28117302 28338368 28563048 28790962 29021228 29252678 29484180 
2662.456 29714494 29942338 30167744 30390390 30610872 30830010 31048654 
2665.831 31267584 31487518 31709202 31933028 32159258 32388068 32619282 
2669.206 32852910 33088948 33327408 33568864 33813564 34061704 34312604 
2672.582 34565260 34817956 35068824 35316460 35559816 35798592 36032640 
2675.957 36261732 36485216 36702472 36912404 37114500 37309392 37498812 
2679.332 37685676 37873888 38067060 38269004 38482736 38710704 38954912 
2682.707 39216780 39496948 39795812 40113276 40448644 40801232 41170716 
2686.083 41556744 41959536 42379028 42815020 43266308 43730816 44206132 
2689.458 44689676 45179832 45675656 46177576 46686680 47204320 47731828 
2692.833 48270160 48819388 49379784 49950828 50532004 51122644 51722040 
2696.208 52329176 52943188 53563096 54188276 54818236 55452196 56089756 
2699.583 56730144 57373104 58018116 58665108 59313868 59964012 60614216 
2702.959 61262272 61905064 62538632 63158332 63759960 64339252 64892308 
2706.334 65414868 65902768 66351300 66756092 67113384 67419960 67674752 
2709.709 67876968 68027224 68126512 68176136 68177144 68130736 68038032 
2713.084 67900088 67717816 67491448 67220792 66905728 66545716 66140964 
2716.460 65692572 65202056 64672180 64105540 63505308 62874468 62216436 
2719.835 61535348 60835576 60122664 59402640 58681608 57965780 57261680 
2723.210 56574572 55909880 55272052 54664700 54090844 53552224 53050100 
2726.585 52585172 52157764 51768400 51417616 51106208 50834356 50601988 
2729.961 50408332 50251732 50130632 50043364 49988896 49966516 49975996 
2733.336 50017004 50088836 50189992 50318176 50470480 50643536 50834320 
2736.711 51039232 51255544 51479796 51708752 51939696 52169456 52395528 
2740.086 52615316 52827024 53028352 53217600 53393368 53554660 53701808 
2743.462 53836096 53960036 54076692 54189368 54300528 54411984 54524704 
2746.837 54638884 54754596 54872068 54991304 55112944 55237212 55363884 
2750.212 55492932 55624308 55758520 55896540 56040408 56192920 56357072 
2753.587 56536152 56733240 56951084 57191940 57457472 57748604 58065492 
2756.963 58407100 58771504 59156228 59557520 59971164 60392668 60816596 
2760.338 61236708 61646880 62040120 62409732 62749528 63054116 63318960 
2763.713 63540480 63716024 63843512 63922352 63952408 63935252 63873252 
2767.088 63770324 63630620 63458560 63259164 63037524 62798760 62548576 
2770.464 62292536 62036144 61784340 61540464 61307144 61085920 60877320 
2773.839 60681692 60499560 60331060 60176248 60034616 59904596 59783588 
2777.214 59667668 59552084 59431096 59298520 59147912 58972836 58767900 
2780.589 58528976 58253916 57943328 57600080 57229208 56837012 56430076 
2783.965 56015112 55597572 55182464 54773656 54374468 53987352 53613700 
2787.340 53254232 52908720 52575824 52254468 51943132 51641276 51348800 
2790.715 51066328 50795136 50536176 50290348 50057824 49837728 49628364 
2794.090 49427936 49233316 49042160 48851940 48660732 48467232 48270752 
2797.466 48070132 47864652 47652800 47432256 47200516 46955280 46694612 
2800.841 46417872 46125436 45818532 45498936 45168144 44826944 44476104 
2804.216 44116004 43746904 43370132 42987392 42601116 42214232 41829744 
2807.591 41450692 41079692 40719996 40374456 40046160 39738044 39452604 
2810.967 39191504 38955672 38744392 38557072 38391912 38247220 38122004 
2814.342 38015340 37926888 37856568 37804948 37772344 37759296 37766740 
2817.717 37795224 37845108 37917200 38011400 38128080 38267592 38430028 
2821.092 38615772 38824928 39056916 39310788 39584952 39877420 40185924 
2824.468 40508180 40842072 41185180 41534684 41887028 42237644 42581196 
2827.843 42911896 43223772 43511668 43770980 43998364 44191716 44349844 
2831.218 44472392 44560060 44614548 44638744 44636064 44611612 44571584 
2834.593 44521880 44469788 44421156 44381444 44354764 44343316 44349004 
2837.969 44372744 44415832 44480728 44571804 44694452 44856112 45065208 
2841.344 45330232 45660196 46064860 46553548 47137616 47829476 48641680 
2844.719 49586648 50673400 51903924 53268952 54744712 56291320 57848300 
2848.094 59341820 60689808 61803932 62607744 63041700 63070016 62687016 
2851.469 61914848 60801808 59409820 57813024 56089380 54308828 52537528 
2854.845 50831192 49230536 47765924 46454196 45300296 44299284 43438344 
2858.220 42701308 42068560 41521268 41042652 40617532 40233320 39880288 
2861.595 39550184 39237488 38938896 38653292 38381448 38125368 37887880 
2864.970 37671728 37479600 37314088 37177480 37072492 37001840 36967240 
2868.346 36970128 37010356 37085772 37192136 37323368 37472336 37630676 
2871.721 37790196 37943452 38084276 38209376 38317752 38412256 38497944 
2875.096 38581840 38671800 38775076 38897252 39042268 39212028 39407032 
2878.471 39626988 39871244 40138604 40427292 40735540 41060824 41400280 
2881.847 41751564 42112584 42481288 42856268 43234976 43614452 43991028 
2885.222 44360088 44717260 45059180 45383676 45690236 45980320 46256664 
2888.597 46522824 46783024 47041896 47304104 47574384 47857884 48159604 
2891.972 48485792 48843300 49239960 49685200 50189620 50763144 51415376 
2895.348 52152532 52975120 53876268 54839964 55839904 56838708 57793792 
2898.723 58657904 59384520 59937420 60292456 60442816 60399480 60189988 
2902.098 59853672 59433336 58973900 58515552 58089960 57723472 57434856 
2905.473 57237752 57142992 57158336 57290000 57542620 57919816 58424988 
2908.849 59061504 59833172 60743652 61795760 62989368 64319080 65772176 
2912.224 67328296 68956224 70615104 72258864 73833336 75283648 76560568 
2915.599 77621240 78436672 78994080 79296432 79361264 79214432 78888336 
2918.974 78413616 77816048 77115368 76322712 75442752 74475752 73421120 
2922.350 72279568 71056984 69763936 68417672 67039684 65652720 64280084 
2925.725 62942332 61654936 60429792 59273948 58190724 57181164 56244588 
2929.100 55379728 54584476 53856388 53192956 52591044 52047112 51557472 
2932.475 51117688 50723668 50371008 50055480 49773812 49522960 49300532 
2935.851 49104336 48931744 48779456 48643276 48517992 48398408 48279820 
2939.226 48159192 48035344 47909680 47785420 47666816 47557856 47461860 
2942.601 47379816 47310012 47247504 47184968 47112464 47018668 46893448 
2945.976 46728816 46520872 46271408 45988128 45683644 45372680 45071788 
2949.352 44795500 44554072 44353960 44196484 44079040 43995248 43937024 
2952.727 43894720 43857844 43816244 43760864 43683732 43578916 43442704 
2956.102 43273552 43071392 42837728 42574876 42285596 41973292 41642000 
2959.477 41295540 40938584 40575808 40211368 39849488 39493864 39147556 
2962.853 38813552 38494652 38193092 37911200 37651096 37414332 37202496 
2966.228 37017104 36858768 36727856 36623628 36543856 36484856 36441936 
2969.603 36409616 36382160 36355284 36325492 36290944 36251360 36207488 
2972.978 36160892 36113608 36067956 36025980 35989116 35956828 35925840 
2976.354 35889992 35838784 35759336 35637496 35459204 35214184 34896728 
2979.729 34507284 34051956 33542302 32993990 32423020 31846914 31281400 
2983.104 30738920 30229762 29760764 29335516 28955308 28619954 28329136 
2986.479 28082872 27882606 27730072 27626564 27570462 27555420 27567248 
2989.854 27585678 27584266 27533320 27406532 27184494 26858682 26433834 
2993.230 25927972 25368668 24786510 24212698 23672218 23180884 22745652 
2996.605 22365412 22034096 21743056 21483856 21250070 21037172 20841622 
2999.980 20661240 20493368 20335388 20184232 20037258 19892382 19748628 
3003.355 19606446 19466530 19330712 19200926 19078348 18964042 18858346 
3006.731 18760528 18669550 18584192 18503136 18425970 18352688 18283668 
3010.106 18219740 18161242 18108318 18060614 18017544 17978172 17942258 
3013.481 17910040 17881590 17857732 17839020 17825764 17817996 17815994 
3016.856 17819446 17828110 17841678 17859148 17878966 17899372 17918258 
3020.232 17934144 17945884 17953170 17955242 17952064 17942120 17923610 
3023.607 17894640 17853900 17801738 17740122 17673512 17606948 17545808 
3026.982 17494268 17454532 17426594 17408726 17397658 17389862 17381930 
3030.357 17370860 17354548 17331616 17301512 17264518 17221354 17173230 
3033.733 17121836 17068832 17015730 16964078 16915570 16871476 16833518 
3037.108 16802726 16780134 16765807 16759470 16760333 16767288 16779446 
3040.483 16796150 16817054 16842060 16870960 16903236 16938066 16974554 
3043.858 17011388 17047740 17082824 17115806 17146688 17175504 17202392 
3047.234 17228214 17253934 17280446 17308618 17338410 17369136 17399346 
3050.609 17427112 17450634 17468606 17480126 17484990 17483334 17475296 
3053.984 17461224 17441734 17417936 17391380 17364272 17338686 17316238 
3057.359 17297410 17282034 17268860 17256450 17244314 17232144 17220526 
3060.735 17210736 17203254 17198498 17196568 17197152 17200290 17206564 
3064.110 17216804 17231626 17251244 17274688 17300100 17325514 17349100 
3067.485 17369756 17387724 17403934 17419730 17436354 17454498 17474642 
3070.860 17497062 17522108 17550432 17582932 17620336 17662608 17709164 
3074.236 17758830 17810230 17862084 17913806 17965258 18016680 18068456 
3077.611 18120720 18173302 18225786 18277792 18328804 18378370 18426316 
3080.986 18472504 18516760 18559188 18599892 18638904 18676398 18712478 
3084.361 18746656 18778866 18808552 18836198 18862464 18888938 18917176 
3087.737 18949192 18985710 19027006 19072254 19120208 19169654 19219628 
3091.112 19269676 19319904 19370552 19421622 19472734 19523988 19574798 
3094.487 19625650 19677340 19731014 19787848 19848538 19913056 19980426 
3097.862 20049402 20118148 20185378 20250186 20312194 20372090 20430780 
3101.238 20489790 20549954 20612178 20676286 20741344 20806270 20869468 
3104.613 20930034 20988034 21044232 21100440 21158948 21221224 21287962 
3107.988 21358992 21432610 21506798 21579884 21650264 21717452 21781792 
3111.363 21843846 21904788 21966022 22028414 22093148 22161000 22232032 
3114.739 22305518 22380414 22454762 22526610 22595016 22659664 22721630 
3118.114 22782698 22845034 22910102 22979056 23051482 23126678 23203394 
3121.489 23280994 23358644 23435994 23512692 23588250 23661650 23732544 
3124.864 23800232 23865268 23928492 23991376 24055740 24123162 24194166 
3128.240 24268966 24346864 24426774 24507398 24587722 24666728 24744136 
3131.615 24820048 24894746 24969492 25044882 25121830 25200232 25280018 
3134.990 25360344 25440194 25518968 25596808 25673890 25751126 25828904 
3138.365 25907046 25984780 26061120 26134942 26205852 26274522 26342184 
3141.740 26411088 26483030 26559248 26639776 26723774 26809972 26896716 
3145.116 26982842 27067788 27151408 27234270 27316830 27400074 27484852 
3148.491 27571768 27661418 27753982 27849112 27945746 28042790 28138618 
3151.866 28232134 28322558 28410170 28495572 28580246 28665400 28752162 
3155.241 28841204 28932498 29025584 29120178 29215394 29310984 29406988 
3158.617 29503330 29600190 29697996 29796602 29895942 29996086 30096716 
3161.992 30198042 30300030 30403252 30507922 30614322 30722562 30832252 
3165.367 30943214 31054490 31165758 31276166 31384964 31491224 31593624 
3168.742 31690914 31781920 31866134 31943444 32014560 32080766 32143310 
3172.118 32203220 32260854 32315854 32367290 32414128 32455508 32491036 
3175.493 32520820 32545496 32566100 32583814 32600030 32616354 32634322 
3178.868 32655682 32681796 32712982 32749176 32789122 32830968 32872532 
3182.243 32911774 32947090 32978260 33005464 33030204 33053622 33077720 
3185.619 33103466 33131540 33162188 33194732 33228424 33262550 33296786 
3188.994 33331238 33366442 33402868 33441518 33482134 33524156 33566500 
3192.369 33607988 33647548 33684856 33719628 33752252 33783232 33813132 
3195.744 33842044 33870088 33898068 33926152 33955424 33986740 34020280 
3199.120 34055612 34091736 34127364 34161020 34192316 34221316 34248744 
3202.495 34275776 34303064 34330888 34359292 34387732 34415924 34444112 
3205.870 34472236 34500180 34527660 34553492 34576776 34597012 34614272 
3209.245 34630168 34646100 34664404 34685508 34709232 34733708 34756536 
3212.621 34775812 34790856 34802052 34811604 34821796 34834864 34851416 
3215.996 34871020 34892312 34913604 34933604 34951776 34968404 34984276 
3219.371 35000152 35016924 35035240 35055320 35077520 35102124 35129140 
3222.746 35158492 35189824 35222664 35256156 35289864 35323288 35356140 
3226.122 35388420 35419804 35450360 35480132 35509148 35537448 35565568 
3229.497 35593692 35621960 35650516 35679584 35709404 35740412 35773332 
3232.872 35808200 35845116 35883480 35921948 35959528 35995556 36029684 
3236.247 36062916 36096328 36131112 36167732 36206268 36245632 36285256 
3239.623 36324376 36363356 36402736 36443560 36486188 36529980 36573736 
3242.998 36615552 36653692 36687728 36718016 36745596 36772392 36799656 
3246.373 36828360 36858912 36891376 36926004 36963020 37002704 37044848 
3249.748 37088876 37132872 37175208 37214192 37249028 37280004 37308852 
3253.124 37337592 37367924 37400968 37436148 37472408 37507480 37539596 
3256.499 37567308 37590464 37609324 37625008 37638520 37651128 37663452 
3259.874 37675848 37688424 37700568 37711660 37720912 37727744 37731864 
3263.249 37733164 37731864 37728396 37722828 37715492 37706456 37695868 
3266.625 37684232 37672308 37660744 37650264 37640976 37632484 37623704 
3270.000 37613192 37599712 37582516 37561272 37536708 37509940 37482200 
3273.375 37454564 37427876 37402592 37378724 37356120 37334016 37311668 
3276.750 37288308 37263360 37236500 37208492 37180152 37152720 37127204 
3280.125 37104216 37083392 37064156 37045320 37026268 37006816 36987408 
3283.501 36969260 36953532 36940976 36931704 36924780 36918788 36911864 
3286.876 36902596 36889896 36873412 36854044 36832760 36811448 36792188 
3290.251 36776608 36765648 36760060 36759444 36763196 36770336 36780144 
3293.626 36792012 36805932 36821872 36839904 36860032 36882140 36905768 
3297.002 36930948 36957352 36985424 37015224 37046764 37079744 37113924 
3300.377 37148428 37183184 37218344 37254480 37292316 37332828 37376304 
3303.752 37423252 37473528 37527024 37583672 37643724 37707216 37773648 
3307.127 37842324 37911960 37981168 38048976 38114988 38180068 38245592 
3310.503 38312940 38383296 38457000 38533896 38613128 38693784 38775036 
3313.878 38856524 38938024 39019648 39101472 39183344 39265560 39348152 
3317.253 39431272 39515164 39599764 39684344 39768180 39849960 39928996 
3320.628 40004848 40077772 40148528 40217764 40286216 40353988 40421076 
3324.004 40487268 40552560 40616916 40680768 40744056 40806876 40868828 
3327.379 40929260 40987736 41043672 41096992 41147624 41195416 41240120 
3330.754 41281256 41318644 41351880 41381180 41406620 41428128 41444748 
3334.129 41455172 41457872 41451128 41434760 41409904 41378664 41344336 
3337.505 41309388 41275792 41243800 41212320 41179168 41142668 41100600 
3340.880 41051792 40996296 40933632 40863368 40785800 40700312 40606908 
3344.255 40505452 40396056 40279020 40154960 40024504 39888496 39748648 
3347.630 39606768 39464616 39323848 39185156 39048144 38911424 38773120 
3351.006 38631164 38484764 38333784 38179272 38022900 37866512 37711732 
3354.381 37559900 37411624 37267584 37128428 36994552 36865984 36742860 
3357.756 36624452 36509944 36398736 36290224 36184188 36080952 35980620 
3361.131 35883296 35788696 35696200 35604732 35513644 35422608 35331736 
3364.507 35241244 35152312 35065772 34982372 34903336 34829120 34760308 
3367.882 34696740 34637956 34582480 34529168 34476504 34423096 34368040 
3371.257 34310772 34250788 34187836 34121520 34051564 33977888 33900216 
3374.632 33818292 33732052 33640892 33543806 33439654 33327446 33206750 
3378.008 33077720 32941800 32799844 32652750 32501000 32343124 32177738 
3381.383 32003004 31817820 31621848 31415916 31201644 30980540 30754426 
3384.758 30524096 30290476 30054104 29815518 29575220 29333636 29090734 
3388.133 28845986 28598862 28348484 28094926 27838584 27580594 27322862 
3391.509 27067082 26814448 26566186 26322682 26084130 25850248 25621024 
3394.884 25395436 25172634 24951558 24731086 24510622 24290830 24072900 
3398.259 23858302 23648180 23442848 23241248 23041592 22841610 22639836 
3401.634 22435886 22230324 22024788 21820710 21618816 21419174 21220946 
3405.010 21023260 20825806 20629030 20434148 20241960 20053358 19868136 
3408.385 19685210 19503542 19322120 19141156 18961444 18784470 18611374 
3411.760 18442564 18277896 18116332 17956416 17797214 17638486 17480574 
3415.135 17324340 17170784 17020414 16873750 16730681 16590897 16454322 
3418.510 16320612 16189419 16060811 15934508 15810957 15690189 15572753 
3421.886 15458849 15348409 15240604 15134336 15028163 14921295 14813391 
3425.261 14704931 14597286 14491209 14387556 14286016 14185699 14085233 
3428.636 13983935 13881532 13778571 13676353 13575800 13477389 13381153 
3432.011 13286271 13191991 13098311 13005471 12914494 12826095 12740922 
3435.387 12658324 12577891 12498462 12419217 12340533 12262919 12187295 
3438.762 12114274 12043548 11973412 11902743 11829633 11752928 11672867 
3442.137 11590539 11507411 11424980 11343890 11264244 11185259 11105845 
3445.512 11025495 10944344 10862971 10782393 10704276 10629365 10558065 
3448.888 10490308 10425106 10361407 10298023 10233969 10168128 10100125 
3452.263 10029930 9957135 9882658 9806973 9730523 9654356 9578880 9504874 
3456.120 9432540 9362182 9293797 9226779 9161123 9096391 9032041 8967835 
3459.978 8903301 8838202 8772369 8705802 8638468 8570773 8503323 8436933 
3463.835 8372208 8309789 8249573 8191224 8133928 8076911 8019327 7960974 
3467.693 7902124 7843281 7785087 7728047 7672162 7617161 7562335 7506808 
3471.550 7450109 7391731 7331677 7270553 7209236 7148937 7091476 7038064 
3475.407 6990113 6948160 6911563 6878808 6847671 6815324 6779615 6739129 
3479.265 6693331 6642726 6589134 6534336 6480522 6429740 6383504 6343055 
3483.122 6309435 6282238 6260522 6242908 6226505 6208691 6187819 6162478 
3486.980 6133375 6102291 6071881 6044262 6021013 6002267 5987149 5974014 
3490.837 5961081 5947308 5932461 5916742 5900552 5884834 5869854 5856119 
3494.695 5844163 5834659 5828715 5827271 5830965 5839797 5852962 5869183 
3498.552 5886882 5904852 5922855 5940825 5959435 5979859 6003174 6030185 
3502.409 6061566 6097855 6139659 6187314 6241429 6301971 6368474 6439829 
3506.267 6514357 6590244 6665976 6740442 6813406 6886012 6959742 7036716 
3510.124 7118656 7206540 7300373 7398607 7499796 7602088 7704573 7807081 
3513.982 7910255 8015175 8122146 8230899 8339206 8444467 8542893 8631607 
3517.839 8708845 8774161 8828531 8874014 8912027 8944023 8969865 8989180 
3521.697 9000884 9003692 8997400 8981434 8955658 8919671 8872898 8814634 
3525.554 8743699 8659661 8562932 8454907 8337755 8213813 8085249 7953314 
3529.411 7817776 7678064 7533306 7383003 7227596 7068541 6907221 6745018 
3533.269 6582675 6419786 6255782 6089993 5922485 5754472 5587497 5423405 
3537.126 5263466 5108045 4956735 4808794 4663683 4521568 4383214 4249755 
3540.984 4121990 4000216 3884192 3772979 3664835 3558155 3451033 3341601 
3544.841 3228256 3110203 2987344 2861585 2735995 2614409 2500587 2396558 
3548.698 2302513 2215982 2133797 2051993 1967742 1880578 1791736 1703876 
3552.556 1620191 1542873 1472551 1408357 1348792 1291694 1236465 1182439 
3556.413 1129947 1079023 1029501 980382 930704 879604 826486 771714 716650 
3560.753 662655 611720 565469 524530 488471 455765 422830 385652 339060 
3565.093 278945 202927 112140 11431 -90645 -183689 -260090 -314593 -347039 
3569.432 -361275 -363129 -358991 -354588 -354687 -361673 -377034 -400935 
3573.290 -432448 -470314 -512612 -557222 -602687 -647387 -690593 -732108 
3577.147 -772164 -810927 -848495 -884605 -918563 -950469 -979959 -1007199 
3581.004 -1032718 -1056418 -1078167 -1097568 -1114192 -1128139 -1140631 
3584.380 -1154114 -1172090 -1198790 -1237977 -1290936 -1356474 -1429036 
3587.755 -1500926 -1562306 -1606577 -1629882 -1632622 -1619451 -1597069 
3591.130 -1573134 -1554514 -1546524 -1551675 -1570097 -1599182 -1634933 
3594.505 -1672991 -1709561 -1741639 -1767677 -1786915 -1799223 -1804965 
3597.881 -1805063 -1800708 -1794009 -1787509 -1783351 -1782988 -1786684 
3601.256 -1793977 -1803183 -1812587 -1820572 -1826808 -1830833 -1833242 
3604.631 -1834528 -1836145 -1839709 -1847627 -1862738 -1887085 -1921196 
3608.006 -1963814 -2010551 -2055897 -2095007 -2125310 -2147565 -2164875 
3611.382 -2182117 -2203348 -2230511 -2261826 -2292974 -2318814 -2335094 
3614.757 -2339741 -2334831 -2324384 -2314101 -2309717 -2315617 -2334534 
3618.132 -2366105 -2407428 -2452700 -2495562 -2529658 -2550806 -2558119 
3621.507 -2553013 -2539376 -2521324 -2502283 -2483439 -2464396 -2443310 
3624.883 -2418400 -2390589 -2364359 -2346728 -2348936 -2380967 -2447955 
3628.258 -2545404 -2657387 -2761011 -2834755 -2868396 -2864446 -2834623 
3631.633 -2793210 -2752517 -2721534 -2703226 -2696113 -2695817 -2697365 
3635.008 -2697299 -2694236 -2689857 -2686399 -2685773 -2689396 -2696278 
3638.384 -2705136 -2714191 -2722357 -2729568 -2736252 -2742705 -2748204 
3641.759 -2751167 -2749027 -2739281 -2720776 -2694368 -2662788 -2630777 
3645.134 -2603968 -2587335 -2585095 -2599225 -2629756 -2674939 -2732301 
3648.509 -2798346 -2869450 -2939687 -3001949 -3047290 -3067953 -3059629 
3651.885 -3023172 -2965027 -2894465 -2823925 -2764798 -2726538 -2714751 
3655.260 -2729732 -2765324 -2810131 -2851741 -2879818 -2889034 -2879983 
3658.635 -2856942 -2825571 -2791663 -2759299 -2731280 -2708988 -2692063 
3662.010 -2679286 -2669769 -2662491 -2656136 -2649648 -2641283 -2628143 
3665.385 -2606965 -2574325 -2528308 -2469931 -2402913 -2332722 -2264694 
3668.761 -2198930 -2127321 -2031625 -1886854 -1671341 -1372593 -991629 
3672.136 -539550 -34325 502105 1045044 1556706 1986848 2279230 2382165 
3675.993 2273834 1969706 1513546 956970 347284 -273534 -870353 -1410707 
3679.851 -1866400 -2222171 -2476421 -2643325 -2745109 -2805852 -2844532 
3683.226 -2871392 -2889495 -2897888 -2896111 -2887290 -2878436 -2878732 
3686.601 -2897164 -2938436 -3002146 -3081179 -3164407 -3240351 -3300828 
3689.977 -3342094 -3364649 -3370699 -3362907 -3343969 -3317006 -3285044 
3693.352 -3251796 -3220651 -3193122 -3170295 -3151019 -3133387 -3115393 
3696.727 -3095621 -3074039 -3052127 -3032484 -3018467 -3013367 -3019981 
3700.102 -3039723 -3071506 -3112169 -3155855 -3195490 -3224927 -3240351 
3703.478 -3240450 -3227821 -3205752 -3178781 -3150427 -3122598 -3096444 
3706.853 -3072295 -3050383 -3031629 -3017743 -3010998 -3013531 -3027187 
3710.228 -3052588 -3088745 -3133289 -3181774 -3228281 -3266562 -3290897 
3713.603 -3297276 -3285109 -3256368 -3215619 -3168913 -3122696 -3081935 
3716.979 -3050449 -3029194 -3018006 -3014946 -3018336 -3027187 -3041072 
3720.354 -3059431 -3080521 -3101181 -3117400 -3125624 -3124045 -3113715 
3723.729 -3098549 -3084469 -3076902 -3079435 -3091904 -3111248 -3130690 
3727.104 -3143026 -3143026 -3128091 -3099799 -3062985 -3024785 -2992899 
3730.479 -2973714 -2971148 -2984771 -3010998 -3043605 -3077165 -3110425 
3733.855 -3145690 -3188123 -3241930 -3306418 -3374447 -3434149 -3473036 
3737.230 -3483751 -3466462 -3427147 -3374184 -3315428 -3255611 -3195425 
3740.605 -3134835 -3074960 -3020705 -2982567 -2975689 -3014190 -3104570 
3743.980 -3236142 -3379116 -3493513 -3550471 -3543635 -3487301 -3405745 
3747.356 -3323122 -3259623 -3226999 -3227821 -3256532 -3302735 -3355016 
3750.731 -3404759 -3448678 -3484310 -3509191 -3519282 -3510309 -3480924 
3754.106 -3433918 -3375927 -3315230 -3259722 -3215257 -3184472 -3167433 
3757.481 -3162401 -3167696 -3182235 -3204700 -3232524 -3260709 -3281262 
3760.857 -3286951 -3273337 -3241470 -3198056 -3154078 -3120492 -3105293 
3764.232 -3110820 -3131973 -3159572 -3182038 -3191774 -3187531 -3174604 
3767.607 -3161710 -3157302 -3166973 -3191116 -3224631 -3258966 -3285833 
3770.982 -3299710 -3298822 -3285471 -3263668 -3237885 -3211508 -3186281 
3774.358 -3162532 -3139835 -3117531 -3095720 -3076178 -3061965 -3056799 
3777.733 -3064169 -3085225 -3117630 -3155394 -3190030 -3213580 -3221375 
3781.108 -3213843 -3195128 -3172959 -3154539 -3144539 -3144802 -3153026 
3784.483 -3164966 -3175920 -3182991 -3185162 -3184077 -3181873 -3179702 
3787.859 -3178255 -3176775 -3174045 -3169802 -3163716 -3156480 -3148190 
3791.234 -3139045 -3128256 -3115360 -3101083 -3087758 -3079566 -3081179 
3794.609 -3095819 -3123683 -3160427 -3197431 -3223743 -3231110 -3215685 
3797.984 -3181610 -3138486 -3100819 -3083383 -3098253 -3149473 -3230025 
3801.360 -3321642 -3398644 -3438849 -3433097 -3385592 -3311515 -3230321 
3804.735 -3162137 -3122334 -3118584 -3148519 -3199865 -3253967 -3291686 
3808.110 -3302538 -3286096 -3249494 -3203253 -3155953 -3113057 -3074993 
3811.485 -3039789 -3004614 -2969239 -2936659 -2913620 -2907992 -2927279 
3814.861 -2973320 -3039854 -3112333 -3171940 -3204173 -3202989 -3174143 
3818.236 -3131282 -3092957 -3076869 -3096148 -3155559 -3247225 -3350248 
3821.611 -3436745 -3484770 -3484376 -3440493 -3368299 -3286589 -3212593 
3824.986 -3157927 -3127269 -3118123 -3122499 -3129275 -3129506 -3119012 
3828.362 -3098747 -3073809 -3050449 -3034491 -3028634 -3032747 -3043901 
3831.737 -3057523 -3069203 -3075454 -3074862 -3067196 -3054693 -3040216 
3835.112 -3028634 -3025180 -3034590 -3059727 -3100754 -3153453 -3210127 
3838.487 -3261991 -3301354 -3324141 -3330159 -3322465 -3305695 -3284945 
3841.863 -3263997 -3245581 -3231406 -3220618 -3211738 -3202101 -3188813 
3845.238 -3169374 -3143026 -3110129 -3072493 -3032682 -2992867 -2954068 
3848.613 -2916648 -2880016 -2844598 -2813127 -2792288 -2791959 -2824386 
3851.988 -2900126 -3021593 -3177597 -3340582 -3477375 -3563091 -3589643 
3855.364 -3565391 -3506923 -3430894 -3349427 -3270870 -3199536 -3137203 
3858.739 -3085028 -3043342 -3012116 -2990728 -2977532 -2970522 -2967857 
3862.114 -2968877 -2974965 -2988128 -3010471 -3040578 -3073118 -3099569 
3865.489 -3110985 -3102102 -3074270 -3035873 -3000863 -2983455 -2995203 
3868.865 -3039854 -3111149 -3191477 -3259525 -3299808 -3307306 -3288858 
3872.240 -3256959 -3225650 -3204798 -3197234 -3199339 -3202233 -3196674 
3875.615 -3176841 -3141710 -3096279 -3048837 -3008234 -2982764 -2977729 
3878.990 -2994545 -3029654 -3074960 -3119538 -3152829 -3167631 -3161874 
3882.365 -3139572 -3109044 -3080455 -3064103 -3066834 -3089700 -3126677 
3885.741 -3165789 -3193319 -3198812 -3179669 -3140328 -3091246 -3044428 
3889.116 -3010076 -2995795 -3003660 -3030181 -3066406 -3102563 -3129177 
3892.491 -3140690 -3136480 -3118650 -3091213 -3057687 -3021428 -2985133 
3895.866 -2951205 -2922210 -2901212 -2890844 -2892786 -2906676 -2930471 
3899.242 -2959531 -2988589 -3013465 -3032188 -3045349 -3056503 -3069236 
3902.617 -3086410 -3108616 -3133289 -3155822 -3171019 -3174834 -3165789 
3905.992 -3144967 -3115985 -3082100 -3047192 -3013005 -2980559 -2949823 
3909.367 -2920499 -2892589 -2866849 -2844499 -2826427 -2813522 -2805588 
3912.743 -2802066 -2801802 -2804370 -2809604 -2818361 -2831332 -2849009 
3916.118 -2870569 -2893905 -2916385 -2935013 -2947651 -2953673 -2953377 
3919.493 -2947914 -2938962 -2927378 -2914575 -2901871 -2890779 -2883110 
3922.868 -2880608 -2883998 -2892786 -2904504 -2915760 -2922309 -2921388 
3926.244 -2912074 -2896012 -2876230 -2856152 -2839199 -2826986 -2820073 
3929.619 -2817703 -2819086 -2823102 -2829521 -2837685 -2847001 -2856415 
3932.994 -2864019 -2868100 -2867178 -2861978 -2853452 -2844038 -2836105 
3936.369 -2831101 -2828961 -2828698 -2827974 -2825044 -2818921 -2810691 
3939.745 -2802724 -2798313 -2800782 -2811942 -2831595 -2856876 -2882945 
3943.120 -2904931 -2917735 -2918854 -2908815 -2890252 -2867442 -2845552 
3946.495 -2829093 -2820731 -2821094 -2828501 -2840121 -2852662 -2863097 
3949.870 -2869548 -2871194 -2868265 -2861056 -2850490 -2837323 -2822378 
3953.246 -2807037 -2792881 -2781523 -2773851 -2770065 -2769341 -2769506 
3956.621 -2768979 -2765785 -2759464 -2751134 -2742376 -2735692 -2732860 
3959.996 -2734606 -2740466 -2748862 -2757917 -2765390 -2769967 -2771086 
3963.371 -2769078 -2764798 -2759168 -2753077 -2747117 -2741619 -2736120 
3966.747 -2730555 -2724892 -2718702 -2712478 -2706420 -2700756 -2695817 
3970.122 -2691240 -2686465 -2680472 -2672502 -2662030 -2649417 -2635816 
3973.497 -2622610 -2611543 -2603771 -2599686 -2598929 -2600378 -2602387 
3976.872 -2603540 -2602980 -2600312 -2595537 -2589410 -2582263 -2575148 
3980.248 -2568758 -2563686 -2560161 -2558778 -2558942 -2560260 -2562368 
3983.623 -2564608 -2566848 -2569384 -2572250 -2575675 -2580352 -2585853 
3986.998 -2591782 -2597809 -2602750 -2605812 -2606504 -2604166 -2598501 
3990.373 -2590036 -2579463 -2567737 -2556736 -2548138 -2543296 -2543461 
3993.749 -2548632 -2558580 -2572316 -2588883 -2606735 -2624915 -2642469 
3997.124 -2658210 -2671218 -2680933 -2687189 -2690120 -2690877 -2690318 
4000.499 -2689659 
##END=
