##TITLE=1693_2_a
##JCAMP-DX=5.01  $$ Nicolet v. 1
##DATATYPE=INFRARED SPECTRUM
##ORIGIN=UniL
##OWNER=Nicolet
##LONGDATE=2011/09/29
##TIME=10:19:02
##SPECTROMETER/DATA SYSTEM=Nicolet iS5
##DATA PROCESSING=
Ratio against background
%Transmittance->Absorbance
Truncated
ElementMultiply or ElementDivide
##COMMENTS=
Number of sample scans: 32
Collection length: 51.17 sec
Sample gain: 2.0
Background collected on: Jeu Sep 29 10:17:09 2011 (GMT+02:00);
Number of background scans: 32
Background gain: 2.0
Sample spacing:  1.000
Number of scan points: 12415
Resolution points: 8192
Number of FFT points: 65536
Apodization: N-B fort;
Phase correction: Mertz;
Laser frequency: 15798.0 cm-1
Number of rejected sample scans: 0
Number of rejected background scans: 0
Bench serial number: ASB1000141;
##RESOLUTION=4.000
##XUNITS=1/CM
##YUNITS=ABSORBANCE
##FIRSTX=649.893372
##LASTX=4000.122314
##FIRSTY=0.072725
##MAXX=4000.122314
##MINX=649.893372
##MAXY=0.238472
##MINY=-0.001146
##XFACTOR=1.000000
##YFACTOR=1.000000E-009
##NPOINTS=6950
##DELTAX=0.482117
##ZPD=6100
##XYDATA=(X++(Y..Y))
649.893 72724912 73040808 73363680 73702416 74059152 74428832 74805520 
653.268 75192584 75607480 76076968 76624992 77262520 77979736 78751272 
656.643 79548064 80350184 81156864 81983456 82851272 83774072 84752560 
660.018 85774512 86826192 87902320 89010984 90168560 91389288 92672000 
663.393 93997296 95328840 96627304 97860264 98996128 100002792 100833360 
666.767 101417472 101681592 101583736 101151520 100472784 99647000 98731688 
670.142 97730192 96607392 95322072 93853368 92216312 90462840 88661680 
673.517 86883816 85174400 83547616 81997856 80514032 79093248 77746216 
676.892 76489864 75338464 74295528 73351520 72490272 71696080 70960216 
680.267 70280904 69658896 69090728 68565712 68066512 67574512 67077384 
683.642 66572748 66068084 65577528 65115056 64688176 64298832 63943960 
687.016 63619308 63321420 63048980 62798760 62563768 62332960 62091072 
690.391 61823644 61522292 61186200 60822732 60443232 60058132 59674776 
693.766 59296392 58924300 58562644 58220272 57910768 57649192 57446544 
697.141 57303948 57210612 57144884 57074936 56967552 56795396 56539508 
700.516 56195148 55771256 55288348 54773728 54257616 53768176 53324992 
703.890 52938700 52609932 52331980 52094624 51887344 51702816 51537580 
707.265 51390684 51263148 51156528 51071436 51008492 50969964 50960276 
710.640 50989524 51073856 51234780 51495312 51875324 52380760 52996492 
714.015 53677244 54353964 54936816 55330988 55463752 55294448 54830004 
717.390 54122408 53266480 52381020 51583136 50984792 50670756 50689744 
720.765 51052988 51724876 52624592 53618652 54542364 55221820 55492480 
724.139 55247860 54459160 53187752 51567432 49778196 48006884 46393540 
727.514 45023752 43921664 43064368 42405624 41897060 41502528 41198076 
730.889 40967964 40798468 40672620 40573476 40487848 40410168 40344608 
734.264 40299412 40282688 40295632 40332028 40380896 40433732 40488940 
737.639 40553836 40642056 40767748 40940328 41161464 41424408 41717348 
741.013 42027276 42338484 42633500 42892584 43090636 43202948 43211292 
744.388 43107984 42900956 42611240 42267480 41896184 41515544 41133416 
747.763 40750460 40365512 39981196 39604304 39245032 38911352 38605812 
751.138 38325856 38066448 37825012 37605568 37417508 37272456 37179104 
754.513 37139004 37146224 37190044 37259712 37348824 37454708 37576628 
757.888 37711700 37851796 37985904 38103376 38199352 38277328 38348040 
761.262 38424780 38516120 38623484 38741384 38863808 38990396 39131852 
764.637 39308540 39548660 39879960 40324100 40896932 41606736 42455344 
768.012 43435160 44526684 45698368 46911276 48139388 49394116 50751304 
771.387 52349808 54373152 56998988 60309248 64222112 68429776 72445560 
774.762 75637176 77379752 77258680 75153784 71312976 66246548 60638408 
778.136 55150524 50272232 46312104 43354936 41322760 40039400 39308940 
781.511 38965024 38880948 38981408 39220916 39567532 39998200 40496068 
784.886 41054052 41677520 42380596 43180548 44091288 45120936 46276276 
788.261 47566912 49012156 50642420 52494040 54605744 57011680 59739140 
791.636 62813616 66260712 70107632 74378608 79081480 84191656 89629584 
795.010 95260136 100884304 106237168 111031688 114959824 117725480 119105720 
798.385 118965640 117302856 114249696 110071088 105123424 99778808 94414336 
801.760 89340864 84765648 80803720 77462792 74671168 72303520 70226144 
805.135 68329984 66550000 64879844 63359908 62057892 61033868 60317736 
808.510 59890068 59683936 59591456 59486192 59258604 58823668 58138708 
811.885 57201920 56041500 54703560 53237448 51694868 50123120 48564528 
815.259 47060360 45646028 44348564 43187612 42171404 41299076 40564056 
818.634 39957840 39473144 39105492 38852212 38712296 38684044 38765764 
822.009 38957488 39263344 39692260 40259168 40982200 41876844 42952712 
825.384 44206792 45618904 47146368 48723444 50264604 51660232 52796676 
828.759 53570144 53899528 53752428 53151048 52176144 50945968 49603956 
832.133 48297856 47146588 46238160 45616324 45278600 45180308 45241976 
835.508 45367932 45448052 45382316 45099504 44561860 43777464 42793076 
838.883 41687220 40547540 39453800 38469776 37630968 36948084 36412932 
842.258 36007544 35711164 35503504 35368580 35291844 35259928 35262016 
845.633 35289688 35338420 35407868 35500480 35618652 35763260 35932928 
849.008 36124880 36337884 36573412 36835864 37131680 37466416 37842580 
852.382 38259344 38713164 39200896 39721524 40277820 40874616 41518388 
855.757 42214780 42968372 43784244 44669552 45634840 46695384 47869908 
859.132 49177804 50640264 52278012 54110396 56155704 58424612 60913076 
862.507 63589804 66388444 69204304 71887544 74269696 76177816 77451672 
865.882 77980768 77711064 76657128 74896656 72565496 69840368 66900476 
869.256 63925156 61066472 58430484 56087948 54069904 52376760 50989600 
872.631 49879536 49016160 48368928 47911272 47619484 47470100 47442604 
876.006 47518708 47683972 47929880 48252048 48649020 49119844 49661164 
879.381 50266428 50927564 51635084 52381320 53161120 53971180 54809324 
882.756 55673084 56557360 57454524 58353352 59238592 60092832 60898856 
886.131 61641644 62314676 62922956 63486820 64037912 64615420 65258540 
889.505 65994644 66835856 67774432 68787864 69841720 70896936 71917848 
892.880 72870504 73723744 74449792 75019624 75404984 75582560 75533232 
896.255 75247120 74724168 73976088 73025984 71908144 70670472 69367336 
899.630 68056864 66797212 65634876 64603312 63720472 62988640 62399860 
903.005 61940408 61597084 61359152 61219160 61171936 61212560 61335572 
906.379 61535576 61808900 62154648 62575444 63076296 63662192 64335912 
909.754 65097348 65944380 66875004 67888816 68988144 70176448 71457472 
913.129 72832296 74301072 75864712 77528464 79305384 81218256 83294584 
916.504 85565848 88061416 90801712 93798512 97049240 100535560 104213264 
919.879 108008552 111817016 115493056 118875360 121809112 124167000 
922.771 125893520 127019448 127676488 128070520 128466744 129159648 
925.664 130406288 132416096 135311264 139103824 143682688 148803808 
928.557 154124432 159177872 163434896 166385776 167551456 166596368 
931.450 163383824 157997216 150743728 142098064 132667288 123056080 
934.342 113805000 105360864 98003816 91880304 87023872 83385232 80874120 
937.717 79386528 78828816 79110944 80135152 81785808 83895848 86244096 
941.092 88581336 90625856 92122616 92889968 92833016 91971240 90422480 
944.467 88386920 86092944 83758200 81570784 79651376 78060392 76807168 
947.841 75865936 75193176 74741288 74471224 74350776 74354624 74463248 
951.216 74658368 74923232 75244952 75613512 76023088 76470824 76954584 
954.591 77470760 78014032 78577128 79153360 79738640 80331728 80934360 
957.966 81548752 82176504 82816512 83466216 84122440 84784016 85451800 
961.341 86128856 86817936 87520264 88234048 88955752 89681552 90409752 
964.716 91141712 91881328 92633040 93399072 94178392 94967736 95762568 
968.090 96560512 97362032 98170600 98990800 99825720 100675448 101537984 
971.465 102410992 103293456 104188080 105099528 106033496 106993888 
974.358 107981320 108994024 110029800 111088048 112171048 113282608 
977.251 114425472 115598384 116794928 118004480 119214352 120413488 
980.143 121594768 122752808 123883048 124978456 126027912 127019136 
983.036 127941400 128789272 129565120 130278168 130940928 131564680 
985.929 132158592 132728856 133281680 133825824 134373728 134939008 
988.821 135534384 136167040 136837216 137539936 138268128 139017616 
991.714 139787696 140581392 141402160 142250352 143121632 144008560 
994.607 144903408 145802224 146706208 147620192 148548480 149492112 
997.500 150446112 151402240 152352400 153293440 154228496 155166544 
1000.392 156117776 157089008 158082896 159097376 160130704 161184080 
1003.285 162263664 163378656 164537568 165743776 166994512 168282784 
1006.178 169602128 170950384 172332000 173754704 175225152 176743696 
1009.070 178302528 179887424 181483440 183079664 184671680 186259392 
1011.963 187842256 189414336 190963088 192473200 193931840 195336848 
1014.856 196696976 198031808 199362320 200704880 202067296 203448624 
1017.748 204843216 206245600 207652272 209059552 210460016 211840128 
1020.641 213180400 214462304 215677680 216834592 217959360 219088256 
1023.534 220260944 221507168 222840928 224261744 225759056 227318176 
1026.427 228921136 230546128 232161904 233720208 235161088 236416560 
1029.320 237418384 238115168 238472080 238471760 238109824 237389360 
1032.213 236320592 234922688 233230064 231293168 229168496 226913664 
1035.106 224568192 222144480 219626128 216973184 214137120 211068784 
1037.999 207732704 204111072 200203664 196028736 191623776 187049280 
1040.892 182381056 177708928 173127200 168711312 164513600 160553088 
1043.785 156817728 153272928 149875760 146590752 143395216 140284672 
1046.678 137268960 134368448 131606488 129004256 126580592 124347624 
1049.571 122310344 120465040 118799000 117291488 115915088 114642512 
1052.464 113449160 112316496 111233344 110193248 109190816 108219896 
1055.357 107271392 106334880 105401320 104463952 103519600 102566472 
1058.250 101601864 100620888 99616120 98579776 97506960 96398392 95261128 
1061.626 94107032 92949144 91800648 90671656 89569632 88501552 87473456 
1065.001 86491328 85559720 84679472 83846888 83053536 82288864 81542680 
1068.376 80808232 80084304 79374432 78685776 78026408 77404776 76828968 
1071.751 76306672 75846720 75458048 75149016 74926024 74791472 74743376 
1075.127 74775256 74877600 75037664 75238648 75460456 75677128 75855952 
1078.502 75964352 75970472 75851608 75600032 75225288 74753256 74219736 
1081.877 73668856 73144312 72684912 72327040 72100920 72032152 72143952 
1085.252 72455392 72981848 73736072 74726408 75957288 77426120 79120088 
1088.628 81008984 83036368 85123320 87160816 89020376 90580296 91731144 
1092.003 92402696 92576480 92288144 91623560 90698528 89655528 88634936 
1095.378 87757240 87122792 86794056 86796968 87123032 87732584 88561064 
1098.753 89520160 90513776 91437760 92185832 92667328 92805360 92549176 
1102.129 91882064 90821720 89419304 87745840 85888928 83936480 81963440 
1105.504 80034624 78196872 76479832 74900912 73465768 72170240 71002976 
1108.879 69947936 68985664 68095352 67258160 66456704 65675228 64900816 
1112.254 64121172 63325556 62506220 61658792 60785004 59891896 58991892 
1115.630 58100260 57231928 56400492 55616740 54887484 54217520 53609464 
1119.005 53065116 52585436 52170912 51821524 51535868 51311212 51141952 
1122.380 51017512 50921604 50829888 50709296 50523928 50236188 49814536 
1125.755 49241852 48517136 47657904 46695052 45669620 44624388 43595732 
1129.131 42613216 41694880 40848480 40073628 39364224 38710848 38102216 
1132.506 37527060 36975648 36440208 35916588 35404456 34907036 34429516 
1135.881 33978068 33558340 33174276 32828964 32524746 32263886 32049198 
1139.256 31883784 31769872 31708632 31699364 31740428 31829622 31965374 
1142.632 32146874 32373894 32646180 32961778 33317104 33706952 34124964 
1146.007 34563788 35016460 35475096 35930300 36372436 36790708 37175132 
1149.382 37519004 37819408 38078056 38300304 38493852 38667128 38827464 
1152.757 38981628 39135444 39293668 39460696 39639692 39831584 40034752 
1156.133 40245684 40458644 40667052 40865116 41046768 41206344 41338176 
1159.508 41435744 41491992 41500888 41456852 41356180 41196728 40977176 
1162.883 40697000 40355952 39954352 39494224 38979452 38416308 37812864 
1166.258 37177696 36519852 35847060 35166648 34486080 33813028 33156108 
1169.634 32525174 31928752 31373922 30864658 30401974 29984478 29609768 
1173.009 29276532 28985238 28738530 28540154 28394184 28303708 28270714 
1176.384 28296386 28381944 28529186 28741292 29021794 29375148 29805936 
1179.759 30318862 30919340 31613648 32408130 33309020 34321888 35450400 
1183.135 36697680 38066516 39560640 41184416 42941560 44832672 46851704 
1186.510 48982440 51199024 53462012 55721076 57919324 59988168 61857076 
1189.885 63457184 64723328 65608016 66085756 66157980 65852216 65218808 
1193.260 64324924 63238316 62024488 60737552 59412288 58067956 56708472 
1196.635 55328656 53919444 52475532 50998616 49500676 48002852 46531048 
1200.011 45115348 43783328 42556640 41451492 40475556 39629708 38908744 
1203.386 38303528 37801624 37387752 37045756 36757640 36503992 36266812 
1206.761 36029360 35778044 35504580 35205200 34880608 34534620 34173424 
1210.136 33804504 33435538 33075470 32733846 32420698 32147162 31924150 
1213.512 31761706 31669314 31655238 31726596 31889844 32150016 32511142 
1216.887 32975398 33543662 34215760 34991316 35871064 36856748 37951080 
1220.262 39156620 40474644 41905308 43447940 45102372 46870308 48755400 
1223.637 50763032 52897604 55160604 57548176 60050332 62650272 65322048 
1227.013 68032416 70737496 73380192 75896792 78214848 80258136 81959928 
1230.388 83261392 84119992 84515288 84450608 83958360 83097952 81962560 
1233.763 80669608 79345872 78131304 77155848 76530016 76350872 76689312 
1237.138 77595008 79100920 81221488 83953968 87274424 91137136 95468016 
1240.514 100159248 105083624 110084664 114984440 119605928 123761072 
1243.407 127270464 129986704 131793784 132630320 132493200 131436672 
1246.300 129562792 127002984 123919496 120481304 116852640 113193112 
1249.193 109627104 106233992 103039120 100007672 97052680 94049752 90875264 
1252.568 87423808 83636392 79515432 75122856 70570936 65991596 61528204 
1255.943 57307580 53418244 49915108 46811952 44090920 41711400 39622484 
1259.319 37773756 36116524 34612624 33233826 31959172 30775766 29674898 
1262.694 28649860 27694366 26801584 25963780 25174282 24427684 23721522 
1266.069 23055814 22432396 21853182 21319178 20829978 20384104 19980322 
1269.444 19618510 19299916 19026176 18798242 18615558 18475442 18374254 
1272.820 18308690 18277206 18279762 18317640 18391332 18499714 18639422 
1276.195 18804954 18989550 19186590 19389296 19590500 19782888 19958674 
1279.570 20110618 20234286 20328442 20394940 20437344 20458182 20456688 
1282.945 20427932 20363790 20256540 20102046 19902234 19665866 19406618 
1286.321 19140774 18882292 18642328 18428252 18243650 18090942 17971230 
1289.696 17884628 17829320 17801116 17794350 17802462 17820586 17846996 
1293.071 17883384 17933764 18002382 18092532 18205504 18341280 18499886 
1296.446 18682416 18891358 19130144 19401386 19706360 20044718 20415324 
1299.822 20817532 21251010 21715466 22208214 22722294 23245792 23761698 
1303.197 24250220 24694190 25078686 25394874 25639866 25815610 25927936 
1306.572 25985728 26001314 25989316 25965712 25947036 25946228 25971730 
1309.947 26026150 26106966 26208492 26324054 26448590 26578058 26709186 
1313.323 26838450 26960594 27069374 27158956 27225098 27266162 27283062 
1316.698 27277592 27251486 27205378 27139064 27052940 26949066 26832212 
1320.073 26708586 26584504 26465318 26353732 26251538 26160630 26085468 
1323.448 26033326 26015348 26042756 26127164 26278430 26504022 26810288 
1326.823 27201850 27680346 28241116 28869746 29541490 30218714 30859110 
1330.199 31422078 31873978 32197118 32390244 32467968 32454330 32379034 
1333.574 32272558 32160398 32064642 32003004 31987738 32027722 32127752 
1336.949 32289442 32513640 32802164 33159718 33594492 34116432 34732772 
1340.324 35446120 36251288 37135612 38079212 39057024 40039180 40988172 
1343.700 41863708 42622644 43222344 43631192 43829656 43813752 43592436 
1347.075 43184248 42612448 41898700 41064360 40129704 39114704 38043696 
1350.450 36944692 35847744 34784964 33784412 32866846 32046378 31329334 
1353.825 30716836 30207276 29797668 29483118 29255832 29105898 29021086 
1357.201 28989524 29002346 29054208 29142890 29267350 29425212 29611718 
1360.576 29821444 30051120 30303052 30586732 30918772 31317760 31798284 
1363.951 32369968 33034816 33791288 34635624 35562404 36561660 37610952 
1367.326 38673828 39694800 40601128 41318864 41778376 41926948 41738288 
1370.702 41211556 40371952 39263020 37949272 36510084 35028884 33596644 
1374.077 32293472 31176262 30274488 29586888 29092152 28760232 28567968 
1377.452 28506224 28583396 28822652 29258418 29933640 30890734 32170106 
1380.827 33799348 35777976 38058960 40529644 43023208 45313612 47153568 
1384.203 48324928 48645796 48014064 46424364 43990368 40940148 37572760 
1387.578 34222396 31158924 28545250 26437990 24804892 23568764 22637044 
1390.953 21929220 21380434 20942482 20584696 20287578 20042498 19848920 
1394.328 19711526 19635252 19622566 19670406 19771998 19919230 20103294 
1397.704 20316152 20549746 20793374 21035642 21265866 21476022 21662698 
1401.079 21826668 21970622 22097786 22210968 22313402 22410172 22508744 
1404.454 22619416 22752040 22913384 23104976 23323088 23561034 23812866 
1407.829 24075948 24351946 24645230 24959876 25298032 25658248 26037512 
1411.205 26432778 26842996 27268632 27709058 28159654 28610364 29046238 
1414.580 29453898 29824604 30159290 30468112 30768298 31079654 31419262 
1417.955 31801206 32235372 32726810 33278112 33886744 34544164 35236680 
1421.330 35948224 36665444 37381828 38103952 38852864 39661584 40564348 
1424.706 41585548 42733408 43999168 45365176 46812984 48330556 49908492 
1428.081 51533368 53182320 54815904 56381780 57828580 59115144 60225044 
1431.456 61168424 61980496 62710708 63409596 64127392 64909548 65801940 
1434.831 66861748 68156328 69755616 71715976 74047080 76707608 79620096 
1438.207 82695200 85845688 88979216 91996056 94761744 97111760 98886936 
1441.582 99939896 100174480 99561688 98132808 95969152 93178256 89890608 
1444.957 86236816 82334472 78299480 74239232 70265088 66508220 63100936 
1448.332 60157068 57744740 55868128 54478500 53498140 52856324 52503612 
1451.708 52417772 52594896 53032096 53714556 54618632 55712372 56970388 
1455.083 58383104 59949024 61665476 63507572 65420956 67330272 69166448 
1458.458 70892720 72501000 74001696 75411968 76749008 78025488 79245328 
1461.833 80402616 81473280 82411024 83158256 83653176 83856136 83769936 
1465.208 83445256 82962888 82399000 81810368 81223888 80644584 80067968 
1468.584 79485392 78882016 78228816 77474752 76547248 75360848 73852856 
1471.959 72019288 69939840 67756968 65624744 63653640 61886112 60317964 
1475.334 58931736 57724608 56720932 55964076 55492444 55327940 55466312 
1478.709 55885160 56558456 57470560 58622936 60031156 61715584 63689248 
1482.085 65951480 68489240 71284752 74324584 77607528 81140368 84923592 
1485.460 88939768 93126240 97355976 101447856 105153184 108181728 110250040 
1488.835 111100928 110570056 108638192 105455176 101318936 96587736 91613208 
1492.210 86648896 81829736 77208336 72773872 68499056 64381712 60455804 
1495.586 56798792 53513620 50691088 48379888 46573428 45228884 44285560 
1498.961 43687616 43394844 43378552 43616136 44085640 44759976 45606572 
1502.336 46590652 47665704 48775456 49849432 50781396 51430704 51624744 
1505.711 51183252 49997108 48098156 45670284 42959368 40167532 37402196 
1509.087 34692828 32038174 29441346 26920052 24516408 22281802 20256262 
1512.462 18464896 16908922 15571654 14427493 13448680 12609510 11884116 
1515.837 11249486 10688213 10191329 9760986 9406094 9134322 8944057 8820145 
1519.695 8734807 8657193 8564656 8456325 8354778 8294928 8302359 8378862 
1523.552 8505790 8654286 8800500 8932084 9054133 9184101 9343188 9544603 
1527.409 9787893 10062110 10354280 10657039 10971732 11306412 11669803 
1530.785 12065997 12492358 12939959 13398478 13862750 14335534 14825939 
1534.160 15341441 15882300 16438389 16994296 17532318 18037266 18500786 
1537.535 18916762 19282596 19595562 19850170 20037536 20149800 20188710 
1540.910 20167848 20108604 20031082 19944380 19844654 19718530 19551854 
1544.286 19338888 19088146 18820316 18561056 18328494 18124624 17937216 
1547.661 17745058 17529836 17283170 17012904 16739015 16485881 16268976 
1551.036 16088007 15929695 15775668 15612318 15437665 15262431 15105312 
1554.411 14983986 14905555 14863071 14837047 14801701 14726387 14578508 
1557.787 14330773 13973567 13533138 13072495 12666648 12364123 12173494 
1561.162 12075469 12039835 12037246 12042594 12039596 12022768 11997119 
1564.537 11975966 11974877 12004578 12065521 12148244 12237289 12318103 
1567.912 12381475 12426275 12459519 12493619 12541125 12609271 12700560 
1571.288 12813196 12944157 13089364 13243159 13397419 13539393 13654606 
1574.663 13730691 13764138 13765985 13761265 13781375 13847357 13964294 
1578.038 14123842 14312897 14520946 14744280 14986352 15254674 15557024 
1581.413 15898075 16277405 16689258 17124802 17570960 18011014 18424898 
1584.789 18786650 19069382 19250766 19316752 19267910 19121038 18909908 
1588.164 18679236 18479556 18363056 18372630 18541104 18887172 19412370 
1591.539 20097638 20898880 21751868 22569400 23253446 23716062 23884170 
1594.914 23719072 23222758 22437526 21436720 20305250 19131598 17988290 
1598.290 16926456 15981086 15169402 14497068 13960769 13551255 13256277 
1601.665 13063412 12964537 12955695 13037155 13209752 13471715 13815135 
1605.040 14226507 14685531 15166450 15641205 16075458 16432436 16676588 
1608.415 16773935 16700689 16446957 16019451 15442472 14755181 14009633 
1611.791 13257063 12540647 11890347 11316921 10817482 10379630 9988564 
1615.166 9630912 9299620 8996081 8729162 8511636 8353595 8259097 8224888 
1619.023 8241165 8294185 8368323 8448657 8522043 8581384 8626333 8664088 
1622.881 8705701 8761516 8837459 8933166 9044321 9166131 9295930 9433149 
1626.738 9577458 9727946 9881200 10032812 10179898 10322588 10465087 
1630.113 10613169 10771898 10942237 11121006 11300018 11469102 11618650 
1633.489 11739856 11827420 11880302 11903049 11906080 11904854 11915616 
1636.864 11949434 12010437 12095399 12195576 12299355 12394158 12471352 
1640.239 12527279 12565954 12596276 12629055 12671391 12723487 12777979 
1643.614 12822000 12841555 12824492 12765387 12667126 12542591 12410216 
1646.990 12290493 12201744 12155128 12154752 12197996 12276825 12377043 
1650.365 12476604 12547570 12553300 12458429 12248536 11953828 11650573 
1653.740 11417462 11293183 11264074 11291925 11337122 11373141 11386780 
1657.115 11374977 11341272 11290292 11225413 11146264 11049286 10929937 
1660.490 10784397 10611573 10414008 10196892 9969103 9741534 9525500 9331001 
1664.348 9163999 9024734 8907360 8800872 8691165 8562865 8403420 8206418 
1668.205 7973731 7715871 7448727 7189528 6951257 6740879 6559699 6405259 
1672.063 6271985 6151253 6032167 5901459 5747623 5567091 5368687 5173560 
1675.920 5006607 4885724 4814154 4782562 4774254 4774019 4773450 4772914 
1679.778 4780049 4804572 4852216 4919703 4994943 5058831 5093193 5088265 
1683.635 5051859 5009590 4995580 5033690 5125982 5259710 5417064 5584343 
1687.492 5752726 5918421 6080282 6238034 6391573 6541097 6689091 6839357 
1691.350 6996274 7161906 7334306 7506100 7664304 7794094 7882621 7925777 
1695.207 7933573 7929793 7942819 7987939 8062126 8144428 8206249 8215097 
1699.065 8146285 7993508 7779251 7551681 7359445 7228304 7152945 7110539 
1702.922 7072650 7016142 6926040 6796106 6629807 6438652 6238673 6043758 
1706.780 5862634 5697497 5545176 5400356 5257362 5112806 4965951 4819448 
1710.637 4677415 4544569 4424216 4316579 4219341 4128413 4039644 3950526 
1714.494 3860690 3770707 3680374 3587086 3486203 3372921 3247852 3118846 
1718.352 3000256 2906147 2845275 2817861 2817094 2832102 2851512 2867922 
1722.209 2877228 2880296 2880329 2881363 2885900 2894005 2904245 2915086 
1726.067 2925927 2936902 2947511 2956952 2962356 2960955 2951547 2935868 
1729.924 2917788 2901877 2889602 2877194 2853647 2802620 2709821 2568877 
1733.781 2392027 2207856 2051061 1944443 1889963 1874589 1878316 1883673 
1737.639 1877118 1852560 1810534 1757368 1702179 1652951 1615202 1590626 
1741.496 1578288 1576891 1585139 1601368 1623284 1648694 1675203 1701381 
1745.354 1727128 1753409 1781122 1810168 1839050 1864639 1883806 1894023 
1749.211 1894090 1885204 1869397 1849631 1829001 1811300 1799056 1794930 
1753.069 1799288 1810335 1823577 1832095 1828535 1806775 1765186 1708100 
1756.926 1645002 1587466 1543073 1513513 1494062 1475577 1448182 1404667 
1760.783 1342909 1267069 1186259 1110547 1048366 1004027 977393 965206 
1764.641 963346 967065 970917 970984 963744 948569 928247 908059 894114 
1768.980 889631 893914 901086 903112 891889 863867 823133 780344 748679 
1773.320 737560 748712 777224 815298 855899 895475 934722 976131 1021629 
1777.660 1070520 1118752 1160677 1191044 1207823 1213039 1212740 1212807 
1781.517 1216993 1224669 1232577 1236000 1232045 1220914 1206195 1193303 
1785.375 1186625 1188087 1196792 1210880 1228058 1247696 1270093 1295017 
1789.232 1320308 1341779 1353013 1347429 1321738 1277504 1221911 1165096 
1793.089 1116028 1079322 1053879 1035612 1018806 999610 976397 949565 920643 
1797.429 891125 861444 831698 801423 770818 740580 712468 687511 666903 
1801.769 650975 639526 632558 630202 632259 638232 646893 656384 665244 
1806.108 672843 679812 687777 698563 712336 728266 743799 756479 764511 
1810.448 768693 771216 775863 785390 800626 820211 841790 862871 882094 
1814.787 900090 918584 939802 965106 994529 1026976 1060921 1094968 1128652 
1819.127 1161774 1194732 1227161 1257964 1286144 1309873 1328052 1339319 
1822.984 1342643 1337292 1323831 1304389 1283386 1266538 1258729 1262351 
1826.842 1275876 1293788 1307812 1310238 1296380 1267335 1230550 1196559 
1830.699 1176193 1175428 1193669 1225898 1265208 1305852 1344936 1382994 
1834.557 1421753 1463508 1509091 1557571 1607553 1658273 1710595 1767415 
1838.414 1832095 1907335 1994004 2090979 2195334 2303546 2412851 2520850 
1842.271 2625342 2725392 2820662 2912318 3003659 3099624 3204423 3320098 
1846.129 3445189 3574525 3700791 3816131 3914783 3994063 4054560 4098676 
1849.986 4129115 4146677 4149788 4135404 4101051 4045932 3972795 3886700 
1853.844 3792700 3695044 3595539 3493652 3388416 3279600 3168375 3057378 
1857.701 2948845 2843441 2740263 2637476 2533348 2428477 2325498 2228438 
1861.559 2141289 2066175 2002626 1948437 1902210 1862975 1831863 1810667 
1865.416 1799754 1796926 1797558 1795462 1785381 1766051 1740668 1715519 
1869.273 1697656 1691335 1696225 1708500 1722405 1733316 1738805 1738639 
1873.131 1733815 1725665 1714887 1701148 1684417 1664925 1643605 1621787 
1876.988 1599738 1576060 1548759 1515541 1475510 1430230 1383094 1337691 
1880.846 1296181 1258130 1220250 1178120 1128685 1072081 1011566 953118 
1884.703 902149 862407 834088 814535 799896 787647 776560 766967 760329 
1889.043 757010 756479 757939 760959 765872 774303 787946 806236 827482 
1893.382 848164 865262 877679 887872 899924 918784 947805 985828 1029069 
1897.722 1071982 1110281 1142704 1171010 1198553 1228357 1261420 1295948 
1901.579 1328418 1356436 1378939 1397321 1414739 1432624 1451407 1469925 
1905.437 1485351 1495991 1502474 1506497 1510554 1516007 1521792 1524851 
1909.294 1522823 1513978 1499714 1483789 1469991 1460483 1455130 1451207 
1913.152 1445223 1435815 1423582 1410883 1399980 1390573 1379604 1362153 
1917.009 1333603 1293023 1244373 1195662 1154166 1124267 1104269 1088391 
1920.866 1068727 1039896 1001404 958365 918319 887805 869578 861278 857028 
1925.206 851185 841491 828843 817124 810352 810352 815697 823598 830635 
1929.546 835416 838702 842122 845807 849027 848297 840827 826519 808892 
1933.885 793854 787813 793887 809987 830204 846703 853741 850654 841458 
1938.225 831631 826386 826818 829573 829673 822801 807663 788477 771448 
1942.564 761524 761391 769092 780411 792095 804178 818419 838171 865760 
1946.904 898330 930737 957037 973076 979485 981179 983470 990942 1004359 
1951.244 1019902 1032357 1038634 1039099 1037937 1041092 1052086 1070188 
1955.101 1091181 1107823 1114899 1112341 1103704 1094868 1091081 1093108 
1958.958 1096761 1096529 1087394 1067963 1041956 1015153 992370 976098 
1962.816 965206 957103 951524 950993 960224 984267 1024652 1077197 1133070 
1967.156 1181508 1214568 1229620 1229886 1220648 1207657 1193536 1178020 
1971.013 1159847 1139449 1120015 1106993 1105996 1119317 1146060 1183568 
1974.870 1229288 1284117 1353146 1441666 1550721 1674338 1798157 1902775 
1978.728 1973400 2002159 1991574 1952964 1901145 1848467 1802582 1764421 
1982.585 1731919 1702512 1675369 1650656 1629304 1611012 1591856 1568511 
1986.443 1538418 1501709 1464339 1434353 1417631 1417864 1432092 1454166 
1990.300 1477704 1499482 1519431 1542242 1572602 1611345 1655645 1700084 
1994.157 1738006 1766550 1787144 1802782 1817821 1833759 1847901 1854656 
1998.015 1849631 1830199 1799555 1764321 1731386 1705938 1688741 1675403 
2001.872 1660069 1639714 1613273 1583742 1556307 1535093 1520628 1512416 
2005.730 1507561 1504103 1502607 1503904 1508459 1514610 1517436 1511751 
2009.587 1494328 1466800 1433821 1404800 1387747 1385720 1398318 1420291 
2013.445 1445556 1470523 1495592 1522623 1555942 1597344 1645667 1698188 
2017.302 1752544 1806675 1861444 1917718 1975198 2030055 2077794 2112454 
2021.159 2131666 2137027 2134230 2130234 2130667 2137093 2145484 2150812 
2025.017 2147782 2133464 2109157 2078494 2043804 2007519 1970072 1931230 
2028.874 1893657 1862742 1844673 1845206 1867135 1906270 1957124 2011813 
2032.732 2064877 2116016 2168327 2223942 2284027 2344586 2398224 2438873 
2036.589 2463864 2475628 2481759 2492056 2512185 2544846 2588242 2637043 
2040.447 2686783 2735695 2781678 2824064 2860984 2887334 2897741 2890203 
2044.304 2865487 2830401 2795150 2768640 2756669 2760170 2773942 2790849 
2048.161 2805622 2813926 2814793 2807623 2790615 2760503 2715923 2657712 
2052.019 2591875 2528315 2479260 2453868 2454634 2475561 2503687 2525216 
2055.876 2528682 2510152 2473995 2429577 2386596 2352448 2329829 2317670 
2059.734 2313339 2315105 2322300 2335925 2355980 2379900 2403688 2422713 
2063.591 2433709 2436341 2433575 2428444 2424079 2420880 2416816 2409186 
2067.448 2396825 2381099 2365641 2355047 2351649 2354580 2360410 2364075 
2071.306 2361143 2351715 2337657 2323466 2313073 2308176 2307277 2308043 
2075.163 2307677 2304246 2298483 2291854 2284959 2277831 2268505 2255049 
2079.021 2236598 2214417 2190839 2169460 2152477 2139857 2130500 2122742 
2082.878 2115617 2110290 2109424 2115084 2127603 2144619 2161168 2171125 
2086.736 2170059 2155440 2128403 2092910 2052692 2012212 1974865 1942313 
2090.593 1916454 1898549 1889031 1887434 1892093 1899614 1906170 1910530 
2094.450 1912194 1913492 1918251 1929100 1945941 1967110 1988312 2005888 
2098.308 2018238 2025961 2031387 2037379 2044769 2052592 2059251 2062846 
2102.165 2063512 2063978 2067840 2078693 2097504 2123108 2152077 2182114 
2106.023 2212285 2244325 2281462 2326830 2380599 2440273 2501421 2558977 
2109.880 2609975 2654411 2694484 2732994 2771807 2809790 2844442 2872491 
2113.738 2892104 2903678 2910083 2914886 2921224 2930931 2944208 2960788 
2117.595 2981139 3006461 3037992 3076332 3119814 3164036 3204156 3234866 
2121.452 3253527 3260771 3260070 3255463 3250923 3248152 3246383 3244847 
2125.310 3242210 3238004 3233631 3229658 3225118 3217908 3204923 3182460 
2129.167 3149851 3109202 3064419 3021142 2984675 2958153 2943307 2940805 
2133.025 2949879 2970529 3001957 3041261 3083639 3122785 3151820 3166305 
2136.882 3166038 3153822 3135767 3118146 3104229 3094985 3091048 3090447 
2140.740 3094051 3104463 3123986 3152354 3187266 3221113 3244580 3251591 
2144.597 3238638 3208161 3166773 3122184 3079769 3041495 3005961 2969662 
2148.454 2931031 2890203 2849344 2811058 2776143 2742697 2707954 2669280 
2152.312 2625842 2580009 2535181 2493089 2454468 2416916 2378700 2342088 
2156.169 2315604 2313040 2351082 2442805 2589075 2777410 2986076 3189870 
2160.027 3367679 3509718 3615184 3689697 3740827 3774149 3792332 3798181 
2163.884 3793401 3781268 3765359 3747579 3726991 3700992 3665236 3616888 
2167.741 3557086 3491013 3424883 3366243 3318495 3280835 3250456 3223850 
2171.599 3198114 3174716 3157294 3149183 3152955 3168308 3190704 3215338 
2175.456 3236268 3248019 3246349 3228390 3191205 3135400 3064385 2984108 
2179.314 2905346 2840072 2796851 2780211 2788514 2813692 2845542 2876460 
2183.171 2902344 2924126 2946677 2972831 3003225 3035789 3065053 3086509 
2187.029 3098690 3102394 3101460 3100091 3100759 3103862 3108835 3114074 
2190.886 3119681 3127090 3136568 3148249 3160998 3171746 3177587 3178822 
2194.743 3177486 3176919 3181025 3190270 3201986 3210999 3212067 3201953 
2198.601 3182026 3157093 3132930 3114808 3104897 3100525 3098089 3093484 
2202.458 3085475 3075464 3067922 3066121 3072527 3086776 3106465 3128358 
2206.316 3150051 3170110 3186465 3198281 3202954 3198081 3183361 3161032 
2210.173 3136067 3115442 3105965 3111204 3131295 3162433 3198114 3233431 
2214.031 3265612 3293221 3317627 3338863 3355624 3365508 3366009 3355758 
2217.888 3337393 3315090 3294122 3278965 3271454 3269484 3270486 3271087 
2221.745 3269117 3265111 3260604 3256030 3251958 3247217 3238905 3225886 
2225.603 3208395 3187567 3166272 3147481 3132263 3120782 3113407 3109435 
2229.460 3109669 3115676 3127457 3144377 3164503 3183494 3198014 3206159 
2233.318 3207928 3204723 3200050 3195978 3194142 3194910 3197547 3202053 
2237.175 3208595 3216840 3225886 3234465 3239840 3239940 3234766 3225886 
2241.032 3217808 3215238 3221747 3237904 3261372 3287278 3310315 3327009 
2244.890 3336525 3339330 3337627 3333487 3327644 3320699 3313854 3308379 
2248.747 3307477 3314255 3329380 3351451 3376328 3398568 3413996 3421610 
2252.605 3423514 3424750 3430160 3442316 3459583 3477886 3491314 3494821 
2256.462 3487005 3469269 3445556 3420074 3395996 3374124 3354556 3336792 
2260.320 3320866 3308579 3301601 3301234 3307678 3319797 3335123 3352519 
2264.177 3371352 3391521 3413829 3438008 3462122 3483965 3500766 3510921 
2268.034 3514695 3514595 3513560 3514862 3520207 3529226 3540517 3552342 
2271.892 3562698 3571117 3577832 3583278 3588122 3592799 3597142 3601118 
2275.749 3604994 3608669 3611976 3615384 3617757 3619160 3619795 3620563 
2279.607 3622701 3628448 3638706 3654477 3675562 3700992 3729297 3759410 
2283.464 3789457 3817601 3842204 3861158 3872759 3877005 3874698 3868279 
2287.322 3860356 3853069 3847152 3842438 3837558 3831474 3824755 3819306 
2291.179 3817668 3822749 3835752 3855442 3878877 3902146 3922139 3937419 
2295.036 3948754 3957916 3967512 3979383 3993561 4009279 4025431 4041049 
2298.894 4055764 4069745 4082789 4094228 4102422 4106135 4103961 4096235 
2302.751 4084394 4070715 4057437 4045564 4035062 4024896 4013760 4001119 
2306.609 3987776 3975303 3965439 3959387 3957481 3958752 3961961 3965740 
2310.466 3969117 3971859 3974200 3975872 3977310 3978647 3980018 3982559 
2314.323 3987108 3994464 4004496 4016636 4028909 4039544 4047437 4052620 
2318.181 4056533 4061383 4068942 4080447 4096001 4114297 4133263 4151059 
2322.038 4165143 4172837 4171800 4159289 4133464 4094027 4042687 3983462 
2325.896 3922240 3864769 3816298 3779363 3754096 3738154 3728796 3722948 
2329.753 3719138 3717500 3719071 3724752 3735246 3749885 3767832 3788053 
2333.611 3809947 3832878 3857147 3882086 3907194 3931936 3955843 3978647 
2337.468 4000985 4023458 4046132 4068306 4088441 4105065 4116705 4123395 
2341.325 4125971 4125503 4123496 4120184 4115535 4109681 4103660 4100415 
2345.183 4104497 4120719 4153267 4203917 4271438 4352154 4441120 4533052 
2349.040 4623194 4708163 4785443 4853690 4912297 4961427 5001948 5035333 
2352.898 5063491 5088399 5111330 5133324 5154850 5176376 5198877 5223692 
2356.755 5252868 5288251 5330916 5381502 5439241 5502960 5571455 5643686 
2360.613 5718682 5795672 5872642 5947073 6015973 6077056 6128805 6171720 
2364.470 6207985 6240085 6270540 6300963 6331254 6360640 6387841 6411682 
2368.327 6431186 6445949 6455298 6458661 6455937 6447395 6434750 6421299 
2372.185 6410572 6407042 6413632 6432330 6464076 6508437 6564778 6632633 
2376.042 6712040 6803275 6906211 7020788 7146444 7282447 7428166 7583206 
2379.900 7747374 7920142 8100338 8285539 8472915 8658579 8838506 9009172 
2383.757 9167620 9311231 9438398 9547786 9639145 9712733 9769932 9812294 
2387.615 9842221 9861202 9870285 9869336 9857338 9833205 9795857 9745263 
2391.472 9682070 9608181 9525770 9437246 9344915 9251012 9157468 9066346 
2395.329 8979742 8899446 8827247 8764423 8712123 8671221 8642693 8627010 
2399.187 8624914 8636440 8661182 8698196 8746877 8806316 8876010 8956234 
2403.044 9047366 9149516 9263062 9387777 9523096 9668619 9824292 9989649 
2406.902 10164939 10349802 10543365 10744385 10951752 11164146 11380997 
2410.277 11601872 11826331 12053189 12280404 12505179 12723624 12932108 
2413.652 13126791 13304549 13463308 13601201 13717148 13810654 13881634 
2417.027 13930763 13959606 13969529 13962652 13940617 13904795 13856935 
2420.403 13798443 13731204 13657307 13578910 13497862 13415530 13332599 
2423.778 13249787 13168082 13089193 13015679 12951019 12898383 12860906 
2427.153 12840497 12838723 12855889 12892341 12948493 13024692 13121601 
2430.528 13238889 13376027 13532112 13705522 13895045 14099402 14317418 
2433.904 14547979 14789770 15041335 15301968 15571482 15851267 16143680 
2437.279 16451363 16776586 17120802 17483506 17863670 18259788 18671038 
2440.654 19097598 19540832 20002354 20483434 20984556 21505266 22044100 
2444.029 22600008 23171762 23758444 24359444 24973562 25598566 26232742 
2447.405 26872958 27516800 28162340 28807780 29451522 30092134 30727824 
2450.780 31356364 31975612 32582816 33174918 33748420 34298872 34820864 
2454.155 35308912 35757360 36160744 36514192 36812928 37052212 37227152 
2457.530 37332936 37365400 37321488 37199972 37000616 36724576 36373768 
2460.906 35949376 35453600 34888940 34258924 33568864 32826144 32038994 
2464.281 31217202 30370242 29506984 28636482 27767088 26906834 26064250 
2467.656 25247498 24464594 23722958 23028140 22384216 21793672 21256750 
2471.031 20772554 20338616 19952256 19609462 19306152 19038084 18800662 
2474.406 18589898 18402324 18234700 18083964 17947506 17821966 17704470 
2477.782 17592076 17482712 17374792 17268070 17162784 17058700 16956190 
2481.157 16854564 16753376 16652074 16550794 16450021 16351163 16255768 
2484.532 16164795 16079240 15999340 15925124 15856421 15792849 15733888 
2487.907 15678441 15625440 15573543 15521721 15469734 15418062 15367769 
2491.283 15320263 15276502 15236658 15200386 15166725 15134508 15103254 
2494.658 15072516 15042226 15012076 14981105 14947804 14910801 14868694 
2498.033 14821139 14768995 14713328 14655234 14595916 14536193 14475930 
2501.408 14415676 14355841 14297042 14240169 14185425 14132228 14079414 
2504.784 14025820 13970658 13914409 13858817 13805933 13757948 13715883 
2508.159 13679396 13646297 13613919 13579150 13540213 13495606 13445126 
2511.534 13388739 13326620 13258497 13183998 13103228 13016499 12924870 
2514.909 12830190 12734234 12639017 12546275 12457746 12374418 12297446 
2518.285 12227167 12163442 12105722 12052984 12004238 11958664 11916467 
2521.660 11877646 11843253 11813494 11788777 11768588 11753030 11742034 
2525.035 11736111 11736281 11743056 11756979 11777099 11801613 11828169 
2528.410 11854694 11879587 11902164 11922802 11942009 11960537 11978964 
2531.786 11997800 12017760 12039937 12065385 12094888 12128857 12166373 
2535.161 12205902 12245741 12284528 12321477 12357270 12393101 12430093 
2538.536 12469101 12510431 12553505 12598151 12644202 12691690 12741264 
2541.911 12792959 12846333 12900568 12954672 13007520 13059725 13112073 
2545.287 13165828 13221947 13280737 13340902 13400802 13458044 13510749 
2548.662 13558057 13600038 13637099 13670335 13700699 13729083 13756340 
2552.037 13783770 13812159 13842637 13875579 13910509 13946056 13980855 
2555.412 14012816 14040912 14064389 14083008 14096527 14104571 14106214 
2558.788 14100430 14086705 14064834 14035231 13999197 13957690 13911637 
2562.163 13861417 13806994 13748064 13684799 13617646 13547768 13476363 
2565.538 13405039 13335264 13268541 13206575 13150800 13102613 13062764 
2568.913 13031692 13008715 12992838 12982870 12977988 12977852 12982529 
2572.289 12992531 13007998 13028824 13054262 13083798 13117025 13153874 
2575.664 13194655 13239538 13288151 13338852 13390106 13439829 13487096 
2579.039 13531941 13575458 13619594 13666163 13716157 13769884 13827038 
2582.414 13887142 13950334 14017162 14088689 14165775 14248488 14335602 
2585.790 14425507 14515465 14603248 14687553 14767522 14843252 14915294 
2589.165 14984774 15052277 15119275 15186558 15254778 15324210 15394751 
2592.540 15465202 15534461 15601293 15665043 15725987 15784808 15842743 
2595.915 15900686 15959291 16018556 16078759 16140550 16204828 16273517 
2599.291 16348582 16431335 16522329 16621122 16725929 16835516 16948438 
2602.666 17064144 17183088 17305960 17433490 17565958 17703366 17845164 
2606.041 17990744 18139582 18290822 18444050 18598164 18751812 18903472 
2609.416 19051690 19195352 19333310 19465248 19590640 19708856 19818920 
2612.792 19919612 20009432 20087054 20151258 20201762 20238488 20262094 
2616.167 20273828 20274906 20267024 20251194 20228524 20199712 20165038 
2619.542 20125124 20080738 20032922 19983236 19933730 19886206 19842124 
2622.917 19802344 19767250 19736596 19710278 19688158 19670546 19657786 
2626.292 19650368 19648808 19653176 19663474 19679872 19702478 19732088 
2629.668 19769226 19814238 19867130 19926966 19992326 20061548 20132620 
2633.043 20204746 20276814 20348652 20420708 20493436 20567082 20642440 
2636.418 20719866 20799664 20882330 20968596 21058320 21151748 21248400 
2639.793 21347820 21449180 21551052 21652494 21752042 21848652 21941766 
2643.169 22031412 22118252 22203506 22288602 22375042 22463694 22554916 
2646.544 22648632 22744464 22842168 22941468 23042746 23146354 23252818 
2649.919 23362316 23475022 23590838 23709764 23831804 23957342 24086770 
2653.294 24220896 24360004 24504488 24654524 24810470 24972088 25140016 
2656.670 25314154 25494688 25681588 25874444 26072870 26276144 26483276 
2660.045 26693154 26904718 27116490 27327838 27537804 27746248 27953768 
2663.420 28160468 28367052 28573702 28780554 28987646 29195052 29403690 
2666.795 29614274 29828542 30047534 30271928 30501736 30735898 30973210 
2670.171 31212326 31452250 31692910 31934422 32177348 32421768 32667968 
2673.546 32915384 33163368 33410992 33657432 33901436 34141628 34376612 
2676.921 34604764 34825352 35038220 35244584 35446768 35647784 35851016 
2680.296 36059424 36275636 36501472 36738712 36988636 37252784 37532700 
2683.672 37829600 38144108 38476800 38827464 39195640 39580928 39982724 
2687.047 40399984 40831952 41276664 41732488 42197404 42669800 43148784 
2690.422 43634308 44126608 44626516 45134172 45650112 46174076 46706232 
2693.797 47246580 47795592 48353220 48919508 49494064 50075860 50664240 
2697.173 51258340 51857960 52463192 53074328 53690896 54312280 54936668 
2700.548 55562096 56186700 56808724 57426764 58040080 58647244 59246716 
2703.923 59835912 60411856 60970836 61509080 62022576 62507748 62960408 
2707.298 63376740 63753212 64086684 64375028 64616808 64812064 64961032 
2710.674 65064788 65124444 65141344 65117016 65052660 64949444 64808100 
2714.049 64628848 64411148 64153776 63855788 63516320 63135268 62713580 
2717.424 62252992 61756072 61225988 60666564 60082180 59478132 58859788 
2720.799 58232924 57603864 56977716 56359596 55753888 55163992 54593532 
2724.175 54045848 53524264 53031684 52571036 52144124 51752572 51396840 
2727.550 51077472 50794392 50547344 50336184 50160200 50018228 49908972 
2730.925 49830812 49782136 49761696 49768684 49802684 49863368 49950460 
2734.300 50063512 50201000 50361188 50541796 50740204 50953460 51178148 
2737.676 51411012 51648256 51886336 52121820 52351376 52572680 52783508 
2741.051 52982304 53168088 53340464 53499904 53647476 53785088 53915880 
2744.426 54042284 54167224 54292868 54420700 54551568 54685820 54823460 
2747.801 54964268 55108088 55253952 55401260 55549032 55696440 55842880 
2751.177 55988952 56135608 56284496 56437772 56597748 56766696 56947040 
2754.552 57141104 57351096 57578856 57825284 58090680 58373324 58670608 
2757.927 58979140 59295104 59614032 59932552 60246816 60552888 60846824 
2761.302 61124292 61380448 61610792 61810388 61975032 62100900 62184660 
2764.677 62224200 62218388 62167568 62074368 61942740 61778340 61587308 
2768.053 61375792 61149424 60913268 60671176 60426824 60183560 59944572 
2771.428 59712568 59490372 59279492 59081284 58896556 58725720 58568976 
2774.803 58426128 58296964 58180076 58073368 57973468 57876124 57776304 
2778.178 57668452 57547308 57407440 57243840 57052712 56831160 56577704 
2781.554 56292716 55978400 55638696 55278228 54902524 54517308 54127208 
2784.929 53736976 53350244 52969764 52598076 52236416 51885328 51544448 
2788.304 51213116 50890344 50575260 50267728 49968080 49677472 49396972 
2791.679 49127600 48869704 48623488 48387852 48161896 47944164 47733824 
2795.055 47529800 47331776 47138832 46950112 46764424 46580252 46395572 
2798.430 46208568 46017636 45821112 45618276 45408396 45190828 44965240 
2801.805 44731068 44487628 44234708 43971708 43698936 43417072 43127340 
2805.180 42831840 42532592 42232056 41932640 41636640 41346228 41062864 
2808.556 40788312 40523532 40269676 40027340 39797524 39581324 39379640 
2811.931 39193640 39024180 38871596 38735548 38615120 38509092 38416200 
2815.306 38335376 38266144 38208940 38164656 38134808 38121100 38125440 
2818.681 38149716 38195732 38265420 38360168 38480964 38628448 38801740 
2822.057 38999712 39220440 39461456 39720832 39996492 40285996 40587304 
2825.432 40897080 41211268 41525096 41832768 42128756 42407228 42663252 
2828.807 42892400 43091224 43256896 43387596 43482696 43542468 43568328 
2832.182 43563092 43530344 43473688 43397332 43305512 43202472 43092832 
2835.558 42980992 42871076 42767152 42671952 42587008 42513300 42451436 
2838.933 42402372 42367596 42349584 42351888 42379100 42435652 42526712 
2842.308 42657516 42834032 43063084 43352668 43710880 44146048 44664376 
2845.683 45268192 45954056 46710476 47517340 48342924 49147712 49886712 
2849.059 50509672 50971936 51237236 51281796 51098828 50698384 50106164 
2852.434 49356548 48491868 47556560 46590172 45629796 44706132 43841420 
2855.809 43052220 42347504 41729968 41196512 40739836 40350316 40016004 
2859.184 39725372 39467556 39232480 39011600 38797864 38585240 38369940 
2862.560 38149460 37923672 37693664 37462332 37233144 37009636 36795364 
2865.935 36593380 36406592 36237420 36088368 35961544 35858684 35781140 
2869.310 35729440 35703000 35700048 35717928 35752392 35798808 35851736 
2872.685 35906404 35959024 36008232 36054524 36100576 36150448 36208860 
2876.061 36279348 36365048 36466804 36584948 36719024 36868036 37031536 
2879.436 37208776 37398660 37599788 37809648 38026048 38246536 38469524 
2882.811 38694184 38920192 39147372 39375868 39605352 39835360 40065272 
2886.186 40294612 40523204 40750716 40976776 41200628 41420948 41636016 
2889.562 41844444 42044940 42237132 42421736 42599544 42772236 42941264 
2892.937 43107944 43273296 43438344 43602908 43767496 43931488 44094844 
2896.312 44257456 44419576 44581756 44744916 44910380 45079140 45252196 
2899.687 45429660 45611616 45797620 45987280 46179604 46373964 46569480 
2903.063 46765384 46960892 47156380 47353060 47553420 47761304 47981316 
2906.438 48218688 48478568 48766300 49087308 49446912 49851848 50308168 
2909.813 50822212 51399004 52041020 52747212 53511672 54324108 55168468 
2913.188 56023144 56863904 57661868 58387504 59014244 59518716 59885504 
2916.563 60108548 60191052 60144548 59985692 59734920 59410848 59029316 
2919.939 58601928 58134884 57630312 57087100 56502980 55876268 55206544 
2923.314 54496344 53751300 52979272 52189632 51392360 50597000 49811228 
2926.689 49041532 48292784 47568688 46872408 46206760 45574000 44976524 
2930.064 44416200 43894792 43414140 42976492 42584416 42241256 41950228 
2933.440 41714536 41536252 41416208 41353592 41345900 41389200 41478104 
2936.815 41606224 41766556 41951144 42151868 42361348 42572828 42781376 
2940.190 42983696 43178020 43363944 43541296 43709340 43866532 44009804 
2943.565 44134308 44234124 44302400 44331756 44316124 44250888 44135080 
2946.941 43971560 43768192 43536788 43291232 43046916 42818088 42614752 
2950.316 42443436 42305424 42197952 42114520 42047168 41987452 41926948 
2953.691 41859040 41778300 41681060 41565240 41429984 41275388 41102456 
2957.066 40912440 40707296 40489052 40260188 40023124 39780528 39534688 
2960.442 39287320 39039660 38792396 38546132 38301608 38060116 37823852 
2963.817 37595344 37377784 37174232 36987156 36818084 36667932 36536144 
2967.192 36421724 36322716 36236556 36159808 36088764 36019140 35946532 
2970.567 35867248 35778260 35677676 35565064 35441624 35309920 35173616 
2973.943 35037756 34907680 34788232 34683680 34595904 34523608 34461656 
2977.318 34401216 34330496 34234724 34100124 33914512 33669140 33360720 
2980.693 32991416 32569208 32105882 31616752 31118486 30625948 30153182 
2984.068 29710520 29304888 28940398 28618644 28340384 28105850 27915606 
2987.444 27770302 27669504 27610076 27584618 27579534 27576110 27551254 
2990.819 27479028 27337224 27108978 26787418 26376616 25892026 25358270 
2994.194 24802366 24252464 23731566 23254322 22827188 22448726 22112186 
2997.569 21807784 21526088 21259500 21003196 20754862 20513862 20280668 
3000.945 20055824 19839764 19631994 19432120 19239230 19052106 18869834 
3004.320 18691550 18516450 18344634 18176514 18013156 17856284 17707196 
3007.695 17567060 17436422 17314892 17201082 17093472 16990022 16888976 
3011.070 16788950 16689155 16589761 16491216 16394963 16302345 16215077 
3014.446 16134256 16060708 15994560 15935471 15882574 15835321 15792711 
3017.821 15754126 15718909 15686307 15655322 15625026 15593943 15560973 
3021.196 15524640 15484258 15438627 15386855 15328122 15262190 15189028 
3024.571 15109428 15025418 14939847 14856041 14777463 14707193 14647010 
3027.947 14597183 14556716 14523036 14492614 14461371 14425472 14381357 
3031.322 14326698 14260473 14182960 14095467 14000223 13899766 13796528 
3034.697 13692834 13590774 13491984 13398000 13310289 13229734 13156777 
3038.072 13091242 13032272 12978842 12929923 12884730 12843193 12805722 
3041.448 12773099 12745836 12724238 12707691 12694964 12684525 12674392 
3044.823 12662964 12649182 12632296 12612239 12589727 12565886 12542079 
3048.198 12519946 12500405 12483560 12468658 12453791 12436368 12413762 
3051.573 12383896 12345543 12299253 12246082 12188079 12127664 12066679 
3054.948 12006520 11948106 11891778 11837907 11786598 11737779 11691757 
3058.324 11648463 11607657 11568896 11531705 11495129 11458352 11420762 
3061.699 11382121 11342462 11302773 11264210 11227997 11195492 11167274 
3065.074 11143272 11122876 11105063 11088849 11073214 11057884 11042624 
3068.449 11027228 11011832 10996234 10980533 10964970 10950120 10936767 
3071.825 10925587 10917127 10911181 10907104 10904012 10901090 10897795 
3075.200 10894431 10891441 10889539 10888960 10889607 10890897 10891780 
3078.575 10891712 10890252 10887568 10883864 10879516 10874657 10868678 
3081.950 10861170 10851386 10838952 10823360 10805151 10784601 10762523 
3085.326 10740072 10718710 10699929 10685224 10675682 10671743 10672829 
3088.701 10678059 10685632 10694223 10702680 10710695 10718336 10725570 
3092.076 10732125 10737389 10740683 10741499 10739971 10737220 10735080 
3095.451 10735453 10739936 10748835 10761708 10776925 10792889 10808446 
3098.827 10822917 10836404 10849653 10863242 10877613 10893004 10909244 
3102.202 10926098 10943834 10962388 10981927 11002589 11024271 11046567 
3105.577 11069305 11091772 11113494 11134128 11153131 11170061 11184647 
3108.952 11197124 11207902 11218272 11229697 11243740 11261660 11283899 
3112.328 11310153 11339503 11370555 11401678 11431579 11459032 11483357 
3115.703 11504111 11521089 11534666 11545418 11553993 11561376 11568148 
3119.078 11574851 11581250 11587511 11593330 11598979 11604561 11610686 
3122.453 11617866 11626239 11635359 11644855 11653738 11661736 11668578 
3125.829 11674841 11681239 11688966 11698803 11711228 11726035 11742545 
3129.204 11759771 11776758 11792522 11806855 11819794 11832425 11845705 
3132.579 11861164 11879859 11902266 11927978 11956212 11985470 12014763 
3135.954 12043616 12072028 12101021 12130901 12161874 12193395 12224032 
3139.330 12252046 12276177 12296185 12312682 12327647 12343021 12360986 
3142.705 12382873 12409227 12439743 12473739 12510261 12548150 12586555 
3146.080 12624349 12660644 12694931 12727411 12758699 12790024 12822819 
3149.455 12858040 12896199 12936647 12978227 13019606 13059793 13098448 
3152.831 13136115 13173786 13212519 13253066 13295427 13339091 13383579 
3156.206 13428175 13472536 13517140 13562467 13609133 13657888 13709419 
3159.581 13763830 13821360 13881668 13944791 14010078 14077156 14145475 
3162.956 14214695 14284372 14353958 14423212 14491243 14557710 14621856 
3166.332 14683612 14743252 14801323 14858991 14917111 14976474 15037081 
3169.707 15098210 15159040 15218299 15274683 15327230 15375081 15417616 
3173.082 15454317 15484910 15509256 15527731 15541192 15550739 15557676 
3176.457 15563274 15568563 15574230 15580824 15588689 15598340 15610189 
3179.833 15624649 15641857 15661608 15683629 15706955 15731415 15756840 
3183.208 15782988 15809927 15837796 15866868 15896769 15928011 15960529 
3186.583 15994526 16030382 16068339 16108295 16150214 16193684 16238673 
3189.958 16285317 16333651 16383573 16435498 16488736 16542533 16596336 
3193.333 16649732 16702412 16754890 16807444 16860454 16913744 16966870 
3196.709 17018900 17069624 17119010 17167646 17216768 17267276 17320134 
3200.084 17374998 17431526 17488750 17546188 17603394 17660468 17717688 
3203.459 17775434 17833324 17891120 17948852 18006562 18064794 18124276 
3206.834 18185980 18250114 18316188 18383450 18450688 18516898 18581492 
3210.210 18644404 18705766 18765684 18823914 18880216 18934448 18986920 
3213.585 19038638 19091020 19145832 19204042 19265902 19330468 19396710 
3216.960 19462858 19527696 19590882 19652658 19714230 19776508 19840562 
3220.335 19906674 19974806 20044476 20114816 20184754 20253658 20320942 
3223.711 20386814 20451722 20516988 20583584 20652588 20724000 20796920 
3227.086 20869956 20941126 21009142 21073692 21135156 21195096 21255220 
3230.461 21316778 21380502 21446326 21513414 21581242 21649394 21717418 
3233.836 21785346 21853182 21920262 21986098 22050688 22113928 22176342 
3237.212 22239112 22303148 22368760 22436096 22504556 22573378 22642104 
3240.587 22710492 22778858 22847652 22916878 22986322 23055500 23123638 
3243.962 23190494 23256628 23323088 23391162 23462152 23536652 23614278 
3247.337 23694788 23777026 23860192 23943862 24027760 24111848 24195706 
3250.713 24279268 24362214 24444578 24527416 24611460 24697942 24787844 
3254.088 24881096 24976860 25073350 25168632 25260666 25348154 25430358 
3257.463 25507900 25581558 25653188 25724724 25797678 25873528 25952770 
3260.838 26035226 26120056 26205642 26290892 26374400 26455282 26533324 
3264.214 26608318 26680398 26749252 26814942 26877046 26936234 26993456 
3267.589 27050544 27109156 27171090 27237056 27306878 27379322 27452698 
3270.964 27525060 27594858 27661418 27724034 27783160 27838938 27891968 
3274.339 27943272 27993522 28043638 28094680 28146926 28200630 28255790 
3277.715 28311808 28368326 28425064 28482376 28540226 28599286 28658992 
3281.090 28719484 28780270 28840852 28901228 28961508 29021936 29082726 
3284.465 29143598 29204016 29263416 29321512 29378198 29433898 29489286 
3287.840 29545214 29601574 29658260 29714246 29768498 29820946 29871630 
3291.216 29921536 29972336 30025590 30082758 30144446 30210474 30280242 
3294.591 30352722 30426922 30501700 30576564 30651050 30724980 30798318 
3297.966 30870850 30942290 31012034 31079298 31143724 31205526 31265200 
3301.341 31324416 31385712 31451322 31523072 31602140 31688526 31780888 
3304.717 31877472 31976432 32076306 32176278 32276306 32376502 32477610 
3308.092 32580100 32684724 32792050 32902658 33016834 33134650 33255648 
3311.467 33379432 33504970 33632188 33760844 33891728 34025688 34163672 
3314.842 34306184 34453332 34604332 34758728 34915868 35075724 35238296 
3318.218 35403700 35572004 35742608 35915112 36088872 36263316 36438732 
3321.593 36615588 36794316 36974964 37157340 37340700 37524100 37706744 
3324.968 37888164 38067856 38245776 38421156 38593392 38761488 38925016 
3328.343 39083924 39239084 39391180 39541332 39689684 39835360 39976620 
3331.719 40111568 40238156 40355004 40462100 40559692 40648460 40729316 
3335.094 40802544 40868024 40925984 40976084 41018580 41053688 41081624 
3338.469 41102200 41115348 41120484 41116880 41104168 41081804 41049536 
3341.844 41006856 40953656 40889576 40814300 40727604 40629324 40519532 
3345.219 40397804 40264404 40119164 39963000 39796720 39622124 39441100 
3348.595 39255256 39065688 38872724 38675676 38474012 38266724 38053460 
3351.970 37834444 37610592 37382336 37150516 36915508 36677164 36436100 
3355.345 36192512 35947576 35702388 35458416 35216412 34976916 34740276 
3358.720 34506460 34275708 34048444 33825280 33606560 33392850 33183682 
3362.096 32978724 32777224 32578886 32383428 32190978 32001578 31814932 
3365.471 31631074 31449900 31271074 31095278 30923608 30756882 30595834 
3368.846 30440498 30289978 30142882 29997258 29852144 29706900 29562026 
3372.221 29418474 29277276 29139346 29004756 28873040 28743664 28616202 
3375.597 28490124 28365674 28243026 28122074 28003030 27885396 27768712 
3378.972 27653154 27538758 27425732 27314606 27205200 27097586 26991268 
3382.347 26885612 26780086 26674620 26569322 26464014 26359260 26254916 
3385.722 26150954 26047434 25944468 25842266 25741280 25642220 25545254 
3389.098 25450838 25358378 25267584 25177584 25087602 24996690 24904572 
3392.473 24811138 24716952 24622472 24528432 24435642 24344304 24254496 
3395.848 24165790 24078048 23991166 23905596 23822562 23742974 23667494 
3399.223 23596120 23527978 23460754 23391896 23319206 23241002 23156804 
3402.599 23067694 22975494 22882298 22790032 22700090 22612958 22528392 
3405.974 22445656 22363180 22279952 22194580 22106712 22015970 21923610 
3409.349 21831162 21740512 21653852 21572152 21495482 21422864 21351964 
3412.724 21280238 21205918 21127398 21044754 20958894 20870928 20782424 
3416.100 20694460 20607904 20522408 20438318 20354936 20271954 20189092 
3419.475 20106314 20023344 19940806 19858978 19778694 19700570 19625096 
3422.850 19552408 19482298 19413618 19345434 19276742 19206468 19134162 
3426.225 19060102 18984600 18908490 18832740 18758454 18686326 18616908 
3429.601 18550370 18486160 18423826 18362124 18300118 18237050 18172610 
3432.976 18106762 18039854 17972336 17904412 17836120 17767564 17698774 
3436.351 17630136 17562680 17496754 17433388 17372482 17313374 17254554 
3439.726 17194084 17130076 17061664 16988748 16912400 16834758 16757989 
3443.102 16683405 16611690 16542293 16473215 16402567 16328594 16250608 
3446.477 16169507 16087458 16007280 15931552 15862023 15798483 15739489 
3449.852 15682908 15626092 15566949 15504551 15438970 15370550 15300184 
3453.227 15228044 15154133 15077868 14998974 14917832 14834887 14751376 
3456.603 14668429 14586972 14507379 14429206 14352040 14275367 14198742 
3459.978 14122576 14047277 13973190 13900758 13830014 13760718 13692390 
3463.353 13624928 13557784 13490924 13424519 13358943 13294163 13231033 
3466.728 13169517 13109477 13050267 12990518 12928353 12862374 12791526 
3470.104 12715947 12637208 12557631 12479399 12404863 12334123 12266327 
3473.479 12200040 12132742 12063068 11990988 11917489 11844479 11773933 
3476.854 11707244 11644685 11585605 11528235 11471144 11412325 11350488 
3480.229 11284851 11215246 11142184 11067028 10991986 10919778 10852574 
3483.604 10792447 10739427 10692526 10649093 10605834 10559729 10508468 
3486.980 10451511 10389234 10323301 10255545 10187462 10119829 10052751 
3490.355 9986157 9919335 9852254 9784809 9717375 9650290 9583657 9517744 
3494.212 9452925 9389301 9327446 9267970 9211108 9157434 9107050 9059782 
3498.070 9014822 8971556 8928600 8884531 8838067 8787820 8733388 8673958 
3501.927 8610550 8544447 8477375 8411765 8349509 8291956 8239848 8192271 
3505.785 8147838 8104119 8058751 8009775 7955744 7896826 7834442 7771223 
3509.642 7709868 7653176 7602864 7559132 7520967 7486413 7453176 7418863 
3513.500 7382025 7341922 7298554 7252629 7205058 7157224 7110371 7065443 
3517.357 7023112 6983614 6946543 6910890 6875610 6839357 6800953 6760162 
3521.214 6716818 6671931 6626274 6581295 6537902 6496665 6457552 6419719 
3525.072 6381856 6342685 6300795 6255648 6207413 6157672 6108239 6061465 
3528.929 6018594 5980564 5946737 5915432 5885170 5854809 5823980 5793456 
3532.787 5764075 5736375 5709885 5683062 5653521 5619115 5578066 5530746 
3536.644 5478800 5425183 5372814 5324275 5280571 5242002 5207897 5177684 
3540.501 5150893 5127658 5108112 5092255 5078811 5065938 5050954 5030506 
3544.359 5002517 4965717 4920775 4870041 4817471 4766917 4721661 4683611 
3548.216 4652028 4625370 4600389 4574069 4544235 4510485 4473391 4435229 
3552.074 4398375 4364370 4333647 4305201 4277728 4249420 4219709 4188728 
3555.931 4157449 4127309 4098777 4072053 4046400 4020716 3994096 3966141 
3559.789 3937586 3909100 3882086 3857381 3835518 3816799 3800554 3785680 
3563.646 3770740 3752926 3728395 3693707 3645489 3582008 3505342 3420742 
3567.503 3335690 3258067 3193808 3145145 3110904 3087243 3069324 3053307 
3571.361 3036156 3017004 2995885 2974066 2952248 2931165 2910850 2890903 
3575.218 2870657 2849511 2826699 2801853 2774308 2743731 2710188 2674447 
3579.076 2637476 2600975 2567077 2537247 2512851 2494856 2482992 2476394 
3582.933 2473828 2472628 2469529 2460832 2442405 2410385 2362809 2299382 
3586.791 2223442 2140756 2059717 1988612 1933826 1898349 1881743 1880445 
3590.648 1888798 1900579 1910064 1912726 1906137 1889164 1863241 1830698 
3594.505 1794331 1757002 1720043 1685248 1653384 1625479 1602531 1585139 
3598.363 1573333 1565984 1560697 1554512 1544935 1530570 1511950 1491502 
3602.220 1472850 1459020 1451872 1451507 1455629 1460749 1462278 1456527 
3606.078 1440170 1411781 1371327 1320807 1263879 1205098 1149315 1100183 
3609.935 1059526 1026545 999278 974537 949698 923797 897235 872466 852148 
3614.275 838503 831565 830137 830635 828710 820577 802883 773938 734207 
3618.614 686250 634483 583882 539458 504526 480245 465981 459447 458253 
3622.954 460276 464887 472715 484922 502171 523170 543605 556113 551368 
3627.293 520483 458883 369999 267275 169314 94375 51692 40060 50134 71045 
3632.115 92586 108328 116050 117310 115686 114327 115354 118039 120856 
3636.455 121188 117310 109422 98220 85626 72768 60308 47848 34924 21405 7753 
3641.759 -3876 -10768 -10503 -1391 16666 42082 71939 102031 128280 146178 
3646.581 152377 143825 119298 79330 25779 -36810 -101974 -162425 -210052 
3650.920 -238400 -244725 -229491 -197102 -154575 -110256 -72126 -46782 
3654.778 -38632 -47047 -67455 -90844 -107473 -109991 -95548 -66793 -29819 
3659.117 6991 36482 53050 54508 42247 20543 -4439 -26804 -41680 -46318 
3663.939 -39759 -22663 4075 39862 84036 136069 194938 258688 325763 397326 
3668.761 479183 583418 729362 938408 1225666 1597709 2049729 2569310 3138937 
3673.100 3736483 4333814 4886327 5334438 5611563 5661174 5465077 5050015 
3676.958 4475165 3805869 3097855 2397091 1737807 1149415 656151 270358 -8647 
3681.297 -195711 -312838 -385012 -432018 -465184 -488518 -501326 -502319 
3685.155 -492589 -477133 -463463 -460583 -475842 -512281 -567612 -635311 
3689.012 -705843 -770577 -823692 -862913 -888838 -903221 -908115 -905999 
3692.870 -898824 -888276 -875876 -862681 -849520 -836821 -825610 -816450 
3696.727 -809934 -806462 -806329 -809471 -816714 -828653 -846478 -871279 
3700.584 -903089 -939823 -977711 -1011232 -1035330 -1047130 -1046502 
3703.960 -1035594 -1018405 -998736 -978736 -958800 -938038 -915125 -889731 
3707.817 -863541 -839698 -822799 -816913 -824155 -844295 -873958 -908479 
3711.675 -942369 -971198 -991959 -1002868 -1004257 -996488 -981612 -961941 
3715.532 -940286 -919522 -902362 -890326 -883514 -881232 -882026 -884142 
3719.389 -887449 -891979 -898195 -906825 -917671 -929441 -940352 -949014 
3723.247 -954932 -958701 -961776 -966437 -973777 -983959 -995463 -1005546 
3727.104 -1010405 -1006505 -991761 -965512 -929441 -887548 -845221 -808446 
3730.962 -782616 -771073 -773355 -786155 -804610 -825247 -846841 -871941 
3734.819 -903717 -944055 -990703 -1036883 -1073209 -1092214 -1091024 
3738.194 -1071391 -1039098 -1000389 -959759 -919754 -880406 -841881 -805999 
3742.052 -778779 -770246 -791017 -847238 -933673 -1030834 -1109565 -1146117 
3745.909 -1133360 -1079588 -1002736 -923556 -860896 -827462 -827925 -858349 
3749.767 -907850 -963131 -1013116 -1052948 -1081935 -1101072 -1110491 
3753.142 -1108673 -1094362 -1067624 -1031198 -990967 -952552 -922068 -902791 
3756.999 -895715 -898857 -908842 -922366 -936946 -950998 -963230 -971694 
3760.857 -974603 -970206 -958172 -940087 -919158 -898857 -882853 -872271 
3764.714 -866220 -862285 -857391 -849818 -840261 -831762 -828091 -833283 
3768.572 -848991 -874255 -905106 -935591 -959891 -973512 -975099 -965512 
3772.429 -947857 -926234 -904379 -885068 -869791 -857953 -848330 -839401 
3776.286 -830802 -824056 -821972 -828124 -845122 -872833 -906925 -939823 
3780.144 -963230 -971562 -963131 -941840 -914563 -889664 -873462 -868799 
3784.001 -874520 -886920 -900378 -910628 -916083 -917505 -916943 -916315 
3787.859 -915852 -914827 -911488 -904379 -893632 -880869 -868501 -858812 
3791.716 -852992 -850777 -850512 -850644 -850248 -849586 -849818 -852926 
3795.573 -858978 -866947 -873495 -874421 -866881 -850611 -828488 -806892 
3799.431 -794291 -797697 -821576 -863310 -913141 -955957 -977645 -971330 
3803.288 -939162 -891152 -840724 -802228 -786519 -798094 -834076 -883514 
3807.146 -931723 -964850 -976289 -967727 -945973 -919026 -892508 -867774 
3811.003 -842377 -812282 -773983 -728139 -679114 -635542 -606459 -600040 
3814.861 -618271 -656551 -701973 -738724 -754138 -742925 -709118 -663466 
3818.718 -619992 -592032 -590841 -621547 -680371 -755262 -827297 -880009 
3822.575 -903354 -896939 -867543 -826305 -784666 -750665 -729363 -720729 
3826.433 -721159 -723772 -723276 -716131 -702965 -686723 -672100 -662936 
3830.290 -661547 -667336 -676864 -686094 -690196 -685796 -671935 -650199 
3834.148 -623863 -597459 -576414 -565031 -566686 -582039 -609073 -643152 
3838.005 -677956 -707828 -729363 -742230 -748283 -750929 -753245 -756850 
3841.863 -762076 -768228 -773752 -777390 -778051 -775273 -769220 -759463 
3845.720 -745968 -728271 -706836 -681132 -651357 -617312 -578267 -534057 
3849.577 -485208 -434501 -387859 -354389 -345748 -373955 -445987 -557784 
3853.435 -690957 -818533 -915290 -967628 -977281 -954866 -914000 -865955 
3857.292 -818930 -776199 -738658 -705182 -674317 -645732 -620289 -599775 
3861.150 -586374 -582006 -587102 -601363 -623036 -649041 -675243 -695985 
3865.007 -705281 -698830 -675111 -636535 -590510 -546996 -516749 -509236 
3868.865 -529060 -573006 -630381 -685862 -726055 -744413 -743322 -730719 
3872.722 -717157 -710772 -714709 -726386 -738625 -743024 -733101 -708027 
3876.579 -671207 -631009 -596069 -574396 -570987 -586440 -616584 -652879 
3880.437 -685631 -706075 -709482 -695919 -670148 -639777 -613275 -598121 
3884.294 -599378 -616981 -646262 -677460 -700782 -707497 -695158 -666939 
3888.152 -629984 -592496 -562649 -546301 -545805 -559803 -583793 -611521 
3892.009 -636998 -656088 -666575 -668428 -662175 -648280 -627701 -601529 
3895.866 -571120 -538855 -507780 -480575 -460219 -448370 -445126 -449628 
3899.724 -459491 -472466 -486334 -500300 -514167 -529093 -546268 -566950 
3903.581 -590213 -614830 -637064 -653077 -659132 -653607 -636369 -610132 
3907.439 -579061 -548088 -521349 -501790 -490173 -485407 -484579 -484381 
3911.296 -482230 -476570 -467236 -455619 -443206 -432250 -424537 -421326 
3915.154 -422981 -429403 -439366 -451216 -462636 -471705 -476669 -477530 
3919.011 -474750 -469520 -463463 -458002 -453897 -451481 -450654 -451216 
3922.868 -452772 -455420 -458664 -461974 -464886 -466376 -466012 -463562 
3926.726 -459293 -453964 -448436 -443372 -439069 -436421 -435394 -436619 
3930.583 -440194 -446549 -455089 -464357 -472830 -478589 -480376 -478125 
3934.441 -472532 -465548 -459028 -454361 -451878 -451283 -451514 -451514 
3938.298 -450786 -449495 -448668 -449363 -452242 -457737 -465383 -473823 
3942.156 -481634 -486698 -487558 -483289 -474088 -460947 -446417 -433011 
3946.013 -423743 -420333 -423511 -431919 -442941 -453633 -461676 -465681 
3949.870 -466475 -465813 -464986 -465184 -465747 -465085 -461510 -454162 
3953.728 -443405 -430992 -419572 -411197 -406728 -405536 -405702 -405238 
3957.585 -402590 -397592 -391103 -385178 -381801 -381768 -385475 -392096 
3961.443 -400637 -410038 -419009 -426589 -431786 -433673 -431654 -425398 
3965.300 -415699 -403484 -390640 -378457 -368029 -359620 -353098 -347569 
3969.157 -343099 -339789 -338398 -339226 -342537 -347933 -354190 -360017 
3973.015 -364156 -365910 -365083 -361772 -356309 -348960 -339888 -329359 
3976.872 -318135 -306779 -296547 -288336 -282276 -278700 -276945 -276779 
3980.730 -277971 -280654 -285389 -292210 -300852 -310586 -319990 -327903 
3984.587 -333035 -335253 -334524 -331214 -325717 -318433 -309295 -298402 
3988.445 -286117 -273104 -260223 -248732 -239261 -232505 -228564 -227206 
3992.302 -228399 -231876 -237506 -245122 -253931 -263501 -272905 -281812 
3996.159 -289925 -297739 -305487 -313301 -320652 -326909 -331015 -332472 
4000.017 -331114 -327803 
##END=
