##TITLE=1693_1_b
##JCAMP-DX=5.01  $$ Nicolet v. 1
##DATATYPE=INFRARED SPECTRUM
##ORIGIN=UniL
##OWNER=Nicolet
##LONGDATE=2011/09/29
##TIME=10:15:09
##SPECTROMETER/DATA SYSTEM=Nicolet iS5
##DATA PROCESSING=
Ratio against background
%Transmittance->Absorbance
Truncated
ElementMultiply or ElementDivide
##COMMENTS=
Number of sample scans: 32
Collection length: 51.16 sec
Sample gain: 2.0
Background collected on: Jeu Sep 29 10:11:50 2011 (GMT+02:00);
Number of background scans: 32
Background gain: 2.0
Sample spacing:  1.000
Number of scan points: 12415
Resolution points: 8192
Number of FFT points: 65536
Apodization: N-B fort;
Phase correction: Mertz;
Laser frequency: 15798.0 cm-1
Number of rejected sample scans: 0
Number of rejected background scans: 0
Bench serial number: ASB1000141;
##RESOLUTION=4.000
##XUNITS=1/CM
##YUNITS=ABSORBANCE
##FIRSTX=649.893372
##LASTX=4000.122314
##FIRSTY=0.089719
##MAXX=4000.122314
##MINX=649.893372
##MAXY=0.295697
##MINY=0.002954
##XFACTOR=1.000000
##YFACTOR=1.000000E-009
##NPOINTS=6950
##DELTAX=0.482117
##ZPD=6100
##XYDATA=(X++(Y..Y))
649.893 89718792 89862088 90070408 90363408 90741312 91187976 91685232 
653.268 92225736 92819432 93489632 94255776 95119376 96057272 97030760 
656.643 98002736 98957176 99907320 100888688 101942800 103092720 104337664 
660.018 105654976 107019832 108420384 109870864 111400240 113039240 
662.911 114797040 116653776 118562456 120470592 122334008 124113160 
665.803 125768048 127233728 128399448 129127888 129306136 128919456 
668.696 128065896 126898408 125537720 124029256 122355880 120477024 
671.589 118365552 116037688 113559584 111025184 108538248 106175768 
674.481 103973752 101937560 100055232 98314304 96708568 95237648 93897136 
677.856 92673720 91546480 90492304 89493688 88545744 87653792 86826472 
681.231 86067728 85370240 84716592 84086696 83464248 82844296 82234280 
684.606 81649432 81104464 80607528 80157776 79746400 79363216 78998848 
687.981 78648840 78311976 77986280 77665888 77340000 76993744 76611320 
691.355 76180688 75693976 75149136 74549152 73901560 73218152 72518504 
694.730 71829136 71179736 70602240 70120136 69742936 69462776 69254624 
698.105 69082888 68906480 68691168 68415392 68072408 67670688 67227400 
701.480 66765792 66306064 65864444 65451236 65070020 64719824 64397396 
704.855 64098932 63821056 63562228 63322372 63102580 62905184 62732800 
708.229 62588572 62475116 62395348 62352584 62352620 62405372 62528760 
711.604 62746772 63086680 63572584 64211436 64982736 65828660 66660976 
714.979 67368152 67835752 67980600 67762464 67202144 66373156 65397920 
718.354 64424068 63592724 63035720 62851608 63093612 63767404 64818524 
721.729 66133440 67528952 68783600 69668200 69972152 69569016 68439080 
725.104 66684192 64498364 62128572 59824200 57765220 56055900 54716336 
728.478 53706380 52954156 52386180 51948920 51606832 51339780 51135020 
731.853 50978460 50855252 50754060 50669416 50603928 50564612 50558248 
735.228 50586616 50646108 50730820 50837336 50968100 51131628 51336536 
738.603 51587616 51880924 52205404 52546464 52891692 53235240 53577336 
741.978 53918020 54251308 54559004 54812180 54978256 55027788 54945200 
745.352 54731820 54403684 53984576 53497616 52963816 52398704 51816928 
748.727 51235264 50671240 50141492 49658452 49226636 48844896 48509840 
752.102 48221244 47985236 47813936 47719548 47710264 47784828 47933028 
755.477 48136872 48377188 48636828 48900924 49156060 49388584 49582456 
758.852 49724024 49806104 49834160 49825388 49805804 49803020 49834716 
762.227 49907228 50016108 50153356 50316948 50516816 50774356 51120484 
765.601 51587576 52203084 52988632 53958312 55114972 56445244 57914060 
768.976 59464496 61023724 62534080 63987152 65460176 67119536 69197920 
772.351 71933136 75454264 79697240 84325664 88781984 92324448 94211448 
775.726 93947608 91387216 86823720 80862432 74308616 67934536 62304240 
779.101 57766620 54409356 52133328 50728512 49964660 49647940 49631520 
782.475 49827212 50181732 50656756 51224600 51865912 52574364 53357960 
785.850 54235880 55230396 56357300 57625960 59041464 60612236 62358668 
789.225 64313740 66517488 69014208 71842736 75034984 78623032 82642128 
792.600 87132792 92136992 97679696 103748048 110263920 117077624 123955984 
795.975 130579144 136592768 141610896 145260144 147257184 147432592 
798.867 145787584 142495088 137896960 132446992 126610712 120848120 
801.760 115521288 110848904 106918192 103674632 100966152 98578992 96309672 
805.135 94012192 91624376 89181632 86792480 84604008 82739136 81266392 
808.510 80172568 79369176 78710208 78028664 77187360 76091696 74709408 
811.885 73061504 71204912 69210864 67144592 65065056 63019596 61045956 
815.259 59180412 57453428 55888588 54501228 53295472 52265940 51401128 
818.634 50689336 50121748 49693744 49404508 49253728 49240296 49361928 
822.009 49617332 50009344 50547156 51247680 52131800 53218760 54521024 
825.384 56035280 57738272 59578724 61477512 63332648 65014324 66389368 
828.759 67339288 67775400 67668480 67055696 66043244 64779364 63440232 
832.133 62203208 61207980 60553496 60280616 60369288 60740948 61266888 
835.508 61794840 62153308 62188868 61797784 60935112 59632848 57984184 
838.883 56132288 54229460 52408536 50772456 49374624 48227056 47312380 
842.258 46598988 46052780 45643596 45349252 45151228 45033232 44980680 
845.633 44981156 45025368 45108952 45229768 45386436 45575844 45793240 
849.008 46033288 46294040 46577668 46891048 47243292 47642040 48090640 
852.382 48587168 49126932 49706300 50325804 50991500 51712820 52499836 
855.757 53360620 54299632 55320112 56427584 57632352 58952496 60412276 
859.132 62038092 63859360 65904664 68199896 70768536 73624296 76762096 
862.507 80141840 83678688 87237000 90620544 93607536 95969072 97493896 
865.882 98039656 97542336 96033048 93627928 90518136 86943800 83141280 
869.256 79339672 75726472 72427128 69520288 67035316 64965420 63281208 
872.631 61942740 60909568 60141848 59604912 59269240 59105920 59091000 
876.006 59204528 59431856 59765144 60201900 60741556 61382016 62116608 
879.381 62932224 63811576 64734176 65680280 66634128 67584040 68522720 
882.756 69446840 70354656 71245240 72115744 72960720 73770976 74535144 
886.131 75242432 75888472 76479984 77039280 77600792 78207744 78903232 
889.505 79717944 80664336 81733048 82896512 84113840 85337816 86525464 
892.880 87635592 88631112 89479192 90146496 90601728 90819600 90780472 
896.255 90475040 89905400 89086024 88044128 86818784 85464184 84041696 
899.630 82616680 81254776 80007888 78912928 77988776 77236440 76644840 
903.005 76196808 75876632 75671880 75575072 75582400 75691088 75898256 
906.379 76201504 76600088 77096648 77696520 78407024 79234472 80181376 
909.754 81246104 82424360 83711680 85106152 86609624 88226136 89960752 
913.129 91817144 93797976 95908040 98157648 100566920 103166800 105993192 
916.504 109085632 112478352 116193712 120238336 124597584 129232288 
919.397 134065016 138976544 143808208 148350944 152383744 155707776 
922.289 158178560 159760512 160544496 160760928 160729776 160838304 
925.182 161491520 163023024 165682368 169585072 174692960 180798928 
928.075 187523360 194370512 200700128 205817024 209080400 209922736 
930.967 207985984 203178992 195692736 185983408 174689296 162582592 
933.860 150403120 138791568 128263640 119130952 111546888 105535736 
936.753 101028448 97912064 96060256 95360904 95705280 96973344 99021096 
940.128 101638712 104548080 107435704 109947760 111766008 112664920 
943.020 112530216 111392360 109403424 106816736 103917184 100973680 98216336 
946.395 95791360 93771616 92168584 90951328 90067840 89461320 89084400 
949.770 88897480 88868536 88972464 89185008 89484120 89852552 90276920 
953.145 90749688 91267656 91828600 92429992 93066376 93730376 94414584 
956.520 95113848 95826184 96552640 97294832 98052904 98825240 99608200 
959.894 100398504 101194848 101999744 102817632 103652384 104505720 
962.787 105374760 106254600 107139576 108027376 108920144 109823584 
965.680 110744264 111686088 112648344 113626160 114613480 115606200 
968.573 116604240 117612392 118636728 119681824 120747912 121830912 
971.465 122925064 124025512 125131440 126245168 127371832 128515152 
974.358 129675832 130852464 132043080 133248400 134473152 135724912 
977.251 137010560 138332672 139687232 141064528 142450944 143834608 
980.143 145207232 146563552 147899136 149206560 150473664 151685600 
983.036 152828512 153894336 154884208 155807936 156680976 157517456 
985.929 158329584 159125344 159911456 160696448 161492464 162312688 
988.821 163169904 164071168 165016464 166000080 167015232 168058048 
991.714 169130032 170236080 171381440 172566464 173784976 175025744 
994.607 176277248 177532560 178792352 180063248 181352768 182664848 
997.500 183996512 185340016 186686880 188033120 189382624 190745536 
1000.392 192133312 193553744 195008128 196493088 198005184 199546096 
1003.285 201125136 202756144 204453376 206224000 208065312 209966768 
1006.178 211916400 213906464 215937056 218014160 220144640 222328496 
1009.070 224556688 226810976 229070496 231318928 233546032 235747104 
1011.963 237917312 240045712 242113168 244098176 245982464 247761056 
1014.856 249444976 251058400 252628864 254178640 255719360 257252304 
1017.748 258773808 260280880 261773936 263253920 264716768 266149312 
1020.641 267530528 268839488 270067328 271226624 272353312 273496832 
1023.534 274711712 276039616 277501504 279098400 280816832 282636032 
1026.427 284530080 286467328 288403776 290273824 291996544 293481056 
1029.320 294636096 295391200 295697184 295526016 294866464 293716224 
1032.213 292082112 289984416 287465216 284591232 281440800 278097824 
1035.106 274626912 271059104 267390048 263585472 259597248 255375392 
1037.999 250884272 246108576 241053616 235746544 230236624 224599168 
1040.892 218925056 213318192 207881168 202688720 197780880 193152576 
1043.785 188760128 184533360 180396976 176295184 172197952 168109424 
1046.678 164059424 160096896 156275968 152644832 149244912 146103664 
1049.571 143233904 140635072 138292544 136180592 134264432 132508472 
1052.464 130879704 129350440 127903416 126527128 125213176 123954136 
1055.357 122739840 121558688 120399896 119254560 118116800 116983576 
1058.250 115851312 114715136 113568280 112403240 111214896 110003680 
1061.144 108775952 107542984 106318296 105115400 103944840 102814616 
1064.037 101730792 100698056 99720400 98799656 97934064 97116400 96334072 
1067.412 95572256 94815984 94054576 93284256 92508912 91738344 90985448 
1070.787 90265176 89592072 88979544 88440904 87987768 87629712 87373440 
1074.162 87220680 87168552 87209008 87330336 87517224 87749984 88004808 
1077.538 88251464 88452848 88571712 88571752 88427416 88129888 87690408 
1080.913 87139960 86521136 85886592 85288824 84773704 84383608 84152608 
1084.288 84108488 84276136 84675800 85324104 86235448 87419720 88882920 
1087.663 90622592 92624624 94853792 97244336 99703520 102103472 104293432 
1091.039 106130872 107489464 108289968 108515576 108213312 107487896 
1093.932 106476704 105343424 104245656 103314680 102657200 102338056 
1096.825 102383736 102785224 103503032 104470576 105594848 106770808 
1099.718 107879744 108794600 109401760 109599848 109316096 108519704 
1102.611 107223032 105482592 103384000 101037648 98557576 96044096 93586128 
1105.986 91249048 89074600 87086992 85293008 83686640 82251984 80967824 
1109.361 79810104 78753096 77773952 76851944 75968144 75106744 74253112 
1112.737 73393928 72519800 71624800 70709304 69779504 68847728 67929416 
1116.112 67039608 66192440 65398036 64662644 63989496 63380340 62836444 
1119.487 62359772 61952792 61617896 61356980 61169184 61049576 60986392 
1122.862 60960276 60942128 60892528 60768652 60525728 60125524 59545852 
1126.238 58783188 57855608 56797168 55655420 54481056 53317988 52203236 
1129.613 51159992 50198732 49319944 48516620 47778352 47092264 46446268 
1132.988 45830208 45236056 44659896 44101152 43562432 43048048 42562888 
1136.363 42110868 41694332 41314816 40974156 40674476 40419512 40213804 
1139.739 40060696 39962452 39918756 39927652 39986504 40093616 40248664 
1143.114 40452280 40705188 41006744 41353300 41739012 42156248 42596072 
1146.489 43049912 43508772 43962724 44401300 44812948 45186524 45514244 
1149.864 45792060 46021576 46208792 46362608 46493504 46610608 46722248 
1153.240 46835132 46955244 47087720 47236312 47402688 47586136 47782496 
1156.615 47986200 48189848 48386480 48570160 48735236 48876380 48987672 
1159.990 49061972 49092244 49072136 48996648 48862956 48670108 48418148 
1163.365 48108076 47741148 47319400 46846092 46326888 45769052 45181192 
1166.740 44573424 43954952 43334544 42720316 42119596 41539096 40985992 
1170.116 40466136 39984684 39545176 39149620 38798696 38493492 38235716 
1173.491 38028504 37876200 37783148 37753256 37789260 37892904 38065648 
1176.866 38309716 38628372 39026644 39509828 40083840 40754680 41528596 
1180.241 42412308 43414728 44544932 45812312 47226116 48792844 50518272 
1183.617 52406740 54461712 56685028 59074980 61623508 64311320 67106268 
1186.992 69964016 72824416 75617176 78267064 80688432 82797464 84517144 
1190.367 85779072 86539496 86783168 86528296 85822352 84736976 83360416 
1193.742 81777608 80067848 78294680 76498680 74701112 72906008 71106544 
1197.118 69291504 67453672 65594180 63725964 61872588 60064108 58335236 
1200.493 56717872 55236908 53910104 52745008 51741036 50890344 50181104 
1203.868 49598276 49124296 48740756 48427228 48161344 47921964 47689112 
1207.243 47446520 47183600 46895328 46581356 46244872 45891596 45528336 
1210.619 45162776 44804460 44464352 44154372 43888192 43679152 43539024 
1213.994 43479108 43508628 43635664 43868144 44212588 44674292 45256608 
1217.369 45960612 46786012 47731792 48798144 49986552 51300248 52742312 
1220.744 54315584 56021560 57861136 59836140 61950652 64210892 66624896 
1224.120 69198936 71935168 74828864 77867064 81028872 84282296 87587144 
1227.495 90891032 94125632 97214744 100070752 102601552 104725160 106369000 
1230.870 107480432 108034296 108035400 107525544 106580232 105317328 
1233.763 103884104 102438384 101152568 100184952 99668424 99717448 100414408 
1237.138 101815488 103957168 106854792 110504496 114876376 119915664 
1240.031 125531744 131592352 137940528 144382256 150695904 156659440 
1242.925 162035824 166596800 170153408 172554928 173719168 173638160 
1245.818 172377040 170060704 166851584 162949184 158560608 153886608 
1248.711 149121264 144414832 139863136 135496448 131273776 127094568 
1251.604 122817296 118306368 113453640 108210296 102600376 96717504 90710000 
1254.979 84741808 78984904 73584648 68638040 64200520 60279092 56845208 
1258.354 53845400 51216248 48895624 46824060 44954256 43250200 41684048 
1261.729 40237612 38898556 37656840 36504248 35431524 34428620 33486288 
1265.105 32596744 31755504 30961752 30216726 29522692 28880828 28290730 
1268.480 27750770 27259282 26816174 26422604 26081246 25794372 25562684 
1271.855 25385038 25259052 25182500 25154516 25175794 25247392 25369512 
1275.230 25539842 25753164 26001946 26276424 26566962 26862700 27152042 
1278.606 27422944 27662512 27860312 28010170 28111716 28170790 28195398 
1281.981 28193170 28166936 28113202 28022610 27885042 27693590 27448426 
1285.356 27158322 26838626 26508494 26185194 25882180 25608582 25368668 
1288.731 25164698 24997498 24866780 24770092 24702992 24659610 24633588 
1292.107 24620752 24620614 24636148 24672338 24733998 24823908 24942330 
1295.482 25088444 25261544 25463382 25697936 25970322 26284732 26643440 
1298.857 27045854 27490464 27975676 28500490 29063810 29661170 30282124 
1302.232 30909698 31519402 32083516 32577172 32979906 33280436 33476408 
1305.608 33573624 33583720 33522614 33409812 33266592 33114872 32976008 
1308.983 32866418 32796234 32768718 32780654 32824926 32893724 32980834 
1312.358 33081726 33193014 33310488 33428024 33537936 33633336 33709172 
1315.733 33763640 33798344 33815680 33817256 33802608 33769656 33715976 
1319.109 33641644 33549890 33446848 33339858 33235580 33138010 33049512 
1322.484 32972612 32911666 32875032 32874994 32924782 33038500 33228498 
1325.859 33504288 33874064 34343548 34913964 35579196 36321204 37109844 
1329.234 37901112 38645612 39297512 39819672 40193956 40421296 40520440 
1332.610 40520220 40454828 40358240 40258660 40179344 40138968 40150452 
1335.985 40223000 40361768 40569112 40846876 41198912 41632664 42160012 
1339.360 42793956 43544412 44414840 45399568 46484288 47646036 48856652 
1342.735 50082144 51278736 52398668 53389732 54199988 54790568 55137768 
1346.111 55237060 55099852 54748620 54208884 53502676 52648680 51662472 
1349.486 50559700 49361928 48098412 46803280 45516672 44276568 43113728 
1352.861 42052716 41108904 40290908 39603468 39047200 38618340 38307764 
1356.236 38101532 37982396 37933400 37942148 38001596 38109564 38265244 
1359.612 38466300 38706716 38979232 39278180 39605064 39970156 40392788 
1362.987 40894892 41493524 42199008 43012196 43927860 44937572 46030416 
1366.362 47189656 48383964 49566668 50670904 51613028 52310936 52691360 
1369.737 52703332 52326860 51571272 50474500 49092464 47502960 45798100 
1373.113 44072876 42429080 40955148 39712300 38730188 38004092 37507444 
1376.488 37205276 37071912 37098764 37297552 37697168 38339284 39275712 
1379.863 40558600 42238008 44349368 46894184 49815060 52972048 56156492 
1383.238 59084280 61443804 62960564 63406184 62653676 60699336 57688244 
1386.614 53907668 49732084 45576876 41776040 38530636 35910180 33875352 
1389.989 32331452 31165190 30277862 29590470 29044536 28603286 28244122 
1393.364 27956664 27739926 27597824 27534452 27549878 27639136 27793050 
1396.739 28001758 28254802 28541782 28851474 29169218 29479890 29770698 
1400.115 30034182 30270010 30483112 30680528 30867932 31048440 31223648 
1403.490 31395398 31568322 31750228 31949896 32174456 32426660 32703872 
1406.865 33000744 33312776 33638632 33981256 34345988 34737084 35156124 
1410.240 35600956 36067740 36553984 37059972 37587576 38136220 38699000 
1413.615 39260916 39800208 40296796 40738632 41127624 41479196 41819672 
1416.991 42179836 42586900 43062280 43618440 44257272 44972960 45752924 
1420.366 46579256 47431996 48292116 49147116 49994436 50847916 51737864 
1423.741 52708380 53802416 55049524 56457848 58015236 59699108 61486752 
1427.116 63364124 65319776 67337240 69388448 71425408 73386392 75212208 
1430.492 76858112 78308448 79577752 80707824 81755048 82777784 83836120 
1433.867 84989640 86303912 87860624 89751496 92061504 94842776 98078320 
1437.242 101685776 105548536 109552736 113601112 117595792 121427464 
1440.135 124937672 127921608 130174160 131499544 131765632 130927760 
1443.028 129022536 126156376 122475256 118160464 113396936 108353784 
1445.921 103196592 98073544 93127136 88512520 84374224 80826624 77927040 
1449.297 75661632 73960768 72729336 71886296 71379440 71190264 71320048 
1452.672 71770232 72526768 73564672 74850008 76357000 78077760 80009768 
1456.047 82141232 84426144 86778960 89095504 91293776 93343032 95252416 
1459.422 97051968 98775480 100450736 102095760 103714520 105297568 106811144 
1462.798 108191032 109354240 110205328 110670680 110730448 110431168 
1465.691 109870008 109150592 108360504 107551608 106745048 105947432 
1468.584 105155712 104357088 103520944 102589640 101477744 100081136 
1471.477 98318464 96172872 93725152 91135128 88583576 86208256 84071248 
1474.852 82180504 80526192 79110264 77962608 77130648 76654360 76553808 
1478.227 76819512 77423192 78332488 79526808 81004832 82779864 84870536 
1481.603 87289048 90035680 93100984 96475800 100160248 104169976 108529016 
1484.978 113250128 118316984 123650152 129082080 134371280 139186688 
1487.871 143140480 145853120 146977136 146285904 143743296 139537552 
1490.764 134055808 127771112 121152688 114546144 108143304 102030296 
1493.657 96208304 90653904 85370400 80400136 75831688 71778512 68336152 
1497.032 65548784 63397364 61824640 60755200 60120724 59870824 59966484 
1500.407 60373628 61058692 61982220 63099900 64367192 65727344 67112768 
1503.783 68438656 69575512 70348808 70541824 69925592 68358328 65877900 
1507.158 62717216 59192148 55566276 51984772 48491724 45090832 41788956 
1510.533 38607804 35597036 32816316 30310228 28104894 26198708 24568858 
1513.908 23183436 22008266 21011124 20158998 19420930 18772188 18197694 
1517.284 17697430 17281378 16959772 16732713 16584493 16483746 16395066 
1520.659 16291268 16169885 16056718 15992017 16005836 16102174 16260961 
1524.034 16450640 16645014 16830590 17012628 17209770 17444218 17729044 
1527.409 18062860 18434164 18830212 19245500 19684136 20157054 20675696 
1530.785 21245580 21864438 22524030 23212864 23923380 24652806 25401796 
1534.160 26168338 26945470 27719688 28476644 29201358 29882810 30515918 
1537.535 31096774 31622418 32087010 32478466 32779366 32974828 33064350 
1540.910 33065208 33006250 32915812 32807846 32679080 32512498 32289442 
1544.286 31999972 31652566 31273212 30896286 30549974 30243366 29966442 
1547.661 29696540 29410320 29093640 28749080 28394112 28053570 27744942 
1551.036 27471086 27221110 26978222 26730222 26475706 26226336 26001066 
1554.411 25816630 25677898 25574880 25485412 25381104 25229692 24997428 
1557.787 24656524 24197914 23650454 23081810 22572714 22176098 21902350 
1561.162 21732116 21633896 21576506 21533850 21489912 21439852 21391466 
1564.537 21361080 21366442 21418722 21516302 21646260 21788656 21925594 
1567.912 22044832 22143322 22227150 22307508 22396076 22499706 22621160 
1571.288 22759862 22914362 23082614 23260124 23439492 23607140 23746648 
1574.663 23843634 23892608 23904756 23907346 23935424 24012806 24145614 
1578.038 24323804 24531306 24754344 24986338 25229446 25491772 25783508 
1581.413 26112386 26482326 26891076 27331400 27790048 28247128 28677150 
1584.789 29046768 29321654 29473682 29486096 29361322 29122266 28813128 
1588.164 28490018 28214738 28048516 28039540 28222306 28614858 29216102 
1591.539 30003010 30925530 31911634 32863096 33668100 34224580 34445404 
1594.914 34281264 33729512 32834682 31678726 30359722 28982546 27634862 
1598.290 26380914 25266390 24315466 23537072 22928056 22476500 22165636 
1601.665 21977872 21900330 21925734 22052466 22280650 22607862 23025240 
1605.040 23517134 24058682 24618228 25159852 25639866 26012534 26234538 
1608.415 26267342 26086770 25686474 25080968 24305302 23410466 22461008 
1611.791 21518392 20632748 19836816 19140464 18536920 18008148 17533804 
1615.166 17094988 16680960 16293470 15944751 15653709 15437596 15304920 
1618.541 15252684 15269157 15335125 15428911 15530375 15621936 15694553 
1621.916 15749522 15798243 15857039 15941141 16058369 16207097 16379926 
1625.292 16568281 16766289 16970832 17179952 17390898 17599840 17802910 
1628.667 17998790 18191128 18387736 18596710 18823604 19066714 19318344 
1632.042 19564852 19791108 19985178 20139180 20252478 20331150 20388202 
1635.417 20438804 20497744 20575872 20676774 20798414 20934622 21076578 
1638.792 21213640 21335536 21436162 21514700 21578038 21637622 21705958 
1642.168 21789770 21887436 21987528 22072406 22123378 22124422 22068746 
1645.543 21960934 21818062 21664718 21526888 21426448 21375562 21377474 
1648.918 21428154 21518218 21632294 21747236 21834124 21854716 21772458 
1652.293 21571874 21283544 20985460 20756982 20636152 20607522 20630002 
1655.669 20662282 20676808 20660614 20611866 20535712 20439218 20327366 
1659.044 20201380 20058564 19894358 19704904 19487252 19241170 18968470 
1662.419 18674184 18367480 18060718 17768082 17501272 17266000 17059940 
1665.794 16872544 16687330 16484400 16245345 15958570 15622485 15247262 
1669.170 14852613 14461885 14095671 13767182 13482208 13239606 13033365 
1672.545 12851999 12680738 12501429 12297787 12062455 11803519 11544805 
1675.920 11316240 11141675 11028316 10968165 10944174 10939348 10943563 
1679.295 10954368 10977271 11019649 11085587 11172067 11268495 11360148 
1682.671 11434641 11488189 11532182 11589348 11684337 11830383 12023177 
1686.046 12249831 12497200 12757403 13026707 13303353 13585714 13868669 
1689.421 14145989 14412251 14665310 14906995 15142091 15375013 15606411 
1692.796 15831506 16039597 16217554 16353572 16443793 16496826 16533928 
1696.172 16580053 16648114 16733402 16814298 16861280 16840992 16727548 
1699.547 16514929 16229454 15925916 15659995 15462386 15328397 15232746 
1702.922 15143737 15035194 14889096 14696705 14459898 14190183 13905274 
1706.297 13622740 13355116 13107805 12879576 12664363 12453961 12241515 
1709.673 12022257 11796369 11567705 11342972 11128859 10929665 10746288 
1713.048 10576195 10415603 10260295 10107417 9955406 9802126 9643548 9475411 
1716.905 9294949 9105662 8919570 8753875 8623563 8536405 8489504 8472543 
1720.763 8472137 8475821 8476935 8474098 8471800 8476091 8492072 8520692 
1724.620 8558235 8598519 8635831 8666590 8689914 8705836 8714017 8712664 
1728.478 8699819 8674533 8639144 8598654 8558910 8522246 8484470 8433251 
1732.335 8349914 8216919 8027528 7796219 7557143 7351930 7207046 7124651 
1736.192 7088647 7075411 7064196 7039579 6994961 6932302 6859923 6788904 
1740.050 6728932 6685827 6661029 6653527 6661298 6682193 6713689 6752018 
1743.907 6793010 6832995 6870190 6904898 6939473 6976173 7015805 7056653 
1747.765 7094675 7125325 7145164 7152743 7149644 7138798 7124045 7108889 
1751.622 7095956 7087670 7085313 7089085 7097269 7105319 7105992 7092251 
1755.479 7057528 7000854 6927488 6848647 6776990 6720957 6682429 6655713 
1759.337 6631355 6598789 6551021 6486979 6411615 6333776 6262741 6205027 
1763.194 6162612 6134181 6116404 6105954 6099602 6093957 6085591 6071915 
1767.052 6051956 6028035 6005559 5990979 5988392 5997395 6011808 6022357 
1770.909 6018527 5994842 5953389 5905322 5865623 5845976 5851081 5877344 
1774.767 5917011 5962458 6008986 6055888 6104072 6154412 6205262 6252051 
1778.624 6289399 6313032 6322446 6322042 6318949 6320395 6329607 6345442 
1782.481 6362791 6376107 6381856 6380410 6375367 6372475 6375669 6386395 
1786.339 6403040 6422779 6443662 6464446 6485129 6505343 6522127 6531006 
1790.196 6525356 6500029 6453919 6391473 6322379 6257228 6204153 6165603 
1794.054 6138180 6116539 6095402 6072217 6046816 6020240 5993767 5967127 
1797.911 5939213 5908949 5875799 5841611 5809003 5781099 5759273 5742822 
1801.769 5729895 5718379 5707770 5699176 5694744 5696289 5703943 5716096 
1805.626 5729526 5741713 5751350 5758904 5766257 5774988 5785632 5796881 
1809.483 5807358 5815786 5822973 5831301 5844163 5863507 5889233 5918824 
1813.341 5949190 5978146 6005391 6032873 6063985 6101215 6144733 6192020 
1817.198 6238606 6280019 6313973 6340466 6362085 6382092 6403410 6426680 
1821.056 6451566 6476250 6498515 6516106 6526903 6528887 6520714 6503022 
1824.913 6478739 6453684 6434482 6426343 6430816 6444772 6460948 6469927 
1828.771 6464883 6443461 6410673 6376812 6354621 6352637 6373618 6414002 
1832.628 6466968 6525591 6584760 6642323 6698614 6754610 6810982 6867497 
1836.485 6924121 6981930 7043553 7113604 7196232 7294173 7407336 7532396 
1840.343 7664439 7798243 7930434 8058616 8182546 8302932 8421460 8540595 
1844.200 8663277 8793095 8932794 9082282 9238895 9397089 9548870 9685729 
1848.058 9801855 9893776 9961204 10006635 10032507 10039967 10028404 9995854 
1851.915 9940998 9864794 9770644 9663943 9549716 9430847 9307574 9178517 
1855.772 9042156 8899176 8752658 8607474 8468050 8336133 8210774 8088995 
1859.630 7968061 7847464 7729127 7617295 7515371 7424492 7342831 7267015 
1863.487 7194143 7124113 7059785 7005534 6965028 6938564 6922337 6909981 
1867.345 6895640 6876687 6855952 6839458 6834207 6843430 6865007 6892812 
1871.202 6918600 6936712 6944557 6943446 6936510 6927219 6917085 6906110 
1875.060 6893082 6876755 6856793 6833971 6808357 6779446 6745355 6703930 
1878.917 6654065 6597039 6535850 6474636 6416289 6361312 6307283 6250639 
1882.774 6188525 6121311 6052662 5987720 5931756 5887487 5853163 5824786 
1886.632 5797888 5769582 5739800 5710994 5686251 5667721 5656139 5650198 
1890.489 5648821 5652212 5661645 5679033 5704716 5736510 5770320 5801750 
1894.347 5828111 5850409 5872945 5901157 5939414 5987653 6042246 6096948 
1898.204 6146447 6187919 6222438 6253732 6285869 6320697 6358084 6395306 
1902.062 6429875 6460544 6488392 6515534 6543385 6571573 6597779 6619108 
1905.919 6633171 6640203 6642154 6641414 6639934 6637141 6630379 6617258 
1909.776 6597174 6571977 6546009 6523842 6508067 6497674 6489670 6480354 
1913.634 6468044 6454121 6441409 6432867 6428664 6425066 6415818 6395037 
1917.491 6361312 6318815 6276624 6243513 6224421 6216589 6212556 6201498 
1921.349 6175350 6132299 6077325 6019568 5968337 5929069 5901258 5880535 
1925.206 5861290 5839864 5816760 5794765 5776364 5762228 5750342 5737450 
1929.063 5721837 5705185 5691623 5686856 5694275 5712269 5735200 5755312 
1932.921 5766929 5768138 5762463 5755076 5750947 5751484 5754103 5754204 
1936.778 5748831 5738121 5726102 5718379 5718044 5724020 5731843 5734763 
1940.636 5728082 5712303 5692462 5676482 5670339 5675140 5686486 5698102 
1944.493 5704111 5703742 5700519 5700418 5707703 5722711 5740807 5755647 
1948.351 5763403 5764545 5764914 5772939 5795437 5834323 5885539 5940724 
1952.208 5991650 6033411 6064926 6088480 6106995 6121075 6128972 6128267 
1956.065 6117816 6099535 6078669 6060827 6048597 6040869 6031663 6015201 
1959.923 5987653 5951037 5911334 5876941 5853398 5842249 5839831 5841644 
1963.780 5844767 5850208 5862164 5884901 5918421 5958058 5994271 6017788 
1967.638 6024104 6015571 5999982 5986880 5982244 5986813 5996824 6006601 
1971.495 6013958 6022088 6037241 6066203 6110087 6163923 6217934 6262808 
1975.353 6294240 6315318 6335053 6362657 6400518 6442351 6475275 6485667 
1979.210 6465186 6415078 6344333 6266068 6192423 6129645 6078937 6039122 
1983.067 6008818 5990172 5986813 6001326 6032604 6075241 6119227 6155387 
1986.925 6179215 6191583 6198809 6208220 6224253 6245765 6268455 6286474 
1990.782 6297164 6303417 6311754 6329338 6360202 6401998 6447429 6488492 
1994.640 6518629 6537128 6547219 6554990 6565384 6579445 6595290 6608881 
1998.497 6618435 6623717 6627957 6634349 6643130 6652248 6656689 6651373 
2002.354 6634887 6609116 6580252 6553509 6532688 6516947 6501475 6481026 
2006.212 6452002 6414070 6370054 6323353 6276053 6226673 6173905 6117110 
2010.069 6059449 6008347 5972872 5960174 5972737 6005828 6050411 6096713 
2013.927 6137777 6170040 6195145 6215648 6234740 6253631 6273599 6297030 
2017.784 6327589 6370289 6428193 6499894 6579445 6656588 6722135 6770730 
2021.642 6802838 6824513 6843194 6863155 6883117 6897290 6898569 6882949 
2025.499 6853292 6817243 6785673 6766658 6762585 6768980 6778773 6784865 
2029.356 6784898 6780658 6776518 6775643 6779548 6785874 6793144 6803510 
2033.214 6822662 6859587 6920216 7004053 7100973 7195895 7272272 7320388 
2037.071 7340371 7341585 7338114 7342663 7362040 7395911 7439357 7485941 
2040.929 7532834 7580778 7631796 7686833 7742922 7792508 7826850 7839975 
2044.786 7830393 7803337 7767209 7731859 7703156 7684202 7673848 7669768 
2048.644 7669768 7671724 7673140 7670948 7661337 7640799 7609068 7569854 
2052.501 7530542 7500437 7486818 7492515 7514292 7544702 7574911 7598345 
2056.358 7613013 7621072 7625456 7628322 7629637 7626940 7618408 7605494 
2060.216 7592681 7586780 7593321 7613317 7643362 7674827 7699008 7710981 
2064.073 7710880 7704573 7698738 7699413 7707203 7718367 7726900 7727879 
2067.931 7719615 7704674 7687271 7671252 7658201 7646701 7634224 7619150 
2071.788 7602560 7587151 7576665 7572551 7573192 7574608 7571742 7561863 
2075.646 7545275 7525485 7506707 7492380 7482267 7473806 7463727 7449468 
2079.503 7431806 7413437 7398371 7388800 7384620 7383138 7381520 7378621 
2083.360 7375892 7376094 7382564 7395877 7413100 7429076 7437536 7435042 
2087.218 7421661 7401169 7379093 7359479 7343842 7330565 7316951 7300878 
2091.075 7283290 7267892 7259131 7260311 7272272 7291679 7314357 7335384 
2094.933 7352099 7363759 7371578 7376633 7378824 7377273 7371241 7361299 
2098.790 7349942 7341315 7338619 7343506 7354626 7368646 7381823 7392473 
2102.647 7401506 7411785 7426851 7447952 7474446 7502999 7530474 7554614 
2106.505 7576530 7598649 7624242 7654761 7689362 7724809 7758135 7787752 
2110.362 7814672 7841965 7873241 7910222 7952470 7996984 8040287 8080152 
2114.220 8116306 8150269 8183964 8218406 8252815 8285539 8315462 8343395 
2118.077 8372140 8406022 8447981 8497512 8550834 8600816 8640158 8664562 
2121.935 8673520 8671085 8664190 8659053 8660202 8669396 8685418 8706242 
2125.792 8730074 8755363 8780585 8803138 8819706 8826604 8821532 8805301 
2129.649 8782106 8758237 8740893 8735280 8743497 8763612 8791946 8824676 
2133.507 8858526 8891464 8922377 8948826 8967734 8975819 8971861 8956403 
2137.364 8934079 8910066 8889063 8873000 8860487 8848009 8832487 8813417 
2141.222 8792317 8773519 8760299 8753537 8750156 8744882 8732137 8709013 
2145.079 8676731 8638839 8600208 8564656 8532755 8503696 8475854 8449501 
2148.937 8426054 8408386 8396631 8388625 8378558 8360318 8328230 8281925 
2152.794 8223369 8158203 8091528 8025706 7961177 7898513 7841189 7797568 
2156.651 7778509 7794836 7849117 7933674 8029587 8114618 8172620 8198821 
2160.509 8201793 8198044 8204932 8232115 8279562 8339578 8401360 8456055 
2164.366 8500283 8534952 8562763 8585744 8602033 8608995 8604332 8588379 
2168.224 8565061 8540764 8519610 8503323 8489775 8474233 8453622 8428217 
2172.081 8401833 8380922 8370688 8372478 8383118 8397273 8409062 8414805 
2175.938 8414839 8410785 8403860 8392982 8374572 8345321 8304621 8256496 
2179.796 8209322 8172383 8152092 8148919 8157764 8169547 8177414 8178765 
2183.653 8176570 8177481 8187745 8209187 8239477 8272166 8301412 8323772 
2187.511 8341267 8358257 8378761 8405211 8435987 8467610 8496127 8520354 
2191.368 8542116 8564149 8588751 8614910 8637791 8651886 8652833 8640192 
2195.226 8618324 8593077 8570941 8554146 8541845 8529478 8513764 8493356 
2199.083 8471699 8454434 8447204 8452981 8471529 8497817 8525963 8551206 
2202.940 8570806 8583716 8590678 8591455 8585609 8573172 8555599 8536370 
2206.798 8520219 8512008 8514171 8525152 8540054 8553605 8561411 8562763 
2210.655 8561242 8561884 8570164 8587501 8612544 8641882 8671626 8699683 
2214.513 8727100 8755025 8785285 8817541 8848618 8874352 8892040 8900529 
2218.370 8901509 8898431 8893866 8889401 8884295 8877126 8867149 8855110 
2222.228 8843849 8836343 8833874 8834923 8835362 8830222 8815716 8791270 
2226.085 8759893 8726728 8697114 8674297 8659018 8650129 8645836 8644518 
2229.942 8645600 8649250 8654388 8659255 8661080 8657667 8648236 8635020 
2233.800 8622414 8614335 8614167 8621974 8635662 8651583 8667097 8681531 
2237.657 8696641 8714423 8736532 8762226 8788632 8812199 8829884 8841110 
2241.515 8847603 8852337 8857951 8866067 8875840 8886629 8897045 8907665 
2245.372 8920246 8936514 8956674 8979404 9000884 9017427 9026391 9027948 
2249.229 9024869 9021892 9023516 9032447 9048956 9071455 9097304 9124476 
2253.087 9151478 9177637 9202207 9224273 9241975 9253923 9259440 9259034 
2256.944 9253889 9245833 9234902 9220584 9201158 9175674 9144236 9109756 
2260.802 9075921 9047908 9029537 9022027 9024970 9036100 9053253 9074466 
2264.659 9098962 9126133 9154964 9184338 9211920 9235781 9255209 9270712 
2268.517 9283947 9296878 9310181 9323249 9333879 9339633 9338381 9330392 
2272.374 9317053 9301617 9286993 9275789 9269967 9270407 9277448 9290818 
2276.231 9310317 9333946 9359642 9384053 9403928 9417032 9422957 9423397 
2280.089 9420621 9417641 9416320 9417032 9418995 9420858 9422043 9422619 
2283.946 9423465 9425395 9429086 9434097 9439380 9443917 9447202 9449708 
2287.804 9452248 9455769 9460849 9466911 9473886 9481269 9489736 9501217 
2291.661 9517202 9539217 9567634 9600729 9636028 9670720 9702263 9729167 
2295.519 9751430 9769559 9783656 9794467 9802161 9807074 9810362 9813548 
2299.376 9818292 9825512 9835205 9845882 9855134 9860659 9860795 9855168 
2303.233 9844830 9831070 9815513 9799347 9783656 9768712 9755733 9745534 
2307.091 9739366 9738113 9741772 9749362 9759562 9770813 9781793 9792231 
2310.948 9802194 9811785 9820903 9829138 9835883 9840662 9843542 9845847 
2314.806 9848864 9854016 9862218 9873438 9887098 9902047 9917607 9932895 
2318.663 9947575 9961068 9972425 9980630 9984936 9984530 9979138 9969103 
2322.521 9954118 9934082 9908251 9876557 9839340 9798466 9757733 9721001 
2326.378 9692878 9676174 9671669 9677733 9691183 9708531 9726794 9744483 
2330.235 9761731 9779082 9797145 9815955 9834833 9853372 9871404 9889912 
2334.093 9910353 9934082 9961780 9992836 10025488 10057328 10086221 10110774 
2337.950 10130140 10144725 10155205 10162768 10168433 10173894 10180848 
2341.325 10190480 10203540 10218839 10234071 10245809 10250796 10247912 
2344.701 10238956 10228779 10224606 10234207 10263416 10314682 10387401 
2348.076 10477545 10579691 10687364 10794927 10897455 10991476 11075390 
2351.451 11149221 11215008 11275194 11332905 11390113 11447296 11503397 
2354.826 11556612 11604900 11648157 11687434 11725524 11765933 11812098 
2358.202 11866136 11928353 11998311 12073901 12153083 12234085 12315103 
2361.577 12394873 12472102 12546138 12616571 12684013 12748906 12811967 
2364.952 12873296 12931629 12985362 13032750 13072018 13102613 13125016 
2368.327 13140077 13148854 13151791 13148308 13137959 13120542 13096979 
2371.703 13069320 13041082 13015918 12997380 12988128 12990313 13005198 
2375.078 13034014 13077925 13137652 13214022 13307009 13416453 13541342 
2378.453 13680764 13833811 13999436 14175976 14361938 14554352 14750347 
2381.828 14946569 15139895 15328157 15509290 15681533 15843052 15991570 
2385.204 16124079 16238259 16331965 16404632 16456526 16489288 16504638 
2388.579 16504500 16490011 16462374 16422285 16370637 16308777 16237812 
2391.954 16159292 16074426 15984042 15889207 15791062 15691116 15591161 
2395.329 15493152 15398871 15310343 15229554 15158765 15101263 15060098 
2398.705 15038488 15038624 15060715 15103185 15162677 15235697 15318821 
2402.080 15410269 15509702 15618054 15736431 15865872 16006559 16158020 
2405.455 16319511 16490733 16671905 16863072 17064766 17276860 17499030 
2408.830 17731286 17973612 18226512 18490378 18764922 19048054 19335492 
2412.206 19621942 19900636 20164968 20410254 20632782 20830498 21002640 
2415.581 21148200 21266806 21358158 21422830 21462060 21477762 21472504 
2418.956 21448554 21408036 21352450 21283440 21202820 21113030 21017070 
2422.331 20917724 20817426 20717988 20620690 20526888 20438490 20358860 
2425.707 20291744 20241404 20211272 20203498 20218596 20256296 20315872 
2429.082 20396954 20499724 20624930 20772832 20943072 21134530 21344862 
2432.457 21571908 21813706 22068990 22337018 22617634 22910486 23215872 
2435.832 23534554 23867612 24217288 24585688 24975142 25386864 25821098 
2439.208 26277058 26753622 27249722 27765604 28301374 28857954 29436202 
2442.583 30036030 30657026 31298422 31959314 32639180 33337534 34053496 
2445.958 34785792 35532448 36290804 37058420 37832492 38610700 39390016 
2449.333 40167532 40939528 41702136 42451620 43185560 43901976 44600116 
2452.708 45278084 45933432 46561736 47157004 47711784 48219132 48671444 
2456.084 49062156 49384832 49632376 49797888 49875300 49859096 49745908 
2459.459 49535284 49228308 48827952 48338260 47763560 47108736 46378792 
2462.834 45580516 44721668 43811440 42860656 41880128 40881352 39875528 
2466.209 38873228 37884260 36918612 35984364 35089948 34242792 33448708 
2469.585 32712948 32039386 31430058 30885932 30405636 29986822 29624240 
2472.960 29311836 29042164 28808204 28603392 28423152 28263960 28123206 
2476.335 27998930 27888224 27787116 27691470 27597154 27500914 27401098 
2479.710 27297140 27189680 27079424 26966940 26852406 26735826 26617900 
2483.086 26499478 26382250 26267906 26157708 26052394 25952172 25856192 
2486.461 25764064 25675122 25589218 25506214 25425790 25347382 25270534 
2489.836 25194508 25119338 25045550 24973878 24905132 24839974 24777566 
2493.211 24717196 24657012 24595646 24531588 24464104 24392214 24315324 
2496.587 24232912 24144528 24050276 23950620 23846260 23738320 23627854 
2499.962 23515244 23400254 23282986 23163164 23041314 22918588 22796562 
2503.337 22676908 22561056 22449772 22343506 22242808 22147748 22059160 
2506.712 21977246 21901828 21831684 21765246 21699828 21632990 21563134 
2510.088 21489216 21411168 21328888 21242728 21152480 21057970 20959206 
2513.463 20856430 20750518 20642546 20533246 20423314 20312680 20201344 
2516.838 20090106 19979768 19872922 19771998 19679768 19597678 19526484 
2520.213 19465976 19415178 19373184 19339372 19313424 19295066 19284016 
2523.589 19279200 19280034 19285748 19296208 19311796 19332964 19359846 
2526.964 19391686 19426750 19463134 19498378 19531058 19560520 19586654 
2530.339 19609636 19629636 19646764 19660770 19672072 19681708 19690930 
2533.714 19701922 19715548 19732330 19751956 19773004 19794714 19816458 
2537.090 19838758 19862482 19888842 19918570 19952256 19989654 20031222 
2540.465 20077372 20129254 20187600 20252374 20322192 20394800 20467006 
2543.840 20535990 20600294 20659712 20715556 20769424 20822606 20875656 
2547.215 20928086 20979166 21027992 21074458 21118562 21160932 21201568 
2550.591 21239980 21275890 21308566 21338598 21366826 21394774 21423422 
2553.966 21453428 21484202 21514144 21541824 21565676 21585628 21601752 
2557.341 21614672 21624352 21630238 21630900 21623900 21607706 21580510 
2560.716 21542034 21492314 21432124 21362648 21285248 21201810 21114492 
2564.092 21025938 20938726 20854866 20775578 20701028 20630696 20563850 
2567.467 20500488 20441164 20387474 20340838 20302888 20274384 20255150 
2570.842 20244668 20242168 20247236 20259976 20280252 20307992 20342576 
2574.217 20382646 20426890 20473986 20522998 20573684 20625658 20679310 
2577.593 20734600 20791462 20849408 20908476 20968768 21030704 21094492 
2580.968 21160896 21230062 21302162 21377440 21455830 21537542 21622506 
2584.343 21710590 21801408 21894476 21989060 22084644 22181188 22278348 
2587.718 22375982 22473814 22571004 22666924 22760700 22851740 22939932 
2591.094 23025208 23107772 23187698 23265018 23339834 23412494 23483906 
2594.469 23555156 23627608 23702310 23779616 23859176 23940360 24022542 
2597.844 24105578 24190138 24277340 24368906 24465858 24568928 24678266 
2601.219 24793842 24915414 25043196 25177550 25318756 25466826 25621622 
2604.594 25782382 25948408 26119282 26294624 26474226 26657850 26844724 
2607.970 27033722 27223438 27412002 27598318 27781182 27959562 28132292 
2611.345 28297590 28453082 28596314 28724830 28836780 28931614 29009432 
2614.720 29071214 29117910 29150792 29170778 29178644 29175348 29162132 
2618.095 29140126 29110610 29074756 29033448 28987932 28939158 28888726 
2621.471 28838478 28789972 28744726 28703520 28666320 28632908 28603108 
2624.846 28577170 28555938 28540792 28533184 28534174 28543906 28562200 
2628.221 28588068 28620698 28659772 28705080 28756798 28815038 28879308 
2631.596 28948826 29022254 29098458 29176342 29255230 29335410 29416808 
2634.972 29499926 29585470 29673444 29764382 29858212 29955082 30054636 
2638.347 30156556 30260100 30364342 30469144 30573792 30678324 30782986 
2641.722 30888068 30993564 31099192 31204422 31308644 31411678 31513420 
2645.097 31614006 31714298 31815004 31917088 32021232 32128394 32239724 
2648.473 32355580 32476932 32603994 32736528 32874030 33015582 33160828 
2651.848 33309020 33459980 33614396 33772736 33935756 34104208 34278540 
2655.223 34459648 34647648 34842944 35045408 35255080 35471572 35694656 
2658.598 35923932 36159160 36400176 36646628 36898156 37153696 37412276 
2661.974 37672704 37933904 38194612 38454392 38712984 38970172 39226100 
2665.349 39480652 39734556 39988176 40242592 40498980 40758284 41021276 
2668.724 41288324 41559112 41833536 42111232 42392252 42677108 42965880 
2672.099 43258984 43556056 43855716 44156832 44457196 44755128 45049000 
2675.475 45337224 45618976 45892956 46159184 46417580 46669044 46915780 
2678.850 47159924 47404720 47652876 47907200 48169856 48443192 48729340 
2682.225 49030848 49349976 49688952 50049088 50431108 50834916 51259644 
2685.600 51704684 52169196 52652496 53153560 53671136 54202696 54746104 
2688.976 55298848 55859384 56427320 57003444 57589528 58187084 58797188 
2692.351 59420196 60055772 60703108 61362092 62032668 62715420 63410864 
2695.726 64118824 64838640 65569012 66308804 67056508 67811688 68573896 
2699.101 69343048 70118304 70898656 71682208 72467256 73251408 74032976 
2702.477 74809816 75579600 76339536 77086168 77815880 78524368 79208112 
2705.852 79862832 80484680 81069640 81613328 82111208 82559576 82955016 
2709.227 83295472 83579952 83808152 83980712 84098320 84161976 84172720 
2712.602 84131896 84040496 83899424 83709344 83469752 83180208 82839848 
2715.978 82448312 82005784 81514016 80975240 80393000 79770968 79113720 
2719.353 78425760 77712328 76979024 76231864 75478032 74724328 73978128 
2722.728 73246632 72536400 71853064 71202064 70586608 70009512 69472376 
2726.103 68976376 68522296 68111168 67743752 67421512 67145448 66915936 
2729.479 66732952 66595232 66501036 66447556 66432304 66452460 66505708 
2732.854 66589900 66703164 66843392 67008868 67197888 67408856 67640328 
2736.229 67891104 68159192 68442264 68736704 69037896 69341016 69640856 
2739.604 69932712 70213288 70480048 70731800 70968760 71191400 71401160 
2742.979 71599912 71789928 71973880 72153960 72332288 72510480 72689448 
2746.355 72869912 73052216 73236624 73423320 73612120 73802944 73994944 
2749.730 74187032 74378024 74567016 74753608 74938192 75122072 75307168 
2753.105 75496640 75693816 75902480 76126440 76368968 76632344 76917432 
2756.480 77223456 77547904 77886840 78236152 78590784 78946304 79298112 
2759.856 79641312 79970520 80280576 80565328 80819088 81037136 81215384 
2763.231 81350672 81440704 81484152 81479392 81426240 81325136 81178352 
2766.606 80989456 80763928 80507496 80226928 79928976 79619424 79304112 
2769.981 78988632 78677712 78375952 78086800 77812992 77555832 77316248 
2773.357 77094280 76889712 76702672 76532864 76379600 76241304 76115192 
2776.732 75996840 75881008 75760872 75629128 75478744 75302600 75093984 
2780.107 74848512 74562568 74235464 73868768 73466400 73034296 72579160 
2783.482 72108544 71629496 71148272 70670312 70199888 69739976 69292168 
2786.858 68856936 68433416 68019936 67614976 67216728 66824412 66437596 
2790.233 66056864 65682940 65316580 64959064 64611160 64274124 63949340 
2793.608 63638144 63341504 63059480 62791416 62535532 62288976 62048832 
2796.983 61812336 61577268 61342248 61106212 60868360 60627820 60383640 
2800.359 60134616 59879760 59618404 59349912 59074372 58791232 58500012 
2803.734 58200080 57891420 57573976 57248980 56918824 56586464 56255188 
2807.109 55928344 55608308 55297344 54996456 54706340 54427684 54161176 
2810.484 53907400 53667536 53442116 53231496 53035428 52853220 52683692 
2813.860 52525896 52378740 52241948 52115396 52000384 51898472 51812000 
2817.235 51743876 51696920 51674152 51677888 51710280 51772876 51867036 
2820.610 51993512 52152868 52345808 52572084 52830992 53121092 53439716 
2823.985 53782804 54145712 54522792 54907336 55293164 55673688 56042444 
2827.361 56393856 56722628 57023244 57291660 57523780 57716020 57866584 
2830.736 57974456 58039816 58064660 58051704 58004936 57928484 57827560 
2834.111 57707576 57574580 57435160 57295896 57162756 57040848 56933704 
2837.486 56843356 56771000 56717116 56682948 56670792 56684044 56728144 
2840.862 56809592 56935100 57112760 57351400 57659976 58049320 58530872 
2844.237 59115792 59815036 60635740 61579444 62638632 63793576 65011784 
2847.612 66243960 67429680 68500728 69383200 70012632 70338528 70330344 
2850.987 69983440 69317976 68376712 67214480 65896140 64488484 63050128 
2854.363 61634736 60285148 59031288 57893312 56880860 55994644 55227916 
2857.738 54568624 54002848 53513768 53085780 52704268 52355192 52026976 
2861.113 51709536 51394936 51077848 50755284 50427160 50095156 49762624 
2864.488 49433580 49112056 48802372 48508836 48235908 47987716 47768812 
2867.864 47582516 47431220 47315852 47235944 47189472 47173440 47184228 
2871.239 47217436 47268044 47330632 47399620 47470064 47538260 47602292 
2874.614 47662676 47721952 47784124 47853480 47933840 48028312 48138612 
2877.989 48265752 48410112 48572048 48751140 48946728 49157764 49381864 
2881.365 49616808 49860172 50109844 50364052 50621872 50882336 51144860 
2884.740 51408588 51672696 51936632 52200020 52462744 52724620 52985152 
2888.115 53243668 53498556 53748340 53991780 54227996 54457320 54680896 
2891.490 54900004 55116592 55331628 55546172 55760480 55974216 56187076 
2894.865 56398572 56608468 56817184 57026116 57237224 57453124 57676588 
2898.241 57909708 58153404 58407060 58668748 58935644 59204792 59474296 
2901.616 59743664 60013692 60286212 60563704 60848728 61143704 61451400 
2904.991 61775208 62118976 62487740 62887104 63323140 63802444 64331724 
2908.366 64918204 65570444 66296956 67107276 68009512 69008816 70105568 
2911.742 71292712 72555704 73869592 75200584 76509264 77749376 78874232 
2915.117 79842520 80618976 81181344 81521368 81644952 81569936 81321016 
2918.492 80928496 80420280 79820024 79146280 78409688 77615416 76764224 
2921.867 75855200 74887368 73862720 72786608 71668920 70523072 69364264 
2925.243 68208304 67069880 65960160 64887612 63857520 62872208 61933184 
2928.618 61040844 60196496 59401616 58658624 57970100 57339036 56767792 
2931.993 56258848 55813980 55434880 55122948 54879440 54705136 54600108 
2935.368 54563100 54591464 54679880 54820864 55005068 55220992 55456788 
2938.744 55701936 55946964 56185792 56415020 56633988 56843736 57045572 
2942.119 57240360 57426840 57601636 57758672 57889640 57984976 58034132 
2945.494 58028340 57961500 57832288 57644728 57408988 57140384 56856576 
2948.869 56576724 56317724 56091984 55906864 55764136 55660320 55588080 
2952.245 55538264 55500872 55465820 55424412 55369380 55294448 55195368 
2955.620 55069308 54914860 54732232 54522900 54289716 54036056 53766116 
2958.995 53484128 53193856 52898352 52600356 52301332 52002964 51706920 
2962.370 51415152 51130548 50856408 50596144 50352964 50129368 49926520 
2965.746 49744644 49583196 49440932 49316232 49207488 49112648 49029104 
2969.121 48953772 48882348 48810156 48732488 48645240 48545148 48431376 
2972.496 48304596 48168264 48026940 47887040 47755088 47637048 47536932 
2975.871 47455724 47390420 47333144 47271628 47190468 47071660 46899056 
2979.247 46659120 46343696 45951332 45487792 44965608 44400492 43811992 
2982.622 43219744 42640920 42090496 41579640 41114948 40699804 40334752 
2985.997 40018512 39749520 39526340 39348080 39213480 39118944 39056840 
2989.372 39012328 38964664 38887216 38749788 38526364 38198088 37758428 
2992.748 37215096 36589488 35912916 35218784 34539212 33898672 33310558 
2996.123 32779008 32299578 31863566 31460512 31081290 30719680 30372018 
2999.498 30036564 29712862 29400676 29099414 28808170 28526000 28251442 
3002.873 27983380 27721242 27464452 27213350 26968528 26730998 26501732 
3006.249 26281740 26071042 25869802 25677300 25492650 25315138 25144228 
3009.624 24979284 24819768 24665326 24515110 24368696 24225696 24086280 
3012.999 23951110 23821338 23697762 23581182 23471946 23369624 23273862 
3016.374 23184380 23100994 23023668 22952506 22886944 22825720 22767056 
3019.750 22708676 22648214 22584266 22515584 22441678 22362274 22277336 
3023.125 22186384 22089732 21987980 21882662 21776360 21672414 21574346 
3026.500 21485108 21406748 21339296 21281666 21231036 21183928 21136302 
3029.875 21083918 21023018 20950444 20864150 20763412 20648662 20521816 
3033.250 20385182 20241542 20093958 19944728 19796378 19651234 19511302 
3036.626 19378658 19254678 19140326 19035418 18939604 18851806 18771254 
3040.001 18697740 18631260 18572086 18520184 18474888 18434786 18397934 
3043.376 18362366 18326902 18290510 18253534 18215972 18178034 18139616 
3046.751 18099992 18059094 18016680 17973372 17930274 17888358 17847688 
3050.127 17807916 17767288 17723902 17675514 17620888 17559438 17491580 
3053.502 17418384 17340756 17259932 17176746 17092542 17008424 16926010 
3056.877 16846538 16770836 16699450 16632002 16567798 16506530 16448060 
3060.252 16392486 16340636 16292471 16248029 16206238 16165964 16126141 
3063.628 16086357 16046714 16008174 15971906 15938805 15909005 15882540 
3067.003 15858347 15835492 15813122 15790787 15768109 15745088 15721247 
3070.378 15696544 15670437 15642889 15613589 15583400 15552903 15523095 
3073.753 15495555 15471691 15452772 15439725 15432824 15431486 15433718 
3077.129 15437323 15439279 15437356 15430112 15417272 15399626 15378754 
3080.504 15356098 15332825 15309348 15285425 15260646 15234668 15207318 
3083.879 15178906 15149878 15120922 15092446 15064832 15038693 15014237 
3087.254 14991839 14971673 14953497 14937001 14921535 14906550 14891633 
3090.630 14877369 14864168 14852853 14844041 14837665 14833481 14830979 
3094.005 14829745 14829676 14831082 14834647 14841127 14851173 14864751 
3097.380 14881312 14900377 14920507 14940877 14960287 14977812 14992801 
3100.755 15005114 15014957 15023463 15032073 15042226 15054781 15070423 
3104.131 15088639 15108468 15128847 15148986 15168681 15188513 15208725 
3107.506 15229829 15251758 15273687 15294349 15312505 15327128 15338351 
3110.881 15346795 15354176 15362036 15372643 15387096 15406217 15429494 
3114.256 15455657 15482198 15506818 15526941 15540986 15548678 15551048 
3117.632 15550190 15548232 15547477 15548335 15551048 15554207 15556302 
3121.007 15556062 15552799 15546618 15538067 15527937 15516845 15505479 
3124.382 15494319 15484327 15476498 15471932 15471244 15474644 15481340 
3127.757 15489855 15498302 15505066 15508913 15509737 15508123 15505135 
3131.133 15502114 15500431 15501083 15504895 15512552 15524296 15540059 
3134.508 15559531 15582060 15606857 15633306 15660750 15688540 15716195 
3137.883 15742788 15767250 15788691 15806112 15819719 15830269 15840098 
3141.258 15850991 15865289 15884396 15908558 15936879 15967954 16000096 
3144.634 16032033 16062941 16092753 16121740 16150454 16179170 16208714 
3148.009 16239669 16272830 16308777 16348066 16390352 16435120 16481200 
3151.384 16527181 16571654 16613962 16653484 16690360 16725035 16758231 
3154.759 16791018 16824874 16860902 16900032 16942786 16988920 17037162 
3158.135 17086512 17135522 17183950 17232214 17281962 17334652 17392242 
3161.510 17455186 17523452 17595942 17671270 17747992 17825730 17904240 
3164.885 17983456 18063548 18144106 18223990 18302296 18377886 18450136 
3168.260 18518730 18583708 18645130 18703034 18757138 18807340 18853742 
3171.635 18896482 18935694 18971898 19005474 19036318 19064186 19088908 
3175.011 19110062 19127444 19141226 19151094 19157674 19161378 19163110 
3178.386 19164080 19165986 19170278 19178244 19190398 19206536 19225828 
3181.761 19247232 19269952 19293404 19317756 19343218 19370412 19399274 
3185.136 19429868 19462094 19495778 19531232 19568734 19608560 19650992 
3188.512 19695196 19740930 19787362 19833868 19880658 19928076 19976852 
3191.887 20027300 20079732 20133524 20188224 20243522 20298930 20354866 
3195.262 20411714 20469610 20528522 20587822 20646924 20705198 20762718 
3198.637 20819582 20876388 20933336 20990988 21048996 21107536 21166534 
3202.013 21226374 21287720 21350746 21415762 21482462 21550008 21617840 
3205.388 21685476 21753052 21820570 21888446 21956472 22023848 22089664 
3208.763 22153050 22213864 22272976 22331924 22392204 22455286 22521062 
3212.138 22588734 22656976 22724528 22790974 22856698 22923096 22991318 
3215.514 23061894 23134508 23207796 23280366 23350848 23419068 23485550 
3218.889 23551832 23619106 23688454 23759948 23833202 23907206 23981466 
3222.264 24055180 24128274 24200892 24273626 24346582 24420498 24495444 
3225.639 24571524 24648702 24726562 24804366 24881446 24957068 25030596 
3229.015 25102312 25172528 25241774 25310924 25380366 25450734 25522238 
3232.390 25594910 25668934 25743990 25819690 25895158 25969266 26041382 
3235.765 26111048 26178684 26245520 26312964 26382144 26453836 26527372 
3239.140 26601766 26675748 26748228 26819204 26889242 26959078 27029492 
3242.516 27100586 27171796 27242242 27311536 27379674 27448144 27518494 
3245.891 27592562 27671554 27755608 27843426 27933590 28024236 28113874 
3249.266 28202080 28288818 28374834 28460796 28547372 28635172 28724194 
3252.641 28814862 28907108 29000824 29095766 29191366 29286704 29381354 
3256.017 29474604 29565538 29654252 29740396 29824106 29905776 29985756 
3259.392 30064934 30144054 30224114 30305574 30389146 30474510 30561528 
3262.767 30649344 30737178 30824284 30909556 30992532 31072394 31149384 
3266.142 31223788 31296782 31369862 31444948 31522930 31604208 31688244 
3269.518 31773682 31858750 31942088 32022800 32100886 32177490 32253538 
3272.893 32330166 32407668 32486182 32565064 32643392 32720200 32794588 
3276.268 32866310 32935080 33001498 33066708 33132434 33200346 33272136 
3279.643 33348552 33429242 33513058 33598072 33682568 33765680 33847736 
3283.019 33929844 34013288 34099300 34187728 34277460 34366536 34453008 
3286.394 34535912 34615388 34692432 34769100 34846856 34927140 35010064 
3289.769 35096052 35184468 35275596 35369696 35466720 35566716 35669184 
3293.144 35772540 35875848 35977992 36079044 36179616 36281112 36384936 
3296.520 36492064 36602756 36716176 36830956 36945736 37059068 37170368 
3299.895 37279896 37388620 37497912 37609616 37725320 37846376 37973716 
3303.270 38107464 38247112 38392092 38541356 38694040 38849496 39007360 
3306.645 39167424 39329616 39494008 39660496 39829224 40000232 40173384 
3310.021 40349008 40527204 40707772 40891000 41077216 41266536 41459840 
3313.396 41657716 41861008 42069836 42284464 42504564 42730116 42960764 
3316.771 43196872 43438676 43686368 43939992 44198720 44461856 44728460 
3320.146 44997804 45269664 45543792 45820116 46098056 46376728 46654472 
3323.521 46930324 47203360 47473576 47741888 48009548 48277452 48545852 
3326.897 48814344 49081744 49346784 49608156 49864672 50115756 50360516 
3330.272 50597968 50827540 51048888 51261920 51467412 51666352 51859080 
3333.647 52045128 52223000 52390216 52543700 52682044 52804236 52911560 
3337.022 53005888 53089304 53163072 53227860 53282436 53325588 53355900 
3340.398 53372236 53373544 53359308 53328212 53279252 53211192 53123192 
3343.773 53015360 52888844 52745496 52587156 52415376 52230812 52032992 
3347.148 51821636 51595788 51355252 51100280 50831676 50550392 50257760 
3350.523 49954916 49643072 49323468 48997056 48663992 48324556 47978280 
3353.899 47624404 47262872 46894704 46521644 46146920 45774388 45406852 
3357.274 45046540 44694160 44348820 44009144 43673472 43340584 43009888 
3360.649 42681824 42357148 42036692 41721580 41412600 41110468 40815500 
3364.024 40527860 40246920 39971900 39701916 39435840 39173696 38915480 
3367.400 38662128 38414824 38174424 37941388 37715420 37495888 37281664 
3370.775 37072276 36867172 36665988 36468608 36274844 36084016 35895788 
3374.150 35709584 35525580 35344136 35166036 34991712 34821688 34656292 
3377.525 34495192 34338136 34184824 34034756 33887392 33741292 33595316 
3380.901 33447348 33296428 33141874 32984410 32825678 32667648 32512390 
3384.276 32361648 32215528 32073882 31935812 31800602 31667534 31536468 
3387.651 31406976 31278588 31150630 31022140 30891838 30759478 30624776 
3391.026 30488408 30351338 30214524 30079208 29946278 29816654 29690686 
3394.402 29568692 29450458 29335230 29222234 29110504 28999018 28888160 
3397.777 28778360 28670496 28564960 28461502 28358812 28255472 28149544 
3401.152 28040280 27927936 27814104 27700264 27587972 27477758 27368878 
3404.527 27260234 27150808 27040386 26929854 26820722 26714014 26610362 
3407.903 26508846 26407778 26305254 26200292 26093032 25984814 25878066 
3411.278 25774578 25675156 25579870 25487134 25395400 25303196 25210028 
3414.653 25115828 25020698 24924818 24827768 24729228 24629028 24527206 
3418.028 24424528 24322648 24222612 24125824 24032836 23943548 23857180 
3421.404 23772898 23689748 23606722 23523464 23439176 23353994 23267920 
3424.779 23181408 23095052 23009728 22925678 22842728 22760736 22678724 
3428.154 22596728 22514712 22433442 22353692 22276116 22200506 22126098 
3431.529 22051490 21975434 21897438 21817852 21738072 21660434 21586638 
3434.905 21517800 21453566 21392860 21333830 21274706 21214336 21152096 
3438.280 21087570 21021036 20952356 20881358 20807660 20731646 20653212 
3441.655 20573612 20493404 20413762 20335074 20257060 20178818 20098992 
3445.030 20015920 19928458 19836158 19739992 19641668 19544092 19450832 
3448.406 19364142 19286060 19216476 19153934 19095450 19038050 18978822 
3451.781 18915308 18846718 18773158 18695112 18613380 18529104 18442944 
3455.156 18355834 18268358 18182318 18098714 18019028 17943778 17872820 
3458.531 17805224 17739364 17673478 17605878 17535424 17461500 17384516 
3461.906 17304928 17224214 17143518 17064352 16987334 16912746 16840304 
3465.282 16769286 16698658 16628008 16557058 16486121 16415507 16345762 
3468.657 16276751 16207786 16137937 16066346 15992189 15915776 15837761 
3472.032 15759142 15680915 15604213 15529001 15455759 15384521 15315251 
3475.407 15248085 15183127 15119652 15057353 14994858 14931479 14866774 
3478.783 14800843 14734100 14667161 14600644 14534103 14467468 14400640 
3482.158 14333923 14268245 14204904 14145201 14089135 14036018 13983764 
3485.533 13929565 13871235 13807233 13737394 13663154 13586671 13510646 
3488.908 13436821 13366494 13299800 13236498 13175562 13116171 13057471 
3492.284 12998711 12939071 12878620 12817223 12755253 12693327 12632160 
3495.659 12571820 12512409 12453688 12395590 12338147 12282006 12227474 
3499.034 12175266 12125381 12076797 12028150 11978011 11924675 11867940 
3502.409 11808115 11747345 11687638 11631004 11578731 11530956 11487100 
3505.785 11445696 11404604 11361849 11315390 11263598 11205862 11142728 
3509.160 11075526 11006837 10939995 10877817 10822306 10774139 10732431 
3512.535 10695820 10661827 10628074 10592899 10555281 10514239 10469636 
3515.910 10421848 10371655 10321028 10272441 10228914 10192923 10166601 
3519.286 10149303 10139298 10133193 10126748 10116099 10098803 10073707 
3522.661 10041493 10004058 9963170 9920420 9876793 9831917 9785521 9736791 
3526.518 9685491 9631996 9577932 9525161 9475783 9431423 9392450 9358694 
3530.376 9328800 9300974 9273386 9244717 9214391 9182408 9149211 9114899 
3534.233 9079169 9041344 9000613 8956166 8908409 8858154 8807432 8758440 
3538.091 8713611 8674669 8642592 8618256 8601425 8591421 8587196 8586858 
3541.948 8587974 8587433 8582499 8570299 8549415 8519272 8480989 8436393 
3545.805 8388286 8339241 8291821 8247986 8208647 8173937 8142639 8112694 
3549.663 8081536 8046194 8004814 7957060 7904891 7851918 7802392 7760698 
3553.520 7728891 7707102 7692870 7682347 7671555 7657661 7638911 7615509 
3557.378 7588871 7560717 7533070 7507179 7483885 7463255 7445525 7430020 
3561.235 7416672 7405112 7395068 7386306 7378554 7371038 7361804 7348358 
3565.093 7326522 7292656 7243599 7179119 7101883 7018633 6936645 6863424 
3568.950 6803241 6756763 6721563 6693297 6667860 6642154 6614937 6586274 
3572.807 6557311 6529425 6503123 6478268 6453684 6428664 6402367 6374761 
3576.665 6346048 6315957 6284759 6251883 6217463 6182172 6147456 6115766 
3580.522 6089253 6069832 6058273 6054107 6055955 6061667 6069462 6077123 
3584.380 6082029 6081659 6072721 6051789 6016679 5967228 5906262 5839730 
3588.237 5775256 5719185 5675811 5645330 5624855 5610153 5596224 5579879 
3592.094 5559137 5534605 5507289 5479102 5450951 5423371 5395995 5368084 
3595.952 5339268 5310053 5280940 5252969 5226609 5201794 5178120 5155185 
3599.809 5133391 5113912 5098557 5088902 5086455 5091584 5103385 5120215 
3603.667 5139795 5160315 5179629 5195792 5206287 5208903 5200620 5179662 
3607.524 5145260 5098859 5044317 4987435 4933041 4884517 4842700 4805309 
3611.382 4769162 4730404 4687128 4639570 4590945 4545239 4507004 4479083 
3615.239 4462043 4454042 4451632 4450025 4444066 4429271 4402492 4363165 
3619.096 4313936 4259960 4208501 4166080 4138047 4126439 4130855 4148751 
3622.954 4176651 4212047 4252733 4297438 4345661 4395196 4442527 4481326 
3626.811 4502953 4498533 4461608 4392284 4300550 4203549 4120820 4064828 
3630.669 4038641 4035899 4045932 4057236 4060280 4050246 4027070 3995300 
3634.526 3961828 3933440 3914516 3906091 3906057 3910604 3915553 3917893 
3638.384 3916154 3910136 3900775 3889508 3877907 3867544 3860490 3858752 
3642.241 3864702 3880615 3907228 3944374 3989916 4040313 4091284 4138247 
3646.098 4177454 4205021 4218505 4215527 4194884 4155743 4099412 4029645 
3649.956 3953669 3881184 3822381 3785346 3774316 3788388 3822749 3868948 
3653.813 3917525 3958885 3984532 3990017 3975771 3948954 3919999 3901176 
3657.671 3901076 3922373 3961694 4010616 4058239 4093726 4109179 4101820 
3661.528 4074828 4036634 3997507 3968315 3956946 3966743 3998042 4048440 
3665.385 4114632 4193479 4282513 4379666 4482932 4592151 4709971 4845113 
3669.243 5012808 5234088 5531115 5918219 6399308 6967822 7611597 8315057 
3673.100 9058294 9814700 10534369 11142762 11550011 11670620 11464510 
3676.476 10954062 10211647 9325449 8376464 7433222 6546345 5757326 5097484 
3680.333 4580464 4203717 3947751 3785279 3687692 3631923 3604793 3599113 
3684.190 3611910 3639441 3675929 3712755 3740928 3752090 3741329 3707508 
3688.048 3653976 3587053 3513860 3440513 3371152 3308546 3254261 3209229 
3691.905 3173815 3147214 3127890 3113407 3101693 3091782 3083573 3077833 
3695.763 3075864 3078367 3085642 3097021 3111171 3126756 3142275 3155692 
3699.620 3164670 3167040 3160464 3144544 3120415 3092049 3063785 3040694 
3703.478 3026280 3021675 3026614 3039693 3058946 3083172 3110870 3141073 
3707.335 3171979 3201385 3226153 3243679 3251624 3248252 3233264 3207093 
3711.192 3171078 3127724 3080503 3034421 2994951 2967260 2954149 2956218 
3715.050 2971197 2994283 3019974 3043297 3060548 3070759 3074997 3075464 
3718.907 3074730 3074062 3073095 3070926 3066654 3060448 3053574 3048135 
3722.765 3046400 3049136 3056277 3065920 3075764 3084407 3090647 3095319 
3726.622 3099891 3106699 3117478 3133397 3154190 3178855 3205024 3229492 
3730.479 3250088 3264510 3272622 3276695 3279132 3283239 3288714 3292420 
3734.337 3288380 3270419 3234699 3183127 3123285 3067188 3026013 3006828 
3738.194 3011433 3037257 3079535 3133197 3194710 3260905 3328412 3392657 
3742.052 3446024 3477853 3477987 3440613 3369916 3283973 3209396 3168475 
3745.909 3169710 3207494 3267481 3332619 3387013 3418972 3422846 3399636 
3749.767 3355224 3298863 3239940 3184562 3137335 3102260 3082538 3080736 
3753.624 3097555 3130360 3174049 3222214 3268282 3307310 3336158 3354055 
3757.481 3361601 3360099 3350416 3333687 3311450 3286744 3264744 3250789 
3761.339 3249154 3261172 3284541 3313521 3340465 3359097 3364006 3354456 
3765.196 3333253 3306242 3280234 3259970 3247384 3241576 3239339 3236635 
3769.054 3229892 3216940 3198114 3175818 3154357 3138403 3131495 3136000 
3772.911 3151820 3176786 3207661 3240708 3272923 3302202 3327944 3349581 
3776.769 3367312 3380168 3387180 3387214 3380335 3368213 3353621 3339931 
3780.626 3329146 3321166 3313754 3303738 3288347 3266647 3239773 3211466 
3784.483 3185497 3165104 3151419 3143243 3138170 3133698 3128758 3123485 
3788.341 3119480 3118112 3120582 3127323 3138237 3153188 3172747 3197647 
3792.198 3228757 3265411 3305841 3346142 3381837 3409220 3425918 3432798 
3796.056 3433800 3435203 3442550 3459416 3485268 3515864 3543022 3556618 
3799.913 3547064 3508048 3440413 3353221 3264510 3193742 3154490 3151920 
3803.771 3181225 3231127 3286077 3330716 3352386 3344205 3308746 3256798 
3807.628 3205090 3168675 3156493 3170210 3205424 3255096 3311617 3369682 
3811.485 3425885 3478588 3527890 3572954 3612310 3643116 3662196 3666807 
3815.343 3657685 3639174 3618625 3604025 3600517 3608301 3623303 3637035 
3819.200 3640009 3623236 3581307 3514762 3432397 3348980 3278264 3230126 
3823.058 3205992 3201485 3208862 3220312 3230159 3236535 3241175 3248786 
3826.915 3264744 3293121 3334756 3387147 3445322 3502937 3553445 3592231 
3830.772 3616554 3627212 3627947 3624038 3622033 3626945 3640944 3662530 
3834.630 3687090 3707341 3714493 3701493 3664468 3604760 3529159 3448896 
3838.487 3376127 3319464 3283773 3268015 3268349 3278832 3293889 3309213 
3842.345 3321500 3329213 3332686 3333821 3335557 3341868 3356626 3382205 
3846.202 3419540 3467599 3523447 3584180 3646758 3709346 3771475 3832276 
3850.060 3890444 3941531 3977811 3988278 3961025 3887536 3769269 3621833 
3853.917 3471139 3343437 3255596 3210765 3203088 3222214 3259169 3306108 
3857.774 3357795 3410723 3461554 3507046 3544559 3572754 3591563 3603357 
3861.632 3611843 3620897 3633159 3648396 3664602 3678335 3687024 3690766 
3865.489 3692370 3696046 3704835 3719405 3735982 3747913 3747177 3726958 
3869.347 3686088 3629751 3569146 3515831 3477686 3456310 3447293 3443085 
3873.204 3437040 3425651 3410222 3396297 3391455 3402541 3431863 3478020 
3877.062 3534972 3595037 3649699 3690967 3714727 3719973 3710616 3693440 
3880.919 3677266 3669213 3672788 3686823 3705771 3721410 3724285 3706840 
3884.776 3666139 3606965 3540617 3482997 3448628 3445055 3471106 3518236 
3888.634 3573422 3622434 3652639 3656649 3634296 3593000 3545862 3507246 
3892.491 3488942 3495823 3527055 3576730 3637069 3700123 3759076 3809613 
3896.349 3849291 3877272 3894155 3901510 3901143 3894724 3883691 3869483 
3900.206 3852233 3832310 3809412 3783641 3755098 3724853 3694241 3665804 
3904.063 3641914 3624706 3615217 3613480 3617823 3626277 3636434 3646591 
3907.921 3655813 3664735 3674392 3686489 3702562 3723182 3747879 3775219 
3911.778 3803162 3829736 3853503 3873494 3889007 3899538 3903817 3901343 
3915.636 3891480 3875133 3854138 3831908 3811685 3796410 3787084 3782873 
3919.493 3782271 3783374 3785212 3787819 3791964 3798148 3806003 3813757 
3923.351 3818771 3818471 3811384 3798449 3782572 3767866 3758173 3755767 
3927.208 3760346 3770305 3782505 3793970 3802526 3807373 3808276 3805301 
3931.065 3798783 3788856 3775820 3760947 3745774 3732873 3724318 3721210 
3934.923 3723282 3729164 3736784 3744337 3750653 3755900 3760914 3767231 
3938.780 3775419 3785580 3796142 3806070 3813122 3816131 3814827 3809512 
3942.638 3801791 3793301 3786115 3781937 3781569 3785380 3792666 3801858 
3946.495 3810749 3817601 3820409 3818705 3812888 3804599 3795975 3789357 
3950.353 3785780 3786081 3789825 3795908 3803295 3810615 3816733 3820978 
3954.210 3822983 3822381 3819808 3816331 3812922 3811117 3811785 3815462 
3958.067 3821847 3829936 3838326 3845514 3850327 3851999 3850428 3846349 
3961.925 3840934 3835686 3832142 3831775 3835352 3842739 3853169 3864803 
3965.782 3875935 3885062 3891548 3895961 3899103 3902480 3907160 3913346 
3969.640 3920367 3927054 3932103 3934510 3933774 3930097 3924212 3916522 
3973.497 3907863 3898735 3890110 3882822 3878676 3878643 3883457 3892985 
3977.354 3906224 3921337 3936449 3949924 3960892 3969619 3976006 3981222 
3981.212 3985402 3988846 3991187 3992090 3991254 3988713 3984767 3979818 
3985.069 3974568 3969418 3964937 3961360 3959086 3958083 3958350 3959822 
3988.927 3962162 3965105 3968315 3971291 3973398 3973933 3972227 3967713 
3992.784 3960557 3951195 3940930 3931468 3924145 3919966 3919096 3920367 
3996.642 3922440 3924279 3925014 3924647 3923844 3923276 3923209 3924045 
4000.499 3924781 
##END=
