##TITLE=1693_3_b
##JCAMP-DX=5.01  $$ Nicolet v. 1
##DATATYPE=INFRARED SPECTRUM
##ORIGIN=UniL
##OWNER=Nicolet
##LONGDATE=2011/09/29
##TIME=10:26:14
##SPECTROMETER/DATA SYSTEM=Nicolet iS5
##DATA PROCESSING=
Ratio against background
%Transmittance->Absorbance
Truncated
ElementMultiply or ElementDivide
##COMMENTS=
Number of sample scans: 32
Collection length: 51.16 sec
Sample gain: 2.0
Background collected on: Jeu Sep 29 10:22:27 2011 (GMT+02:00);
Number of background scans: 32
Background gain: 2.0
Sample spacing:  1.000
Number of scan points: 12415
Resolution points: 8192
Number of FFT points: 65536
Apodization: N-B fort;
Phase correction: Mertz;
Laser frequency: 15798.0 cm-1
Number of rejected sample scans: 0
Number of rejected background scans: 0
Bench serial number: ASB1000141;
##RESOLUTION=4.000
##XUNITS=1/CM
##YUNITS=ABSORBANCE
##FIRSTX=649.893372
##LASTX=4000.122314
##FIRSTY=0.073302
##MAXX=4000.122314
##MINX=649.893372
##MAXY=0.273925
##MINY=-0.001266
##XFACTOR=1.000000
##YFACTOR=1.000000E-009
##NPOINTS=6950
##DELTAX=0.482117
##ZPD=6100
##XYDATA=(X++(Y..Y))
649.893 73301696 73276440 73315272 73441168 73657624 73947992 74285936 
653.268 74649400 75031880 75443112 75902272 76425976 77018824 77672664 
656.643 78372376 79107008 79875976 80690152 81562424 82499472 83497336 
660.018 84544192 85631184 86762296 87955464 89235496 90618952 92100784 
663.393 93651280 95221560 96765448 98252144 99662792 100984800 102189704 
666.767 103209408 103940416 104275272 104161384 103635224 102792696 
669.660 101726856 100487528 99082400 97499240 95732328 93804304 91770352 
673.035 89700616 87669488 85728168 83897576 82178024 80560936 79041856 
676.410 77624960 76320064 75133064 74061784 73093024 72207840 71387376 
679.785 70619080 69897024 69220304 68587832 67996920 67442488 66919804 
683.159 66427320 65967136 65544008 65160520 64814524 64497404 64195604 
686.534 63896320 63591568 63281164 62972016 62673388 62392020 62126892 
689.909 61868576 61600596 61306264 60972628 60594256 60174724 59724124 
693.284 59256628 58787816 58333420 57909404 57529716 57207360 56950856 
696.659 56761368 56630780 56540304 56462940 56364576 56212720 55982360 
700.034 55659300 55245076 54754748 54214556 53655276 53107648 52598712 
703.408 52145468 51756752 51432084 51164952 50943920 50755620 50587436 
706.783 50427944 50269888 50112300 49959748 49823308 49717112 49658192 
710.158 49663504 49749288 49935032 50241136 50688704 51294176 52058616 
713.533 52957412 53929236 54883688 55706196 56278684 56513660 56367632 
716.908 55858100 55057500 54088964 53103644 52246916 51658444 51445776 
720.282 51671952 52352876 53442416 54831616 56337528 57733236 58779316 
723.657 59251616 59010184 58023832 56388004 54295272 51997508 49751964 
727.032 47747840 46096988 44825068 43892704 43226556 42749532 42404856 
730.407 42155264 41981980 41874768 41823464 41816424 41843384 41898260 
733.782 41981360 42097396 42251596 42446248 42678976 42945584 43243428 
737.156 43573824 43941644 44351828 44804568 45292536 45803108 46320768 
740.531 46834060 47337544 47830212 48309300 48763184 49165260 49475424 
743.906 49650240 49649424 49450696 49053960 48479608 47761968 46938740 
747.281 46048396 45124320 44197108 43297164 42450888 41679272 40994512 
750.656 40397112 39879052 39429092 39040856 38717040 38470720 38319956 
754.031 38282612 38368164 38573944 38884284 39273468 39709904 40156740 
757.405 40577080 40935708 41201392 41353992 41389528 41324328 41190900 
760.780 41032528 40892564 40800392 40769384 40797228 40874760 40996296 
764.155 41167656 41407572 41746312 42218688 42855936 43685708 44726040 
767.530 45982308 47440312 49060448 50779868 52518756 54215644 55861756 
770.905 57540612 59429500 61776008 64832328 68735648 73417592 78518760 
774.279 83440240 87381056 89533224 89349296 86658848 81769968 75334480 
777.654 68226648 61288024 55137096 50159304 46456628 43926136 42343048 
781.029 41458236 41061808 40994912 41164780 41516384 42011396 42620852 
784.404 43322132 44103940 44969908 45935160 47019780 48239572 49604852 
787.779 51123988 52809924 54688828 56800832 59191884 61910340 64995780 
791.154 68477648 72383248 76743704 81598288 86991280 92953296 99477360 
794.528 106487072 113826912 121248440 128404912 134908976 140337120 
797.421 144278320 146419712 146571248 144725856 141063792 135946208 
800.314 129857600 123299312 116773552 110683936 105287304 100705280 96908560 
803.689 93759072 91045344 88554936 86124448 83668000 81198968 78807840 
807.063 76630288 74786312 73346888 72304144 71572912 71005360 70425448 
810.438 69682432 68664936 67326168 65679236 63780448 61708592 59540340 
813.813 57347884 55189008 53107988 51143000 49323732 47671700 46202008 
817.188 44919564 43821520 42900264 42146536 41552620 41113236 40825000 
820.563 40684484 40687432 40829260 41107844 41527028 42098384 42842116 
823.938 43783404 44945252 46342036 47971100 49807144 51794080 53846072 
827.312 55852260 57671744 59160480 60187972 60654868 60524508 59830588 
830.687 58681300 57232156 55670336 54187376 52936416 52029888 51520312 
834.062 51396912 51589480 51975772 52408164 52716800 52745980 52384760 
837.437 51576536 50338864 48751880 46947416 45072120 43258580 41613992 
840.812 40197628 39028820 38095888 37370600 36819996 36413148 36125924 
844.186 35936812 35826080 35777040 35775600 35813272 35888156 36002364 
847.561 36158908 36358348 36596772 36867136 37163188 37482268 37827180 
850.936 38204996 38624352 39091064 39606516 40168264 40773136 41420544 
854.311 42114740 42863436 43677060 44565492 45535956 46595300 47752092 
857.686 49017940 50410604 51952804 53668436 55583864 57725064 60116044 
861.060 62779776 65730348 68964024 72442592 76082304 79747120 83238560 
864.435 86329736 88784664 90383280 90973800 90483448 88935096 86439936 
867.810 83186712 79417080 75372952 71292680 67376704 63763992 60547932 
871.185 57770176 55432692 53510884 51965872 50755212 49835016 49166560 
874.560 48715700 48449820 48340704 48365076 48505172 48751992 49103184 
877.935 49560688 50125764 50795212 51558328 52398444 53294084 54223640 
881.309 55169972 56121200 57070816 58016488 58956404 59887632 60803220 
884.684 61690948 62535188 63318848 64027624 64656416 65214492 65728696 
888.059 66239604 66796436 67448640 68231104 69158960 70222632 71392256 
891.434 72621696 73858008 75052472 76159528 77139784 77960064 78587736 
894.809 78992728 79149784 79038120 78646656 77975568 77038528 75863448 
898.183 74491880 72982552 71401704 69820904 68311448 66930124 65717972 
901.558 64696408 63866688 63216544 62725640 62374656 62147424 62034196 
904.933 62029956 62132284 62338968 62648164 63058788 63572280 64192688 
908.308 64926320 65778808 66752768 67847096 69057832 70380680 71813536 
911.683 73358032 75018288 76799456 78705640 80739352 82905448 85213944 
915.058 87684688 90349040 93244456 96412992 99891232 103703744 107859272 
918.432 112344952 117123664 122120856 127220944 132267576 137051488 
921.325 141346368 144942208 147677392 149497392 150475360 150829536 
924.218 150876656 151009632 151648208 153144976 155772544 159670240 
927.110 164820480 171033296 177938320 185037936 191674720 197119008 
930.003 200683488 201742992 199886224 194984192 187212064 177036864 
932.896 165128976 152306480 139357536 126966312 115685384 105851952 97636832 
936.271 91074928 86101016 82600976 80444360 79512488 79689832 80850216 
939.646 82844656 85456760 88399432 91345904 93923048 95789256 96697008 
943.020 96513208 95257864 93083376 90252160 87064848 83808472 80731368 
946.395 77994800 75682768 73814136 72360736 71270656 70483248 69945680 
949.770 69611528 69442952 69410416 69488056 69654200 69892704 70191592 
953.145 70543464 70944064 71389640 71876008 72397176 72946016 73515648 
956.520 74102144 74703432 75320248 75954216 76605904 77274160 77956496 
959.894 78650152 79353272 80066296 80791312 81531088 82287296 83060112 
963.269 83848616 84651608 85469224 86303512 87157248 88032768 88929888 
966.644 89845456 90774104 91710680 92651776 93597304 94549760 95511736 
970.019 96483128 97460392 98436152 99402704 100354248 101289224 102210752 
973.394 103124528 104036608 104951160 105870304 106795384 107728720 
976.286 108674912 109640368 110629936 111646328 112686736 113744976 
979.179 114812320 115881336 116947096 118006472 119056816 120092784 
982.072 121105528 122084344 123019304 123905120 124743200 125541360 
984.964 126310840 127062024 127802864 128538800 129273776 130014288 
987.857 130769536 131550592 132368144 133228496 134132160 135074048 
990.750 136047696 137048176 138074320 139128480 140213872 141330896 
993.643 142476112 143642656 144822928 146013184 147214992 148434128 
996.535 149676992 150947104 152242864 153558656 154887856 156227392 
999.428 157579520 158951584 160352208 161787216 163258064 164763008 
1002.321 166299856 167871024 169483888 171149536 172878688 174676512 
1005.213 176540704 178463056 180434880 182451184 184513392 186627904 
1008.106 188800448 191031248 193312288 195627744 197959712 200294144 
1010.999 202622176 204940128 207243728 209523216 211761792 213940016 
1013.891 216040848 218058640 220001648 221890144 223747840 225594288 
1016.784 227440400 229287376 231131792 232969776 234799664 236619536 
1019.677 238422208 240192672 241908240 243546720 245097632 246569888 
1022.570 247995488 249419728 250893952 252458960 254136656 255930544 
1025.462 257829248 259813840 261858560 263932192 265991360 267972560 
1028.355 269799168 271384608 272642112 273504576 273924640 273875936 
1031.249 273349120 272344992 270875136 268963616 266655744 264018144 
1034.142 261126912 258060960 254879120 251606560 248232784 244716464 
1037.035 241001920 237028992 232751312 228143232 223200784 217945520 
1039.928 212424944 206716448 200916048 195134720 189484352 184048912 
1042.821 178879744 173983456 169327312 164851232 160486960 156181824 
1045.714 151905216 147657424 143463440 139367440 135419600 131665752 
1048.607 128146264 124887448 121901448 119186368 116728120 114501808 
1051.500 112475696 110617632 108898040 107292592 105785336 104365256 
1054.393 103023744 101753072 100543368 99383712 98264072 97175832 96113000 
1057.768 95071616 94047656 93035464 92028000 91017520 89998616 88970352 
1061.144 87936848 86906720 85890512 84898744 83939584 83018720 82140392 
1064.519 81307872 80524240 79791080 79106928 78465608 77855448 77262248 
1067.894 76670336 76067576 75448312 74814264 74174528 73542296 72934816 
1071.269 72369784 71864080 71434584 71096128 70860312 70735624 70725448 
1074.645 70827624 71034504 71334224 71710192 72140504 72599016 73051432 
1078.020 73456704 73772704 73958520 73983240 73834600 73521648 73074712 
1081.395 72538168 71967976 71420568 70945736 70589728 70390032 70377208 
1084.770 70579904 71022368 71725864 72709312 73986728 75566352 77446952 
1088.146 79613408 82028080 84620440 87291360 89903568 92293632 94305304 
1091.521 95796856 96675568 96916136 96563440 95727624 94557416 93234152 
1094.896 91934224 90806528 89973592 89511440 89452200 89788816 90478672 
1098.271 91448880 92596736 93806280 94947616 95882832 96490240 96662816 
1101.646 96325264 95447216 94043504 92175344 89933848 87435440 84800808 
1105.022 82135552 79533216 77062464 74766320 72669680 70779216 69089096 
1108.397 67584464 66245468 65049812 63973412 62993968 62090692 61244112 
1111.772 60438244 59658468 58892232 58130376 57366560 56598844 55829768 
1115.147 55066488 54319228 53598856 52916540 52281076 51698560 51172856 
1118.523 50706316 50301064 49959416 49685012 49481812 49353684 49301980 
1121.898 49323692 49408480 49537256 49680296 49795700 49838024 49758540 
1125.273 49514936 49081928 48453528 47647180 46697820 45655448 44573128 
1128.648 43497272 42465868 41502344 40616440 39808124 39070256 38393000 
1132.024 37764680 37174484 36612128 36068820 35538524 35018504 34509940 
1135.399 34016656 33545200 33102214 32692440 32319456 31984956 31689416 
1138.774 31433974 31219588 31047692 30919554 30835880 30796860 30803262 
1142.149 30856442 30958586 31112614 31320002 31580224 31889204 32240472 
1145.525 32625426 33034604 33459444 33891080 34319988 34735972 35126736 
1148.900 35479772 35785136 36036024 36231656 36376724 36480280 36554020 
1152.275 36609316 36657224 36706908 36765540 36839076 36931272 37043808 
1155.650 37175892 37324020 37483100 37647048 37810332 37968184 38116508 
1159.026 38251488 38368492 38461956 38526292 38555768 38545808 38493308 
1162.401 38396216 38253120 38063228 37826272 37543608 37218236 36855700 
1165.776 36463740 36050316 35624116 35191908 34759336 34331788 33914724 
1169.151 33514562 33139192 32796234 32491860 32229696 32010458 31833116 
1172.527 31695940 31599038 31544808 31538182 31584964 31691164 31861424 
1175.902 32099138 32407344 32789372 33249992 33794904 34430304 35161764 
1179.277 35994732 36934192 37986592 39160388 40465192 41911872 43510420 
1182.652 45267972 47189656 49278928 51538368 53969904 56573100 59342240 
1186.028 62261632 65301440 68419104 71553416 74630160 77567440 80270176 
1189.403 82643088 84597048 86051248 86951448 87275400 87037840 86287864 
1192.778 85102920 83580712 81816808 79901264 77907816 75883728 73855024 
1196.153 71828040 69796312 67748792 65678156 63586624 61488620 59410544 
1199.529 57385428 55451668 53644516 51992016 50514400 49221072 48112184 
1202.904 47180092 46412120 45792280 45301620 44920372 44626628 44396308 
1206.279 44206496 44035176 43863416 43678896 43473976 43246248 42996612 
1209.654 42728032 42444604 42151284 41855536 41566952 41297252 41061264 
1213.030 40873668 40748640 40699804 40738960 40876872 41124200 41490716 
1216.405 41985048 42614052 43381736 44289704 45337992 46526512 47855776 
1219.780 49326924 50941384 52699964 54602364 56648596 58839680 61179600 
1223.155 63675204 66335128 69166416 72171568 75345792 78675888 82139672 
1226.531 85703544 89324384 92946280 96494920 99887224 103026688 105811032 
1229.906 108148832 109958568 111180824 111786032 111778096 111201800 
1232.799 110138760 108717520 107099584 105458384 103984032 102852280 
1235.692 102211000 102187984 102875456 104335688 106608272 109708864 
1238.585 113631200 118340704 123776008 129836824 136377264 143224144 
1241.478 150162624 156945968 163326384 169038960 173829712 177489280 
1244.371 179854352 180840496 180448432 178761552 175930624 172145696 
1247.264 167636752 162638448 157374960 152059952 146856128 141865392 
1250.157 137116816 132561760 128085256 123527096 118732184 113573784 
1253.050 107988920 101995848 95689952 89229232 82792168 76568160 70719712 
1256.426 65356320 60542260 56288528 52565872 49317904 46476284 43973544 
1259.801 41744704 39737316 37910400 36231908 34680628 33241984 31905108 
1263.176 30660972 29500600 28413496 27390474 26423624 25508462 24644704 
1266.551 23834464 23080552 22384426 21745180 21159646 20624790 20139180 
1269.927 19703760 19321324 18995194 18726868 18515722 18359046 18253810 
1273.302 18198904 18195138 18244792 18349852 18510190 18721990 18978232 
1276.677 19268984 19583950 19911460 20239668 20556556 20850070 21109798 
1280.052 21329446 21507634 21647792 21755526 21835238 21886146 21901270 
1283.427 21867992 21773154 21608230 21372776 21075848 20734148 20368862 
1286.803 19998952 19639760 19301578 18990106 18708948 18460714 18246830 
1290.178 18067106 17918396 17795662 17692494 17604394 17530456 17473538 
1293.553 17439390 17433560 17460154 17520314 17613226 17738258 17896678 
1296.928 18091874 18328596 18610682 18939812 19315052 19734238 20195512 
1300.304 20697936 21240362 21818864 22422872 23035058 23629216 24175460 
1303.679 24646352 25019190 25280894 25428530 25467810 25410894 25274292 
1307.054 25079178 24848816 24607216 24378964 24183516 24033748 23934338 
1310.429 23882350 23870062 23887986 23929262 23989064 24064426 24152480 
1313.805 24248716 24346548 24439812 24523524 24596068 24658872 24714428 
1317.180 24764270 24807594 24841484 24862536 24869798 24865902 24856186 
1320.555 24847554 24845274 24851800 24867518 24892746 24930432 24988196 
1323.930 25078370 25215086 25413178 25685210 26040856 26488068 27032136 
1327.306 27674590 28408968 29216776 30066176 30909556 31693124 32366470 
1330.681 32889042 33241730 33427882 33471436 33407948 33279042 33125494 
1334.056 32980188 32870672 32818210 32837972 32940760 33132862 33416572 
1337.431 33792864 34263768 34834904 35516196 36319224 37252348 38317496 
1340.807 39506492 40801812 42177100 43600380 45033784 46429676 47735972 
1344.182 48895588 49850992 50557764 50987476 51132000 51002008 50621200 
1347.557 50019192 49223372 48258752 47147512 45910928 44575736 43175752 
1350.932 41749120 40340064 38989600 37730960 36589524 35580384 34710700 
1354.308 33983192 33396356 32944516 32616104 32395172 32261636 32195616 
1357.683 32182344 32213066 32284730 32396990 32548458 32734778 32949876 
1361.058 33189866 33458478 33768616 34143276 34608568 35185080 35885744 
1364.433 36712568 37660884 38722476 39886788 41137460 42442812 43753572 
1367.809 44997692 46081848 46912940 47405312 47496640 47159260 46398516 
1371.184 45252120 43779812 42066804 40215440 38333132 36535672 34924952 
1374.559 33571800 32511532 31739750 31226068 30930656 30823678 30894934 
1377.934 31158034 31646010 32406312 33496954 34975444 36896212 39297148 
1381.310 42178964 45478588 49042644 52642320 55965320 58668064 60446812 
1384.685 61047668 60328396 58282560 55068032 50999848 46488784 41990776 
1388.060 37872404 34353948 31512492 29305846 27631862 26368202 25408434 
1391.435 24667710 24083408 23616482 23242612 22950164 22737376 22606534 
1394.811 22559974 22596098 22708154 22886070 23119864 23399836 23716272 
1398.186 24057840 24408652 24750870 25068400 25350122 25593506 25802494 
1401.561 25984568 26146940 26295186 26433976 26568336 26706262 26858082 
1404.936 27033898 27240338 27477652 27740138 28019146 28307704 28604630 
1408.312 28914542 29246404 29608206 30004820 30435344 30895324 31379550 
1411.687 31885244 32411880 32958244 33518284 34079336 34622420 35130000 
1415.062 35591748 36010172 36401008 36790100 37207476 37679208 38224716 
1418.437 38854024 39566952 40356388 41209956 42110868 43040948 43982160 
1421.813 44922284 45858636 46805200 47793480 48869776 50080656 51458532 
1425.188 53014164 54736140 56601936 58588316 60680816 62867464 65129684 
1428.563 67435440 69728960 71937712 73990896 75833272 77443224 78835728 
1431.938 80058648 81179112 82266312 83390408 84617336 86015584 87668632 
1435.313 89670392 92111640 95053928 98490768 102346864 106506344 110848816 
1438.689 115264448 119638352 123842936 127697688 130974736 133448440 
1441.582 134906256 135206336 134302304 132235184 129120616 125115888 
1444.475 120415152 115216360 109699824 104043176 98406480 92947136 87839608 
1447.850 83250032 79313064 76100224 73601256 71741696 70415160 69528920 
1451.225 69021008 68866096 69062336 69608296 70487256 71670480 73119960 
1454.601 74806664 76721800 78863976 81223296 83753776 86365632 88945344 
1457.976 91398904 93685312 95806808 97789784 99666376 101464480 103203264 
1461.351 104887832 106509768 108035112 109399464 110520520 111307320 
1464.244 111695600 111678288 111316184 110716472 109985320 109206456 
1467.137 108423656 107649280 106881192 106109848 105316904 104465848 
1470.030 103492600 102304552 100792944 98878328 96555624 93928552 91182136 
1473.406 88516824 86077872 83923224 82049776 80435792 79075400 77995120 
1476.781 77244032 76865824 76884176 77291576 78059672 79155144 80557752 
1480.156 82268320 84304896 86692256 89447768 92574352 96060792 99893312 
1483.531 104064608 108584032 113470504 118733008 124352352 130243104 
1486.424 136224672 142034736 147309264 151619456 154543744 155698672 
1489.317 154840000 151941552 147229968 141149952 134232656 126993704 
1492.210 119803488 112858016 106235216 99922000 93880312 88105368 82639928 
1495.586 77583368 73067624 69207912 66062644 63617692 61811880 60559856 
1498.961 59783092 59423800 59439644 59797012 60464940 61406972 62580116 
1502.336 63938512 65420420 66949376 68428576 69710520 70598072 70848096 
1505.711 70205848 68515968 65823644 62390184 58565980 54640052 50767948 
1509.087 46994192 43318688 39745232 36295448 33021766 29988808 27245312 
1512.462 24821172 22715416 20905068 19356416 18033086 16900550 15923509 
1515.837 15069291 14312143 13637545 13047228 12553573 12169201 11895455 
1519.212 11716163 11597448 11500334 11392835 11268324 11149528 11076001 
1522.588 11078618 11161494 11304406 11475226 11647169 11807537 11963909 
1525.963 12137580 12353180 12623905 12946240 13304344 13681346 14068805 
1529.338 14470244 14897840 15365195 15879756 16439732 17035474 17654014 
1532.713 18286916 18932992 19597606 20284210 20990258 21703972 22410278 
1536.089 23093026 23740944 24350402 24921344 25455862 25952594 26400312 
1539.464 26777654 27060982 27240090 27325084 27343682 27326250 27291000 
1542.839 27238432 27154442 27021770 26829992 26585280 26309092 26030336 
1546.214 25770954 25535414 25310644 25072366 24798088 24476164 24113984 
1549.590 23734400 23367212 23032054 22731022 22449040 22163754 21857540 
1552.965 21526192 21181772 20848366 20551308 20303896 20103366 19930886 
1556.340 19758684 19552338 19274560 18893194 18394374 17804188 17191638 
1559.715 16642019 16213117 15917975 15737634 15638182 15585598 15550155 
1563.091 15511762 15462661 15408003 15363307 15346727 15371580 15438867 
1566.466 15538239 15652610 15766323 15869206 15959669 16043413 16129615 
1569.841 16226152 16336095 16459588 16595682 16744835 16907818 17083478 
1573.216 17266758 17446046 17605810 17731874 17817686 17872510 17920504 
1576.592 17993818 18114466 18288264 18507424 18759248 19034240 19330226 
1579.967 19652622 20010854 20414352 20868216 21371802 21918868 22499112 
1583.342 23097046 23691462 24255196 24752660 25147180 25407838 25515630 
1586.717 25471990 25300070 25045724 24768408 24535444 24415520 24465294 
1590.093 24727964 25228780 25970216 26927632 28042932 29231130 30376424 
1593.468 31347994 32027758 32316246 32158938 31554818 30556836 29260404 
1596.843 27777756 26228412 24711200 23297600 22036640 20953294 20055198 
1600.218 19337640 18787758 18388670 18124174 17983526 17962322 18060856 
1603.594 18280592 18619156 19066264 19604540 20206934 20838910 21461574 
1606.969 22026810 22482572 22779172 22870772 22726728 22336528 21713236 
1610.344 20892554 19928874 18892674 17851898 16864278 15969466 15183127 
1613.719 14502686 13912938 13394958 12930571 12507465 12124461 11789390 
1617.094 11516496 11318553 11201918 11163228 11190563 11266081 11369637 
1620.470 11483051 11591527 11688625 11777202 11868212 11975013 12107119 
1623.845 12266804 12448642 12644611 12848654 13059349 13278618 13508150 
1627.220 13747141 13990368 14230753 14463084 14687724 14910905 15141576 
1630.595 15387508 15651029 15927909 16208300 16480442 16734470 16962840 
1633.971 17162406 17333134 17478056 17602564 17714652 17825902 17946886 
1637.346 18085414 18243790 18417362 18595810 18765546 18914754 19036804 
1640.721 19133434 19213810 19290458 19372664 19461992 19550640 19624298 
1644.096 19666558 19663646 19609704 19507942 19372042 19220772 19075300 
1647.472 18954522 18871564 18834504 18845542 18900462 18988340 19088456 
1650.847 19172564 19202104 19138074 18961166 18696840 18418158 18203256 
1654.222 18091564 18069838 18099680 18140896 18165942 18161970 18125832 
1657.597 18061408 17973096 17864154 17733738 17578586 17394864 17179986 
1660.973 16933828 16658409 16357252 16036401 15704550 15372987 15054472 
1664.348 14759637 14493059 14251673 14024382 13794510 13542504 13251016 
1667.723 12909954 12519401 12090459 11641690 11194234 10765206 10366294 
1671.098 10002973 9676344 9382732 9113715 8855854 8591759 8305736 7991820 
1674.956 7660257 7338990 7060593 6850095 6713588 6640203 6610193 6604541 
1678.813 6612447 6632532 6671460 6738557 6838886 6970112 7122664 7283458 
1682.671 7442693 7599053 7763700 7954596 8188084 8468320 8785961 9127724 
1686.528 9482827 9846051 10215311 10588621 10962388 11329334 11680389 
1689.903 12008802 12312103 12593649 12860497 13119313 13372508 13616380 
1693.279 13840002 14029481 14171354 14260061 14303583 14324301 14349882 
1696.654 14396016 14459693 14518719 14541709 14492305 14341937 14083864 
1700.029 13746182 13388466 13070651 12825515 12646999 12507021 12371145 
1703.404 12211184 12008632 11755584 11456004 11123216 10776585 10433828 
1706.780 10106772 9799415 9509378 9229757 8952445 8670647 8380349 8082346 
1710.637 7780938 7483143 7196131 6924054 6668162 6426613 6196322 5975290 
1714.494 5762967 5560010 5365903 5177248 4987703 4790937 4586860 4384083 
1718.352 4199702 4050681 3946915 3888171 3864769 3862262 3866340 3867343 
1722.209 3861593 3851631 3843307 3842438 3851731 3869282 3890812 3911908 
1726.067 3929963 3944507 3955140 3960791 3958149 3942836 3912276 3867176 
1729.924 3812521 3754764 3697984 3639642 3568845 3467198 3317360 3111404 
1733.781 2862652 2604609 2379067 2213151 2110023 2054590 2023963 1998132 
1737.639 1962616 1911595 1846603 1775067 1705705 1645335 1597510 1562625 
1741.496 1540080 1529972 1532233 1546697 1571338 1603163 1638916 1676800 
1745.354 1717049 1761593 1812032 1868332 1927070 1982620 2028823 2061048 
1749.211 2077661 2080125 2071735 2056321 2037379 2017638 2000062 1987846 
1753.069 1983053 1986348 1994803 2002259 2000362 1981256 1940449 1880212 
1756.926 1809503 1739770 1680392 1634658 1598640 1564122 1521127 1463209 
1760.783 1388811 1303126 1215166 1134532 1067996 1017909 983371 961885 
1764.641 950694 946908 947307 947871 944318 933759 916194 895641 878575 
1768.980 869877 871105 878077 883091 876882 854040 816626 775365 743866 
1773.320 733013 746222 778817 822071 867785 911711 953882 997020 1044081 
1777.660 1094968 1146192 1191908 1226696 1247929 1257898 1262417 1267734 
1781.517 1277471 1291096 1304090 1311601 1309707 1298607 1281625 1264511 
1785.375 1252216 1247397 1250421 1260623 1277271 1300867 1331775 1368934 
1789.232 1408058 1442231 1462012 1458987 1428867 1374285 1304456 1230949 
1793.089 1164332 1109816 1066866 1031792 1000806 971249 943023 916526 892022 
1797.429 867719 841292 810219 773407 732017 689071 648685 613512 584115 
1801.769 559629 538563 520416 506085 496996 494608 498522 507412 518459 
1806.108 529804 541084 553293 568255 587167 609099 631728 652136 668231 
1810.448 680410 691461 705200 724416 749542 778419 807763 834851 858522 
1814.787 880434 903344 929741 961187 996455 1033519 1070188 1105365 1139149 
1819.127 1172604 1206494 1240087 1272187 1300734 1324230 1342144 1354342 
1822.984 1360691 1360292 1351949 1335530 1313196 1289866 1271921 1264876 
1826.842 1270592 1286078 1303957 1315224 1312897 1295549 1269063 1244141 
1830.699 1232843 1242346 1272719 1317916 1369698 1421155 1468961 1513845 
1834.557 1559500 1609914 1666821 1729889 1797192 1867135 1940117 2019136 
1838.414 2107926 2209921 2325998 2454768 2592975 2737262 2885099 3035422 
1842.271 3187400 3340599 3493986 3647059 3800421 3956712 4119214 4289808 
1846.129 4467935 4648411 4823234 4982575 5118438 5226173 5305089 5358087 
1849.986 5388782 5399082 5388380 5353760 5292712 5205248 5095238 4969269 
1853.844 4834626 4696506 4556456 4413036 4263340 4106403 3943571 3779464 
1857.701 3619026 3466063 3321333 3183294 3049536 2918989 2792516 2673114 
1861.559 2563377 2464264 2374436 2290755 2210987 2135329 2066775 2009583 
1865.416 1967542 1940616 1924807 1913458 1899714 1880645 1857817 1836953 
1869.273 1824609 1824376 1835024 1851095 1865936 1874389 1874655 1868133 
1873.131 1857384 1845006 1832162 1818121 1801651 1781954 1759630 1735378 
1876.988 1709132 1678895 1640645 1589961 1524419 1445024 1356736 1266205 
1880.846 1180080 1102010 1031360 964674 898198 829839 760926 695211 636606 
1885.185 587665 547321 512289 478652 444389 410161 378953 354579 339723 
1889.525 335479 340751 354048 375173 404290 442200 487177 535179 580133 
1893.865 615868 639228 651738 658507 667202 684525 712800 750139 792128 
1898.204 834055 873927 912774 953052 997252 1045675 1095798 1143967 1187456 
1902.544 1226197 1262716 1300468 1341746 1385786 1429300 1467398 1496689 
1906.401 1516472 1528908 1537586 1545035 1550887 1552550 1546963 1532599 
1910.259 1511385 1487978 1467597 1453169 1444159 1436547 1425742 1408889 
1914.116 1386584 1362187 1339485 1319843 1301066 1277670 1243808 1197490 
1917.973 1142073 1086032 1037538 1001736 976662 955310 927981 887772 833822 
1922.313 771548 710709 659569 623002 599244 582522 567393 550970 535112 
1926.653 523899 520715 525658 534847 541847 541681 532060 515540 496233 
1930.992 478288 462565 446445 426246 399647 368706 338529 315484 303879 
1935.332 302751 307725 311969 311405 306001 300994 301989 312632 331267 
1939.671 350998 363466 362206 347052 323707 302254 290981 293501 307194 
1944.011 325431 341945 353916 362604 372155 385188 401538 417689 429695 
1948.351 435102 436462 439811 451885 476629 512886 554188 592741 623499 
1952.690 645466 663120 681538 703010 725047 740812 742671 726773 694647 
1957.030 653994 614076 580763 554520 529473 498920 459149 412880 369535 
1961.369 340552 333058 347052 374741 405617 431321 448800 461338 475800 
1965.709 496664 523070 548582 565070 567492 556876 540122 525824 520317 
1970.049 524099 532458 539392 541117 539757 542477 556279 585143 627382 
1974.388 677191 729129 781904 841358 915795 1012031 1127124 1247929 1353711 
1978.728 1425443 1451839 1433954 1383360 1316254 1247763 1186658 1135063 
1982.585 1091546 1054178 1024386 1005854 1002068 1013592 1036143 1062582 
1986.443 1085634 1101379 1111178 1119981 1132838 1151707 1173900 1193901 
1990.300 1207424 1213538 1217060 1226098 1247331 1282223 1326224 1370729 
1994.157 1407559 1433189 1450908 1466866 1488543 1518467 1552882 1583476 
1998.015 1602265 1605059 1594750 1578754 1566150 1561694 1564621 1567481 
2001.872 1561927 1542474 1509722 1470390 1433455 1407094 1393465 1390340 
2005.730 1390240 1386484 1375249 1355605 1328983 1296280 1257665 1212142 
2009.587 1160013 1104933 1052385 1009872 982773 971382 972511 980216 990843 
2013.927 1004094 1023987 1054743 1098190 1151142 1206162 1254442 1291528 
2017.784 1319910 1348692 1388844 1447451 1524153 1610580 1694130 1763357 
2021.642 1813429 1846570 1870362 1891461 1913059 1932661 1945242 1946041 
2025.499 1935224 1918118 1900878 1888133 1879913 1869664 1850031 1816723 
2029.356 1772872 1728193 1695460 1686279 1705040 1748785 1808538 1876286 
2033.214 1947971 2023530 2105728 2195601 2289489 2378800 2455167 2512618 
2037.071 2552845 2583442 2615375 2657112 2711888 2775942 2842207 2902577 
2040.929 2953449 2994717 3029917 3061582 3089713 3110503 3119781 3113841 
2044.786 3094385 3066955 3039526 3019507 3011065 3014168 3025646 3040427 
2048.644 3054175 3061883 3059781 3043130 3008063 2953682 2883999 2808557 
2052.501 2740863 2695785 2683282 2704854 2752267 2810824 2863986 2900276 
2056.358 2915320 2913952 2904879 2896373 2892604 2892804 2893371 2889702 
2060.216 2880429 2866521 2850812 2836270 2823464 2810991 2797551 2783512 
2064.073 2772041 2767706 2773942 2791249 2815393 2839305 2856248 2863152 
2067.931 2861285 2856582 2854814 2859083 2867755 2875293 2875393 2864119 
2071.788 2843107 2817661 2795050 2780478 2773775 2770574 2763904 2748299 
2075.646 2721991 2687716 2651044 2617242 2588609 2564377 2541446 2517484 
2079.503 2491790 2466464 2445304 2431043 2423879 2422147 2422880 2423813 
2083.360 2425345 2429477 2438507 2453268 2471496 2488424 2498755 2498721 
2087.218 2487524 2467463 2442005 2413850 2383365 2349550 2310308 2265874 
2091.075 2219179 2175887 2142188 2122542 2117448 2124041 2137293 2152577 
2094.933 2167195 2181215 2196367 2213984 2233966 2254216 2271902 2285126 
2098.790 2294086 2300248 2306044 2313106 2321734 2331494 2341988 2354081 
2102.647 2370505 2393560 2424912 2462665 2502021 2537647 2565010 2583909 
2106.505 2597375 2611908 2634409 2668046 2712589 2763771 2817061 2868789 
2110.362 2918689 2969128 3023277 3082905 3146880 3211332 3271921 3325106 
2114.220 3370150 3408720 3443853 3477786 3511154 3543623 3574491 3604326 
2118.077 3635298 3670215 3711585 3758808 3808810 3856412 3896629 3926285 
2121.935 3946313 3959822 3971190 3983529 3997841 4012857 4026468 4037203 
2125.792 4045129 4051183 4056668 4060380 4059611 4050145 4028307 3993093 
2129.649 3946079 3891514 3834716 3780366 3730801 3687391 3651737 3626343 
2133.507 3614850 3620697 3644820 3683715 3729832 3773748 3808175 3830137 
2137.364 3842438 3852099 3865271 3885663 3911574 3937386 3956678 3964469 
2141.222 3960089 3946246 3926987 3905389 3881886 3854640 3822716 3786616 
2145.079 3749283 3714493 3685252 3660358 3635031 3602789 3558422 3501701 
2148.937 3437140 3372521 3313988 3263776 3219077 3172814 3118012 3050905 
2152.794 2972264 2886333 2796284 2704387 2608642 2508086 2406520 2316737 
2156.651 2258946 2258613 2335259 2493556 2719090 2982039 3247084 3483731 
2160.509 3674626 3815696 3912777 3974233 4007841 4019211 4012857 3994330 
2164.366 3971124 3950760 3937887 3932270 3928425 3918260 3894389 3854372 
2168.224 3801390 3742398 3684283 3631121 3582175 3533702 3481093 3423013 
2172.081 3362470 3306643 3262140 3234666 3224651 3228991 3242811 3260704 
2175.938 3278832 3294089 3302803 3300466 3282037 3245148 3191572 3129759 
2179.796 3072694 3033153 3020875 3037491 3075998 3123585 3167640 3199383 
2183.653 3216039 3220646 3218543 3215038 3212134 3210531 3210531 3213002 
2187.511 3221380 3238638 3266146 3300833 3336425 3366243 3384943 3391889 
2191.368 3391254 3390086 3394059 3405814 3422846 3439344 3449697 3451033 
2195.226 3443886 3433032 3423815 3420508 3424482 3435036 3448996 3464660 
2199.083 3480892 3497560 3514394 3529927 3542521 3550104 3552242 3550472 
2202.940 3547699 3546029 3546597 3546964 3543223 3531364 3510319 3481460 
2206.798 3449764 3421210 3400171 3388549 3385544 3389651 3399102 3414263 
2210.655 3436438 3466297 3502503 3541051 3576529 3604326 3622802 3634730 
2214.513 3645856 3661427 3684818 3714793 3747211 3775553 3795908 3807239 
2218.370 3812120 3813958 3816064 3819005 3820911 3819908 3815095 3808008 
2222.228 3802226 3801457 3807106 3817033 3826226 3829769 3824487 3810916 
2226.085 3792766 3774951 3761081 3751489 3743835 3734778 3722246 3706606 
2229.942 3690633 3677767 3670382 3667208 3665036 3659924 3649565 3635431 
2233.800 3621398 3612511 3612411 3621432 3636601 3653575 3668912 3681677 
2237.657 3693673 3707742 3726022 3748180 3771007 3790995 3805668 3814727 
2241.515 3820944 3827797 3838494 3853603 3871254 3888505 3903182 3915151 
2245.372 3926987 3941598 3961761 3987341 4015833 4042888 4064694 4079009 
2249.229 4085699 4086468 4083357 4077972 4070781 4063022 4056132 4052855 
2253.087 4057069 4071250 4095733 4127342 4160526 4188227 4204988 4208099 
2256.944 4198130 4178357 4152364 4124064 4095900 4069243 4045865 4027872 
2260.802 4017639 4016769 4025598 4042320 4063591 4085899 4107306 4127877 
2264.659 4149387 4174176 4203884 4237676 4272675 4304833 4330735 4349041 
2268.517 4360287 4366579 4370261 4373407 4376218 4378461 4379197 4378929 
2272.374 4378360 4378996 4381975 4388100 4397003 4408149 4420568 4433622 
2276.231 4447347 4461507 4475367 4487987 4498065 4505397 4510285 4514402 
2280.089 4519894 4528498 4541121 4557561 4576479 4596538 4616998 4637460 
2283.946 4658459 4680396 4702904 4725279 4746382 4765209 4781791 4796398 
2287.804 4809967 4822999 4835363 4846788 4856438 4864613 4872789 4882406 
2291.661 4895877 4914441 4937934 4965147 4993736 5021992 5048708 5073816 
2295.519 5097954 5121422 5144020 5164775 5182915 5198071 5210881 5223155 
2299.376 5236703 5252566 5270475 5288587 5304451 5315621 5321457 5322497 
2303.233 5320686 5317935 5315688 5314111 5312535 5310287 5307403 5305156 
2307.091 5305323 5309919 5320115 5335411 5354330 5374726 5394620 5412837 
2310.948 5429310 5444643 5459171 5473566 5487592 5501081 5514101 5526618 
2314.806 5539270 5552224 5565447 5578234 5589981 5600117 5608710 5616665 
2318.663 5625123 5635797 5650030 5668727 5691857 5718950 5748462 5777842 
2322.521 5803160 5820051 5824350 5812932 5785431 5744198 5694409 5642611 
2326.378 5594915 5555915 5527457 5508497 5496518 5488330 5481887 5476552 
2330.235 5472794 5471787 5474102 5479840 5488397 5499504 5513262 5530712 
2334.093 5553264 5581691 5615490 5653118 5691925 5729795 5765385 5798593 
2337.950 5830226 5861593 5893331 5925408 5957050 5987250 6015100 6040197 
2341.808 6062137 6080114 6092983 6099737 6099535 6093588 6085154 6079274 
2345.665 6081659 6097721 6131157 6182979 6252656 6338247 6436836 6545369 
2349.522 6660525 6778167 6893587 7001696 7098044 7179456 7245452 7297980 
2353.380 7341517 7380475 7419504 7461569 7508056 7559806 7616756 7679649 
2357.237 7748724 7824388 7906679 7994385 8085991 8180352 8275813 8371566 
2361.095 8466259 8558572 8646749 8728722 8803003 8868874 8926841 8977815 
2364.952 9023008 9063166 9098421 9128130 9151613 9168635 9179363 9184034 
2368.810 9182747 9175505 9161867 9142037 9117132 9089963 9063707 9042562 
2372.667 9029740 9027507 9036540 9057212 9089590 9134830 9194558 9270915 
2376.524 9365702 9479271 9610959 9759088 9921471 10096361 10282381 10478597 
2380.382 10684138 10897183 11115159 11334877 11552972 11766375 11972595 
2383.757 12169166 12353521 12522777 12673335 12802139 12906609 12985669 
2387.132 13040194 13072086 13084173 13079154 13059144 13025786 12980071 
2390.508 12923130 12856469 12781288 12698547 12609134 12512955 12410080 
2393.883 12300787 12186341 12069030 11951785 11838248 11731754 11635427 
2397.258 11552155 11484310 11434369 11404604 11396678 11411135 11446989 
2400.633 11502614 11575328 11662894 11763549 11876930 12003080 12142656 
2404.009 12295844 12462452 12641882 12833399 13036199 13250025 13474040 
2407.384 13707505 13949752 14199940 14458152 14725667 15004256 15295722 
2410.759 15600778 15917597 16241733 16566938 16885116 17188812 17472088 
2414.134 17729976 17959180 18156926 18320474 18447818 18537990 18592110 
2417.510 18613760 18608228 18582392 18541898 18490862 18431398 18363332 
2420.885 18285844 18197902 18099680 17992540 17878620 17760694 17641626 
2424.260 17525180 17414798 17314996 17230420 17165336 17123286 17106362 
2427.635 17115566 17150790 17212254 17300374 17415902 17559058 17729734 
2431.010 17925994 18144868 18383208 18638040 18908316 19194382 19497442 
2434.386 19818956 20159900 20519836 20897698 21292278 21702858 22129898 
2437.761 22574564 23038482 23523150 24029896 24559496 25112844 25691292 
2441.136 26295432 26926470 27584372 28268664 28978332 29711940 30468824 
2444.511 31247788 32048482 32869350 33708420 34562068 35426708 36298256 
2447.887 37173184 38049084 38924036 39795520 40661232 41517912 42362444 
2451.262 43191964 44004120 44796896 45567636 46312952 47026832 47702128 
2454.637 48329296 48899368 49403096 49831632 50177864 50434492 50595212 
2458.012 50655044 50609808 50457344 50197428 49831072 49360740 48789136 
2461.388 48120772 47360412 46514416 45591412 44600960 43553752 42461448 
2464.763 41334968 40185488 39024180 37862176 36711812 35586176 34497524 
2468.138 33458192 32478110 31564154 30720784 29949332 29249204 28618504 
2471.513 28055090 27555704 27117090 26734134 26401264 26111752 25858794 
2474.889 25636632 25439948 25264564 25106840 24962614 24827696 24697872 
2478.264 24569490 24440654 24310734 24181100 24053010 23927966 23805830 
2481.639 23685514 23565126 23442428 23316828 23188468 23059062 22930324 
2485.014 22804942 22684658 22571004 22465092 22367646 22279044 22198554 
2488.390 22124910 22055394 21987004 21917648 21845762 21771656 21696518 
2491.765 21622542 21551366 21483402 21417956 21353286 21287616 21219972 
2495.140 21149626 21076926 21001838 20924156 20842768 20756114 20662422 
2498.515 20560758 20450714 20333338 20210022 20082856 19953608 19824296 
2501.891 19696236 19570812 19448512 19329776 19214432 19102134 18992702 
2505.266 18886308 18784022 18687190 18597194 18515134 18440420 18371560 
2508.641 18305718 18239470 18170054 18094500 18011430 17919744 17819170 
2512.016 17709610 17591834 17467468 17338650 17208632 17080274 16956190 
2515.392 16837306 16723450 16613375 16505361 16398644 16293297 16190520 
2518.767 16092340 16000303 15915947 15839685 15771855 15712004 15660612 
2522.142 15617643 15583709 15559016 15543561 15537071 15539269 15549812 
2525.517 15568117 15593050 15623206 15656078 15689297 15720764 15749281 
2528.893 15775291 15800236 15826009 15853362 15882196 15910964 15937224 
2532.268 15959051 15975516 15987411 15996657 16005872 16016632 16030109 
2535.643 16046576 16066242 16089555 16117854 16152827 16196160 16247787 
2539.018 16307229 16372425 16441245 16511591 16582772 16654655 16727515 
2542.394 16801418 16875610 16948712 17019898 17087958 17153686 17218320 
2545.769 17283068 17349238 17416418 17483886 17549880 17613400 17673546 
2549.144 17730388 17784718 17836916 17887218 17935386 17981072 18024070 
2552.519 18064758 18104276 18143830 18184218 18225544 18267460 18308068 
2555.895 18345740 18378472 18404778 18423308 18432988 18433436 18423966 
2559.270 18404710 18375742 18337514 18290338 18234700 18170814 18098992 
2562.645 18019824 17934454 17844270 17751684 17658398 17566096 17475918 
2566.020 17388654 17305100 17226352 17154132 17089922 17035198 16990678 
2569.396 16956052 16929936 16911334 16899070 16892800 16893178 16901066 
2572.771 16916950 16940790 16971796 17008870 17051222 17098368 17150412 
2576.146 17207392 17268792 17333376 17399448 17465464 17529938 17593250 
2579.521 17656326 17720864 17788688 17860668 17937424 18019064 18105726 
2582.896 18197866 18296074 18400596 18510846 18625174 18740844 18855610 
2586.272 18967328 19075646 19181256 19285678 19390230 19495536 19600726 
2589.647 19704764 19806054 19904210 19999404 20092538 20184892 20277092 
2593.022 20368756 20458772 20546342 20630420 20710968 20788890 20865470 
2596.397 20942342 21021070 21103154 21190050 21283092 21383914 21493326 
2599.773 21611956 21739328 21874508 22016284 22163510 22315738 22472768 
2603.148 22634808 22802010 22974340 23151422 23332946 23518918 23709658 
2606.523 23905524 24106876 24313048 24522682 24733858 24944294 25152338 
2609.898 25356550 25556288 25750422 25937328 26114496 26278888 26427180 
2613.274 26556782 26666130 26755030 26824280 26875002 26908666 26926398 
2616.649 26929112 26918114 26894566 26860514 26818042 26768880 26714824 
2620.024 26657568 26598560 26539524 26482398 26428800 26380242 26337150 
2623.399 26299306 26266040 26236404 26210430 26188608 26172418 26163514 
2626.775 26163268 26171962 26189276 26214688 26247068 26286176 26332256 
2630.150 26386018 26447920 26517968 26595600 26679766 26769020 26862490 
2633.525 26959220 27059040 27161496 27266304 27372794 27480334 27589138 
2636.900 27699098 27810994 27925534 28043426 28164462 28288078 28413390 
2640.276 28539306 28664798 28789440 28912880 29034830 29154866 29272632 
2643.651 29387912 29500776 29612216 29723328 29835818 29951248 30070544 
2647.026 30194276 30322236 30454394 30590394 30730526 30874762 31023564 
2650.401 31176866 31334638 31496604 31662938 31833794 32010316 32193654 
2653.777 32384746 32584778 32793730 33011400 33236902 33469324 33707812 
2657.152 33951732 34201024 34455772 34716160 34982480 35254504 35531768 
2660.527 35813628 36099136 36386988 36676260 36966232 37256356 37545920 
2663.902 37834916 38123272 38410696 38697300 38983292 39269296 39555880 
2667.278 39844224 40135080 40429148 40726876 41028376 41333804 41643420 
2670.653 41957748 42277304 42602396 42933036 43268244 43606792 43946920 
2674.028 44286808 44624864 44959804 45290108 45614304 45930632 46237280 
2677.403 46532892 46817340 47092004 47359932 47625328 47893548 48169524 
2680.779 48457604 48761180 49082484 49423220 49784696 50168008 50573956 
2684.154 51003052 51455472 51930960 52428572 52947720 53487196 54046188 
2687.529 54623328 55217156 55825884 56447884 57081284 57725212 58379124 
2690.904 59042980 59717396 60403024 61100912 61811688 62536180 63275112 
2694.280 64029008 64797788 65580456 66375932 67182224 67997768 68821288 
2697.655 69651816 70489400 71334224 72186168 73044448 73908400 74776472 
2701.030 75647000 76518520 77389216 78257144 79119368 79972120 80810976 
2704.405 81630880 82426640 83193568 83927040 84622128 85274424 85878800 
2707.781 86430272 86924008 87356344 87724432 88027208 88264656 88437488 
2711.156 88547536 88596656 88586624 88519224 88395576 88216104 87980704 
2714.531 87688584 87339208 86932016 86467640 85947048 85372664 84747000 
2717.906 84073184 83354920 82596328 81802168 80979120 80133712 79273928 
2721.281 78407864 77543120 76687176 75846880 75028880 74239040 73483584 
2724.657 72767528 72094936 71469112 70891552 70363064 69884064 69454304 
2728.032 69074064 68744152 68464800 68236184 68058032 67928952 67847056 
2731.407 67810336 67816032 67861544 67944528 68062680 68213272 68394168 
2734.782 68602496 68835888 69091784 69367688 69660888 69968136 70285776 
2738.158 70609920 70936376 71261360 71580768 71891496 72190272 72474424 
2741.533 72741200 72989296 73217960 73428656 73624056 73808008 73985480 
2744.908 74160936 74337912 74518864 74705040 74896736 75093832 75295824 
2748.283 75501736 75710536 75920672 76130312 76337760 76541832 76742400 
2751.659 76940536 77138800 77340320 77549064 77769320 78004832 78259088 
2755.034 78534568 78832824 79154040 79496928 79859168 80237448 80628112 
2758.409 81027032 81429992 81832408 82228592 82612072 82975360 83310760 
2761.784 83610320 83867872 84078408 84238640 84346824 84401912 84403960 
2765.160 84353024 84250632 84098600 83900344 83660776 83385352 83080456 
2768.535 82752928 82409496 82056896 81701816 81350232 81007312 80677416 
2771.910 80363376 80067176 79789840 79531864 79293848 79075880 78877640 
2775.285 78698008 78534600 78383688 78240480 78098936 77952888 77795080 
2778.661 77618344 77415512 77178888 76902368 76581472 76214376 75802096 
2782.036 75349304 74862600 74349984 73819520 73279104 72734696 72191800 
2785.411 71654696 71127080 70611872 70110784 69625104 69154064 68696336 
2788.786 68249840 67812464 67382664 66959812 66544324 66137260 65740140 
2792.162 65354632 64981812 64622840 64277968 63946724 63628740 63322796 
2795.537 63027560 62741332 62462296 62188600 61918212 61648408 61377016 
2798.912 61101828 60820676 60532356 60236616 59933428 59623272 59306572 
2802.287 58982440 58649824 58306776 57951580 57583092 57201764 56809252 
2805.663 56408796 56004520 55600508 55200488 54808008 54425916 54056316 
2809.038 53701132 53361972 53040032 52736068 52450072 52182236 51931892 
2812.413 51699048 51483112 51283920 51100728 50932780 50779124 50638996 
2815.788 50512240 50399884 50303444 50225884 50170648 50141380 50141012 
2819.164 50172324 50237300 50337448 50473684 50646332 50855068 51098716 
2822.539 51375280 51682288 52016556 52374216 52751404 53143748 53545928 
2825.914 53951972 54355088 54747792 55122308 55471808 55789528 56070188 
2829.289 56308972 56502340 56647612 56743320 56789428 56787916 56742188 
2832.665 56657356 56539172 56393700 56227012 56044704 55852452 55655344 
2836.040 55458556 55267088 55084616 54913916 54756964 54614536 54487632 
2839.415 54377960 54288064 54222588 54187376 54188920 54234488 54332220 
2842.790 54489620 54715888 55021016 55414588 55906600 56504336 57210080 
2846.166 58018340 58913296 59868276 60841828 61783228 62634804 63333608 
2849.541 63824356 64062336 64019672 63690396 63089588 62252648 61225644 
2852.916 60063840 58825072 57559676 56313800 55124944 54019396 53015772 
2856.291 52123876 51345596 50676080 50105124 49619036 49201404 48835964 
2859.667 48507804 48203252 47911640 47624404 47335140 47039460 46734716 
2863.042 46420272 46096844 45766992 45434260 45103364 44779408 44468172 
2866.417 44175132 43905828 43665340 43457464 43285156 43149588 43050496 
2869.792 42986220 42953956 42950300 42970708 43010548 43064696 43128144 
2873.167 43196356 43266232 43336152 43407000 43481156 43562248 43653980 
2876.543 43759436 43880752 44018420 44172164 44341152 44525036 44723284 
2879.918 44935440 45160828 45398248 45645512 45900656 46161324 46425324 
2883.293 46691696 46959560 47228516 47498488 47769368 48040972 48312632 
2886.668 48583500 48852312 49117248 49376296 49627620 49869908 50102448 
2890.044 50325804 50541496 50751488 50958004 51162568 51366480 51569932 
2893.419 51772804 51974836 52175472 52374816 52572944 52770372 52968156 
2896.794 53167976 53371560 53580860 53797544 54022436 54255512 54495744 
2900.169 54741516 54991416 55244172 55499256 55756936 56017680 56282004 
2903.545 56550228 56822736 57100704 57386300 57683060 57996076 58331372 
2906.920 58695184 59094492 59535932 60026516 60574600 61188564 61877364 
2910.295 62649040 63508532 64456232 65485596 66583724 67728848 68891680 
2913.670 70038792 71130976 72128304 72994664 73698256 74217456 74542624 
2917.046 74676312 74632520 74432688 74104024 73672656 73161288 72587384 
2920.421 71961408 71287480 70565992 69795184 68973736 68102720 67186328 
2923.796 66232732 65252960 64259068 63264220 62279956 61315460 60378272 
2927.171 59473120 58603216 57770820 56977412 56224864 55515444 54851772 
2930.547 54236892 53674284 53167412 52720204 52336428 52019952 51774112 
2933.922 51601532 51503556 51480016 51528368 51644708 51822340 52053088 
2937.297 52327644 52635440 52965836 53309444 53657752 54004312 54345176 
2940.672 54678040 55002136 55317136 55622576 55916176 56193752 56448188 
2944.048 56670264 56848644 56970800 57026380 57007636 56912480 56744832 
2947.423 56515660 56241684 55942140 55637944 55348416 55087248 54864288 
2950.798 54682776 54540744 54431588 54346264 54274208 54204608 54128148 
2954.173 54037480 53927472 53795292 53640056 53461792 53260820 53037896 
2957.549 52794096 52530832 52250728 51958032 51657024 51352532 51048812 
2960.924 50748136 50451908 50160200 49873032 49591108 49316456 49051992 
2964.299 48801704 48569012 48356628 48166080 47998188 47852484 47728424 
2967.674 47624996 47540372 47471468 47413812 47361560 47307540 47245660 
2971.050 47170488 47078784 46970120 46846496 46712356 46573208 46436240 
2974.425 46308304 46195412 46102072 46029384 45974388 45928424 45878192 
2977.800 45806568 45693436 45520756 45273340 44941724 44523968 44025680 
2981.175 43459440 42842552 42195428 41540008 40895440 40278984 39703440 
2984.551 39176708 38703600 38285396 37922224 37614020 37361100 37164200 
2987.926 37022624 36932104 36882608 36855808 36826304 36763088 36631668 
2991.301 36403060 36056472 35584196 34994116 34308836 33561988 32789872 
2994.676 32028794 31307716 30643690 30043840 29505458 29020094 28576320 
2998.052 28163614 27774012 27401626 27042960 26695692 26357852 26027874 
3001.427 25704754 25388306 25078862 24778056 24486820 24205902 23934898 
3004.802 23672848 23418298 23170330 22928822 22694468 22468372 22251946 
3008.177 22045494 21848618 21660470 21479294 21303936 21133102 20966438 
3011.552 20803802 20645118 20490556 20340526 20195374 20055788 19922524 
3014.928 19796552 19678484 19568908 19468194 19376372 19293298 19218624 
3018.303 19151508 19090500 19033340 18977402 18919496 18856856 18787204 
3021.678 18708880 18621266 18524056 18417432 18302054 18179002 18050736 
3025.053 17920400 17792244 17670718 17559644 17461568 17376860 17304134 
3028.429 17240212 17181296 17123148 17061836 16994088 16916982 16827972 
3031.804 16725378 16608110 16476519 16332000 16177313 16015979 15851507 
3035.179 15687751 15527456 15373227 15226775 15089736 14963202 14847813 
3038.554 14743629 14650128 14566379 14491037 14423006 14361184 14304712 
3041.930 14253008 14205007 14159853 14115969 14072090 14027325 13980992 
3045.305 13932884 13883379 13832819 13781581 13730178 13679294 13629578 
3048.680 13581680 13535907 13492120 13449261 13405450 13358362 13305916 
3052.055 13246199 13178226 13101658 13016976 12924768 12825959 12721679 
3055.431 12613740 12504327 12396203 12292231 12194758 12105552 12024812 
3058.806 11951750 11885137 11823335 11764707 11708573 11654180 11600919 
3062.181 11548140 11495368 11441989 11388379 11335116 11283627 11235409 
3065.556 11191684 11153063 11119205 11089223 11061861 11035929 11010406 
3068.932 10984476 10957800 10929869 10900682 10870207 10838714 10806646 
3072.307 10774818 10743503 10713378 10684308 10656598 10630146 10605529 
3075.682 10583256 10563939 10547643 10533758 10520859 10506907 10489934 
3079.057 10468482 10442279 10411802 10378714 10344678 10311289 10279668 
3082.433 10250151 10222232 10195467 10168942 10142045 10114302 10085747 
3085.808 10056617 10027624 9999481 9972663 9947439 9923539 9900318 9876963 
3089.665 9853236 9829037 9805380 9783318 9764171 9748414 9736012 9726083 
3093.523 9717748 9710090 9703144 9697554 9694402 9694572 9698638 9705956 
3097.380 9715850 9727168 9738959 9751227 9764239 9778506 9794400 9811820 
3101.238 9830358 9849203 9867574 9885132 9901471 9916658 9930760 9943744 
3105.095 9955779 9967171 9978427 9990226 10002906 10016435 10030303 10043663 
3108.952 10055226 10064789 10072521 10079303 10086797 10096090 10107586 
3112.328 10120982 10135261 10148794 10160564 10169756 10176064 10179830 
3115.703 10180915 10179321 10175013 10167754 10157851 10145606 10131734 
3119.078 10116573 10099888 10081371 10059940 10035321 10007720 9977952 
3122.453 9947880 9919200 9893301 9870557 9850559 9832290 9814836 9797721 
3126.311 9780912 9764984 9750481 9738010 9727337 9718459 9710564 9703314 
3130.168 9696503 9689896 9683323 9676886 9670347 9663943 9657879 9652797 
3134.026 9649748 9649578 9653068 9660725 9672176 9687017 9704161 9722153 
3137.883 9739332 9754174 9765154 9771660 9773456 9771660 9768441 9766103 
3141.740 9767052 9773117 9784843 9801957 9823072 9846457 9870659 9894386 
3145.598 9917200 9938964 9959644 9979748 9999854 10020707 10043493 10068892 
3149.455 10098158 10130683 10166194 10203201 10240313 10275901 10309355 
3152.831 10340436 10369619 10397480 10424800 10451986 10479819 10508875 
3156.206 10540208 10574803 10613474 10656326 10702884 10751722 10801449 
3159.581 10851012 10900240 10949509 11000142 11053534 11110468 11171421 
3162.956 11235681 11302331 11370386 11438825 11507037 11574715 11641588 
3166.332 11707483 11772197 11835592 11897873 11959176 12019601 12079012 
3169.707 12136728 12191691 12242674 12288243 12327544 12360032 12385464 
3173.082 12404011 12415910 12421331 12420888 12414989 12404863 12391806 
3176.457 12377419 12363270 12350282 12339340 12330953 12325090 12321988 
3179.833 12321443 12323284 12327068 12332147 12337839 12343498 12349157 
3183.208 12354918 12361634 12370260 12381578 12396135 12413659 12433946 
3186.583 12456246 12480320 12505793 12533144 12562441 12594229 12628578 
3189.958 12665420 12704688 12745870 12788455 12831795 12875344 12918829 
3193.333 12961977 13005061 13048491 13092471 13137379 13182632 13228026 
3196.709 13272538 13315857 13358088 13400187 13443144 13488087 13535565 
3200.084 13585201 13635835 13686064 13734692 13781238 13826320 13871131 
3203.459 13916975 13964773 14014732 14066580 14119871 14173922 14228527 
3206.834 14283516 14338752 14393927 14448320 14501316 14552741 14602872 
3210.210 14652527 14703251 14755524 14809893 14865471 14921227 14976063 
3213.585 15029638 15082396 15135812 15191053 15248704 15308112 15367907 
3216.960 15426027 15480790 15531851 15580102 15627122 15675280 15726194 
3220.335 15780685 15838448 15898624 15960185 16022338 16084535 16147118 
3223.711 16210228 16274204 16339259 16405595 16473044 16541364 16610038 
3227.086 16677758 16743526 16805930 16864242 16918500 16969592 17019380 
3230.461 17069520 17121596 17175816 17231524 17287446 17341546 17392724 
3233.836 17440908 17486370 17530940 17576170 17623614 17674272 17728422 
3237.212 17785960 17846478 17909038 17973304 18038474 18103896 18169260 
3240.587 18233698 18297008 18358598 18418158 18475372 18529796 18581528 
3243.962 18630846 18678682 18726384 18775682 18828102 18885198 18948084 
3247.337 19016828 19091366 19170798 19253778 19338506 19423008 19505308 
3250.713 19583846 19657822 19727234 19792806 19856030 19918398 19981260 
3254.088 20045170 20110374 20176248 20242862 20309728 20377404 20446062 
3257.463 20516188 20587822 20660442 20733106 20805226 20876282 20945992 
3260.838 21014636 21082562 21149694 21216354 21282048 21346846 21410506 
3264.214 21473654 21536602 21600116 21664334 21729504 21795416 21862382 
3267.589 21930336 21999658 22070734 22143670 22217698 22291496 22363214 
3270.964 22431210 22494576 22553100 22607932 22661304 22715068 22771384 
3274.339 22831028 22894278 22960436 23028352 23096940 23165784 23234570 
3277.715 23303858 23374168 23446100 23519512 23594476 23670224 23746158 
3281.090 23821584 23896318 23970612 24045338 24121340 24199560 24280634 
3284.465 24364350 24450608 24538460 24627312 24716636 24806262 24895728 
3287.840 24985286 25074332 25162768 25250060 25336246 25421750 25507584 
3291.216 25595192 25685456 25779184 25876870 25977954 26081772 26187622 
3294.591 26294870 26403164 26512296 26622232 26732724 26843668 26954990 
3297.966 27066660 27178780 27291636 27405684 27520896 27637334 27755362 
3301.341 27874972 27996846 28122288 28251902 28386790 28527134 28672406 
3304.717 28821696 28973868 29127830 29283124 29439644 29597922 29758490 
3308.092 29921962 30088654 30258642 30431684 30607746 30786722 30968690 
3311.467 31153620 31341902 31533834 31729766 31930250 32135640 32346160 
3314.842 32561816 32782118 33006716 33234898 33466532 33702008 33941916 
3318.218 34186936 34437692 34694264 34956264 35222484 35491744 35762576 
3321.593 36033716 36304132 36573160 36840516 37106164 37370348 37634076 
3324.968 37897892 38162704 38428580 38695088 38960820 39223740 39482320 
3328.343 39734772 39980544 40219620 40452716 40680844 40904396 41123396 
3331.719 41337596 41545804 41746600 41938476 42119628 42288956 42445080 
3335.094 42587412 42716260 42832020 42936072 43029976 43114532 43190392 
3338.469 43257812 43315944 43363908 43400668 43425204 43436260 43432488 
3341.844 43412348 43374304 43317264 43240648 43144608 43030264 42899096 
3345.219 42752932 42592820 42419504 42233044 42033296 41820000 41593244 
3348.595 41352972 41099724 40833336 40554164 40262040 39957548 39641508 
3351.970 39315832 38982640 38644380 38303564 37961496 37619152 37276504 
3355.345 36933292 36589452 36245128 35901436 35559492 35221228 34887752 
3358.720 34559988 34237632 33920600 33607848 33298786 32992918 32690298 
3362.096 32391172 32096426 31806626 31522326 31243372 30969936 30701508 
3365.471 30437904 30179678 29927108 29681250 29443046 29212878 28991048 
3368.846 28776694 28568640 28365214 28165062 27966912 27770196 27574768 
3372.221 27381086 27189714 27001212 26816352 26635480 26459118 26287372 
3375.597 26120584 25958116 25799928 25645172 25493142 25343026 25194332 
3378.972 25046742 24900114 24754344 24609358 24465016 24321140 24177806 
3382.347 24035358 23894534 23755572 23619246 23485550 23354308 23224330 
3385.722 23095124 22965606 22835742 22705884 22576694 22449110 22324076 
3389.098 22201658 22081470 21962432 21843392 21723722 21602762 21480616 
3392.473 21357670 21234760 21112266 20990502 20869398 20749024 20629342 
3395.848 20510770 20394072 20280598 20171632 20068002 19969846 19876390 
3399.223 19786010 19696618 19606342 19513488 19417464 19318066 19215784 
3402.599 19111656 19006200 18900496 18794852 18689888 18586094 18483912 
3405.974 18384142 18287124 18192616 18100200 18009116 17918674 17828250 
3409.349 17737914 17647596 17557814 17468364 17379170 17289550 17198602 
3412.724 17105708 17010698 16914226 16817710 16722692 16630728 16542705 
3416.100 16459003 16378619 16300349 16222162 16142407 16059745 15973659 
3419.475 15884602 15793674 15703106 15614860 15530959 15452601 15380230 
3422.850 15313054 15249802 15188376 15126926 15064043 14998768 14931034 
3426.225 14861151 14789873 14717990 14646290 14575321 14505255 14436126 
3429.601 14367554 14298892 14229657 14159613 14088895 14018394 13949513 
3432.976 13883652 13821770 13764411 13711027 13659940 13608996 13555869 
3436.351 13499024 13437573 13371449 13301576 13229120 13155274 13080998 
3439.726 13007280 12934634 12863910 12795758 12730925 12670128 12613297 
3443.102 12559951 12508487 12456758 12402510 12343124 12277506 12205458 
3446.477 12128551 12049509 11972050 11899746 11835592 11780606 11734103 
3449.852 11693731 11656393 11618582 11577608 11531672 11480262 11423721 
3453.227 11363175 11299373 11233266 11165608 11096837 11027296 10957630 
3456.603 10888349 10820132 10753183 10687466 10622642 10558201 10493498 
3459.978 10427855 10360864 10292458 10222944 10153068 10083677 10016265 
3463.353 9951779 9891200 9834358 9781149 9730014 9679698 9628845 9576407 
3467.210 9522181 9466234 9409007 9351145 9293019 9234766 9176283 9117606 
3471.068 9058632 8999768 8941148 8883246 8826401 8770678 8716248 8663007 
3474.925 8610955 8559722 8508966 8458286 8407136 8354913 8301176 8245656 
3478.783 8188387 8129506 8069586 8009033 7948556 7889133 7831574 7777092 
3482.640 7726732 7680492 7638203 7598278 7558593 7516619 7470300 7418122 
3486.498 7359917 7296532 7230258 7163590 7099222 7039377 6984927 6936477 
3490.355 6893351 6854167 6817209 6780860 6743504 6703897 6661501 6616316 
3494.212 6568714 6519402 6468818 6417668 6366423 6315352 6265329 6216993 
3498.070 6171182 6128166 6088211 6050613 6014562 5978818 5942270 5904280 
3501.927 5864783 5824081 5782408 5740606 5698438 5656240 5613946 5571522 
3505.785 5529571 5488095 5447293 5406865 5366104 5324543 5281778 5237911 
3509.642 5193511 5150156 5109017 5071067 5036640 5005266 4975805 4946882 
3513.500 4917323 4886662 4854762 4822095 4789028 4756130 4723839 4692018 
3517.357 4660904 4630427 4600991 4572729 4546110 4521333 4498131 4475869 
3521.214 4453607 4430242 4404969 4377390 4347468 4316010 4283919 4251562 
3525.072 4219174 4186386 4152631 4117341 4080347 4042387 4004730 3969151 
3528.929 3937352 3910103 3887469 3868480 3852133 3836856 3821546 3805267 
3532.787 3787218 3767164 3744437 3719138 3690933 3660558 3628715 3596675 
3536.644 3565104 3534637 3504708 3474980 3444955 3414797 3385678 3359631 
3540.501 3338161 3323103 3314422 3311284 3311217 3311784 3309915 3303271 
3544.359 3289983 3269117 3239673 3202387 3158228 3109969 3061149 3015837 
3548.216 2977269 2947177 2925094 2908315 2892738 2874226 2849878 2818895 
3552.074 2783145 2745365 2709254 2677515 2651111 2630109 2613308 2599775 
3555.931 2588542 2579142 2571310 2564244 2556678 2547179 2534347 2517650 
3559.789 2497355 2474861 2452069 2430976 2413184 2399657 2390261 2384031 
3563.646 2379067 2372337 2359910 2337590 2301647 2250553 2185344 2110856 
3567.503 2034482 1964014 1905637 1861544 1830798 1809337 1792168 1775167 
3571.361 1755705 1732817 1707568 1681323 1655546 1631166 1608584 1587334 
3575.218 1567148 1547894 1529174 1510620 1491602 1470856 1447850 1422318 
3579.076 1394861 1367239 1341746 1320741 1305652 1297111 1294552 1296413 
3582.933 1301332 1307779 1314027 1318215 1318015 1309806 1290298 1256469 
3586.791 1207756 1146691 1079356 1013891 958066 917621 894479 886942 889997 
3591.130 897832 904971 906598 899858 884153 860282 830005 796012 761291 
3595.470 728233 699027 675365 658142 647192 641119 638033 634914 629837 
3599.809 621542 610691 599510 590452 585807 587233 594267 605183 617991 
3604.149 630103 639526 644603 643774 635246 617560 589091 549809 502005 
3608.489 449629 398652 353651 316943 287632 261904 234519 201402 161326 
3612.828 116813 73696 39000 18456 14413 25248 45893 68891 87217 94144 85792 
3618.132 61236 22498 -25512 -76002 -121551 -156894 -178886 -187431 -184517 
3622.472 -173720 -157821 -139041 -117775 -93129 -64507 -32668 -1192 23061 
3626.811 30351 11199 -40521 -122976 -223398 -322208 -399247 -442643 -452044 
3631.151 -435428 -404245 -369750 -340484 -320254 -309527 -306315 -307871 
3635.008 -311745 -317705 -326446 -338862 -354919 -373260 -391335 -406430 
3638.866 -416824 -422187 -424537 -426192 -429337 -434832 -441286 -445358 
3642.723 -443107 -430628 -406629 -371836 -329856 -285952 -246149 -216145 
3646.581 -200249 -200514 -217371 -249262 -293600 -347139 -405536 -463529 
3650.438 -514531 -551894 -570623 -568605 -547360 -512248 -471340 -433110 
3654.295 -405901 -395374 -402855 -423809 -448734 -466674 -467931 -448635 
3658.153 -410270 -359819 -306944 -260587 -228630 -215516 -221411 -243003 
3662.010 -274362 -308699 -339656 -362500 -373988 -372498 -356607 -325585 
3665.868 -278799 -217238 -142982 -60167 26441 114261 205612 309681 444986 
3670.207 634084 895774 1240951 1670214 2176219 2746465 3364440 4008208 
3674.065 4637962 5193981 5602467 5789594 5714418 5384555 4849066 4174610 
3677.922 3425384 2659979 1924874 1261088 701052 261804 -56854 -272243 
3681.780 -410204 -499374 -561921 -609536 -645799 -668726 -676666 -670711 
3685.637 -657279 -644244 -641134 -654798 -686888 -734126 -789627 -845221 
3689.494 -894823 -936153 -968983 -994802 -1014438 -1027958 -1035098 -1035793 
3693.352 -1030801 -1021248 -1008951 -995827 -983033 -971595 -961941 -953676 
3697.209 -946237 -939228 -932714 -927689 -926036 -930466 -943823 -967330 
3701.067 -1000058 -1038867 -1077837 -1110887 -1133823 -1144464 -1143836 
3704.442 -1134947 -1121066 -1104343 -1085967 -1065508 -1042205 -1015860 
3707.817 -988091 -961544 -940517 -929342 -931326 -947956 -978669 -1020587 
3711.675 -1068086 -1115184 -1155601 -1184052 -1197600 -1195618 -1180153 
3715.050 -1154775 -1123809 -1091685 -1061211 -1033941 -1009348 -986802 
3718.425 -965545 -946700 -931921 -924581 -926466 -938137 -956982 -979033 
3722.282 -999331 -1014438 -1023000 -1027066 -1030008 -1035330 -1045048 
3725.658 -1058534 -1072515 -1082497 -1082761 -1069937 -1043296 -1004521 
3729.033 -957412 -908016 -863178 -828587 -809074 -805602 -816450 -836127 
3732.890 -859176 -881662 -903254 -927590 -958106 -997579 -1043660 -1089933 
3736.748 -1127213 -1148958 -1152296 -1139606 -1115382 -1084910 -1051031 
3740.123 -1014637 -974405 -930797 -886986 -851240 -836127 -854580 -914430 
3743.980 -1009678 -1119381 -1212403 -1263945 -1266258 -1228527 -1168621 
3747.356 -1105930 -1056418 -1028719 -1023760 -1035396 -1054501 -1072879 
3750.731 -1086893 -1097072 -1105632 -1113002 -1115812 -1109466 -1090231 
3754.106 -1058468 -1018670 -977645 -942666 -919125 -908677 -910033 -918894 
3757.964 -931822 -946237 -961842 -978769 -996389 -1011595 -1020422 -1018703 
3761.821 -1004852 -980951 -951857 -923853 -902494 -890392 -887184 -889268 
3765.678 -892574 -894227 -893996 -894790 -900047 -912645 -933012 -958338 
3769.536 -984356 -1005215 -1016951 -1017843 -1008521 -991430 -969677 -945840 
3773.393 -922366 -900708 -881927 -865790 -852364 -841253 -832787 -828091 
3777.251 -829380 -838938 -858581 -887449 -922200 -956718 -984091 -999232 
3781.108 -1000852 -991298 -975826 -960553 -950304 -946799 -949279 -954932 
3784.966 -960090 -962404 -961412 -958172 -954337 -950998 -948353 -945939 
3788.823 -942732 -938963 -935029 -932285 -931359 -931524 -931094 -927160 
3792.680 -917935 -903056 -884407 -866054 -852166 -846511 -849884 -859606 
3796.538 -870188 -875611 -871478 -857126 -835995 -815424 -804973 -813142 
3800.395 -845386 -899948 -966735 -1028983 -1069937 -1079390 -1056352 
3803.771 -1008852 -949642 -894095 -855572 -842245 -854943 -886721 -924217 
3807.628 -952552 -962768 -953147 -928482 -896178 -862913 -831695 -801997 
3811.485 -770610 -734291 -692214 -648115 -609305 -585448 -585679 -613672 
3815.343 -666112 -729462 -785758 -818632 -819492 -790190 -741006 -687914 
3819.200 -647585 -634417 -657047 -713981 -792439 -871444 -931194 -959098 
3823.058 -953775 -922630 -878521 -833911 -798194 -775670 -765086 -760588 
3826.915 -754535 -740742 -717157 -685895 -652812 -623367 -602786 -593157 
3830.772 -593819 -601264 -611191 -619264 -623003 -621282 -614929 -605863 
3834.630 -596830 -591040 -591966 -602522 -623664 -654202 -689898 -724103 
3838.487 -750466 -764524 -765086 -754998 -738525 -721325 -707927 -701411 
3842.345 -703065 -712162 -727080 -745141 -762870 -776960 -784567 -783079 
3846.202 -771139 -748846 -716826 -676236 -628726 -575124 -516682 -455652 
3850.060 -395672 -344093 -310884 -307838 -346178 -430694 -554111 -694861 
3853.917 -824354 -918233 -965512 -970305 -944848 -902329 -853125 -803221 
3857.774 -754965 -708324 -663068 -619429 -578929 -543819 -515921 -496527 
3861.632 -485771 -483587 -490107 -505761 -530582 -563476 -599510 -631506 
3865.489 -651059 -651853 -632862 -598915 -560332 -529093 -516418 -528629 
3869.347 -563674 -611058 -654798 -682488 -688542 -676500 -655625 -637263 
3873.204 -629984 -636799 -654566 -675475 -690196 -691288 -676335 -647651 
3877.062 -610793 -572840 -540278 -518304 -509236 -512446 -523930 -537929 
3880.919 -547923 -548684 -538855 -520720 -500433 -486234 -486499 -507581 
3884.776 -550570 -609338 -670975 -720597 -745174 -739452 -706306 -654930 
3888.634 -597095 -544779 -508012 -492059 -497388 -518999 -548949 -577870 
3892.491 -598385 -606558 -601264 -584124 -557188 -523368 -485705 -447013 
3896.349 -410734 -379980 -357336 -344854 -342801 -349423 -361110 -373789 
3900.206 -383456 -388058 -388322 -387131 -388985 -398254 -417354 -445788 
3904.063 -479714 -513174 -539683 -555203 -558016 -549412 -532965 -512512 
3907.921 -491563 -472168 -454990 -439830 -425828 -412521 -399611 -386502 
3911.778 -373491 -359289 -343695 -325982 -307143 -288932 -274395 -266580 
3915.636 -267541 -277607 -294693 -315122 -334458 -349489 -358527 -362037 
3919.493 -361308 -357865 -352999 -346741 -339590 -332207 -325949 -322407 
3923.351 -323830 -330320 -340782 -352634 -361904 -365811 -362831 -354190 
3927.208 -342437 -330849 -321844 -316877 -315487 -316679 -318864 -321943 
3931.065 -326082 -332207 -340749 -351277 -362500 -372531 -379318 -381768 
3934.923 -380311 -375908 -369850 -363328 -356707 -349787 -342272 -334359 
3938.780 -326413 -319890 -316314 -317308 -323334 -334326 -348695 -364122 
3942.638 -377861 -387396 -390905 -387329 -377398 -362666 -345814 -329459 
3946.495 -316050 -307375 -303699 -304262 -307573 -311911 -315917 -318996 
3950.353 -321479 -323665 -325883 -327803 -328830 -328366 -326347 -323466 
3954.210 -320652 -319062 -319460 -321347 -323565 -324492 -322771 -318135 
3958.067 -311182 -303898 -298170 -295819 -297441 -302507 -309494 -316314 
3961.925 -321281 -322572 -319990 -313401 -303335 -291183 -278071 -265289 
3965.782 -254063 -245056 -238598 -234426 -232075 -231114 -230783 -231313 
3969.640 -232340 -233697 -235088 -235750 -234889 -232041 -227372 -221411 
3973.497 -215317 -209952 -205581 -202236 -198460 -192797 -184318 -172527 
3977.354 -158285 -142982 -128441 -116583 -108599 -104922 -105187 -108699 
3981.212 -114198 -120524 -126619 -131787 -135629 -138610 -141061 -143910 
3985.069 -147818 -153019 -159312 -165638 -170540 -173388 -173720 -172064 
3988.927 -169348 -166996 -165903 -166400 -167923 -169944 -171534 -172163 
3992.784 -171898 -171169 -170540 -170341 -170971 -171799 -172792 -173388 
3996.642 -173455 -172925 -171964 -170540 -169513 -169215 -170209 -173090 
4000.499 -177628 
##END=
