##TITLE=1693_2_b
##JCAMP-DX=5.01  $$ Nicolet v. 1
##DATATYPE=INFRARED SPECTRUM
##ORIGIN=UniL
##OWNER=Nicolet
##LONGDATE=2011/09/29
##TIME=10:20:46
##SPECTROMETER/DATA SYSTEM=Nicolet iS5
##DATA PROCESSING=
Ratio against background
%Transmittance->Absorbance
Truncated
ElementMultiply or ElementDivide
##COMMENTS=
Number of sample scans: 32
Collection length: 51.17 sec
Sample gain: 2.0
Background collected on: Jeu Sep 29 10:17:09 2011 (GMT+02:00);
Number of background scans: 32
Background gain: 2.0
Sample spacing:  1.000
Number of scan points: 12415
Resolution points: 8192
Number of FFT points: 65536
Apodization: N-B fort;
Phase correction: Mertz;
Laser frequency: 15798.0 cm-1
Number of rejected sample scans: 0
Number of rejected background scans: 0
Bench serial number: ASB1000141;
##RESOLUTION=4.000
##XUNITS=1/CM
##YUNITS=ABSORBANCE
##FIRSTX=649.893372
##LASTX=4000.122314
##FIRSTY=0.063412
##MAXX=4000.122314
##MINX=649.893372
##MAXY=0.252635
##MINY=-0.000786
##XFACTOR=1.000000
##YFACTOR=1.000000E-009
##NPOINTS=6950
##DELTAX=0.482117
##ZPD=6100
##XYDATA=(X++(Y..Y))
649.893 63411936 63618004 63865000 64153812 64480832 64836376 65209032 
653.268 65593564 65996260 66431760 66915244 67455296 68045552 68668776 
656.643 69306160 69947704 70600136 71285840 72034032 72866232 73791400 
660.018 74803552 75891544 77049208 78281032 79598808 81011576 82512696 
663.393 84076312 85659840 87219584 88722064 90139400 91446960 92604328 
666.767 93539520 94159832 94385016 94196960 93654192 92855992 91883784 
670.142 90772880 89518736 88103624 86520400 84790664 82966008 81110728 
673.517 79289320 77542880 75884328 74309448 72808784 71380768 70034280 
676.892 68783480 67639016 66602804 65665788 64814828 64037608 63327892 
680.267 62683640 62103536 61580744 61101064 60643668 60189380 59724808 
683.642 59247932 58767636 58299916 57860756 57460460 57102028 56781612 
687.016 56491660 56223280 55969164 55722244 55474484 55217492 54942116 
690.391 54640236 54308152 53947132 53562756 53162920 52754324 52341960 
693.766 51928084 51515760 51111464 50726648 50377744 50082216 49852184 
697.141 49689284 49580932 49500860 49410452 49268648 49042236 48710064 
700.516 48271600 47744808 47163432 46566824 45993544 45473956 45023640 
703.890 44645428 44330952 44066828 43839076 43636832 43454280 43290172 
707.265 43146112 43025696 42933948 42876052 42857108 42883292 42961860 
710.640 43103004 43322904 43642988 44087840 44679580 45425172 46305800 
714.015 47265420 48217136 49048800 49642404 49909792 49804280 49339768 
717.390 48585132 47659824 46710884 45882276 45312104 45108036 45335056 
720.765 46012732 47099208 48491204 50011052 51435968 52528776 53065228 
724.139 52901456 52000572 50449120 48431524 46192020 43982780 41991432 
727.514 40332388 39036252 38071800 37373812 36872656 36515528 36265984 
730.889 36101224 36005640 35961504 35951680 35962368 35987028 36028280 
734.264 36093628 36190384 36320556 36479200 36657620 36849716 37055820 
737.639 37284192 37547580 37856896 38216936 38623376 39064272 39523292 
741.013 39984868 40433040 40850552 41217496 41507996 41694296 41754260 
744.388 41676240 41465164 41141464 40736048 40280036 39796904 39301320 
747.763 38799420 38295492 37796416 37312500 36856240 36437616 36060360 
751.138 35723108 35422356 35157488 34935080 34767808 34670396 34654176 
754.513 34722224 34867968 35077088 35332240 35617032 35915440 36212028 
757.888 36490012 36729984 36915076 37035648 37095192 37110676 37109768 
761.262 37122728 37171344 37265852 37405412 37585048 37804044 38072632 
764.637 38411712 38850508 39419076 40141112 41034968 42110356 43368592 
768.012 44797224 46365628 48025724 49716928 51395456 53066728 54820716 
771.387 56833196 59342048 62584400 66680216 71544392 76802112 81843448 
774.762 85860792 88045224 87853968 85126136 80181528 73682432 66511264 
778.136 59515412 53315064 48297448 44565088 42016400 40427224 39548840 
781.511 39169888 39128408 39326568 39704096 40217732 40836464 41538440 
784.886 42316272 43178280 44145348 45240944 46482700 47879560 49437068 
788.261 51164356 53083572 55231980 57655060 60402300 63516816 67032532 
791.636 70981984 75399232 80323352 85793120 91828352 98407768 105437480 
795.010 112746824 120076576 127075968 133362088 138522752 142164576 
797.903 143993280 143835952 141698032 137763664 132389856 126049312 
800.796 119229568 112418256 106011040 100265464 95316048 91157032 87680640 
804.171 84711040 82065896 79600560 77233744 74965520 72859880 71017296 
807.546 69525152 68428384 67703288 67261640 66960508 66633508 66138460 
810.920 65369068 64277164 62869868 61194172 59318612 57312796 55245040 
814.295 53174232 51149744 49217956 47417880 45779432 44323940 43059792 
817.670 41984172 41086684 40354348 39776240 39344812 39057316 38913272 
821.045 38912836 39056080 39344704 39784124 40385148 41165104 42145372 
824.420 43344244 44773128 46427500 48282080 50282388 52344912 54360608 
827.794 56189640 57686844 58719160 59182768 59036376 58309772 57108412 
831.169 55586916 53933176 52340580 50963780 49916852 49253692 48965528 
834.544 48985964 49200140 49471044 49642960 49575064 49168640 48374408 
837.919 47208752 45744016 44097012 42397368 40761888 39284600 38017476 
841.294 36976800 36151384 35515656 35039804 34695520 34460400 34314572 
844.669 34239532 34219092 34239852 34292700 34374676 34486656 34630672 
848.043 34807548 35015308 35250692 35511304 35798484 36117388 36476028 
851.418 36882108 37339616 37848436 38405016 39005840 39650328 40342204 
854.793 41088248 41896732 42775048 43728984 44764680 45891520 47123288 
858.168 48480496 49988152 51671392 53556876 55668980 58029476 60658412 
861.543 63566640 66748096 70163160 73728448 77310776 80716968 83727784 
864.917 86115680 87668800 88241104 87762104 86253152 83820208 80644952 
868.292 76960992 73003368 69005312 65163484 61615220 58452432 55716140 
871.667 53407604 51502252 49961796 48744948 47810348 47122436 46650376 
875.042 46364708 46239932 46253608 46387492 46629900 46974996 47419616 
878.417 47961556 48595100 49309920 50092144 50926000 51796804 52694464 
881.792 53611900 54545332 55492024 56447584 57404452 58351080 59271024 
885.166 60145384 60955776 61687088 62334604 62907748 63433604 63952908 
888.541 64514084 65165832 65941916 66857068 67901680 69046792 70248496 
891.916 71456536 72624632 73709368 74671872 75478472 76095016 76489080 
895.291 76634120 76508752 76102984 75418512 74471000 73289376 71915464 
898.666 70406280 68826448 67244728 65730700 64340404 63115148 62077464 
902.040 61230988 60565304 60062700 59705112 59478212 59372324 59382620 
905.415 59504960 59734996 60067756 60499260 61027992 61656348 62389532 
908.790 63233404 64191416 65263280 66445812 67734856 69127720 70625360 
912.165 72231280 73950040 75785248 77739632 79817200 82026832 84386496 
915.540 86924856 89676136 92678968 95967752 99565904 103483392 107710928 
918.914 112217848 116939464 121773280 126578080 131161408 135313216 
921.807 138835584 141572608 143465888 144575232 145094896 145313424 
924.700 145592480 146322976 147836912 150395104 154136240 159053552 
927.593 164977856 171567664 178357040 184721984 189962640 193412832 
930.485 194459360 192691168 187970336 180455168 170593504 159036352 
933.378 146584304 134011328 121990080 111063264 101559576 93642232 87339368 
936.753 82580976 79250224 77216568 76363752 76580608 77746328 79716944 
940.128 82281936 85159112 88027328 90520016 92303056 93136496 92894888 
943.502 91604408 89420000 86603960 83453328 80249008 77231568 74554584 
946.877 72295064 70466176 69036584 67952392 67153368 66588512 66214360 
950.252 65996528 65908788 65928220 66034952 66213704 66452032 66741220 
953.627 67075760 67450536 67860616 68300240 68762904 69242888 69736936 
957.002 70243472 70762808 71295720 71841880 72399768 72966752 73541000 
960.377 74122024 74711616 75313040 75929432 76562072 77209920 77870192 
963.751 78539968 79217576 79904016 80601784 81313704 82040648 82780632 
967.126 83529752 84283256 85038720 85796264 86558904 87330536 88113648 
970.501 88907648 89708888 90513120 91316672 92118808 92921328 93727912 
973.876 94541680 95363792 96194080 97032336 97880024 98741168 99622208 
977.251 100528288 101462136 102421904 103401536 104392648 105387472 
980.143 106380472 107367688 108345584 109308592 110247824 111153352 
983.036 112016040 112831584 113602360 114336600 115045664 115739840 
985.929 116426624 117109912 117791920 118476096 119168488 119877320 
988.821 120611016 121375008 122170064 122993320 123840560 124709328 
991.714 125600544 126517904 127465728 128445448 129454000 130484808 
994.607 131530136 132585048 133649048 134725632 135819184 136932208 
997.500 138063584 139209312 140365696 141532448 142714352 143920624 
1000.392 145160352 146438880 147756768 149109648 150493392 151907008 
1003.285 153355424 154848144 156395664 158004368 159674384 161399920 
1006.178 163173664 164990000 166848384 168751712 170702752 172699776 
1009.070 174734960 176794768 178864336 180932960 182995312 185050160 
1011.963 187095968 189125600 191125600 193079024 194971536 196798400 
1014.856 198567760 200299312 202015904 203737328 205475504 207232608 
1017.748 209004720 210785840 212570608 214351920 216118656 217854096 
1020.641 219536800 221147840 222680592 224147168 225580560 227024496 
1023.534 228527584 230127216 231842576 233675600 235614624 237640864 
1026.427 239729888 241851680 243965616 246011152 247914896 249593104 
1029.320 250960800 251951392 252517936 252634800 252295232 251504656 
1032.213 250280352 248651504 246665248 244386576 241885312 239231488 
1035.106 236473184 233626032 230671056 227560320 224232800 220623936 
1037.999 216683568 212382400 207713664 202696816 197377824 191832816 
1040.892 186157440 180463152 174864160 169450208 164280976 159375296 
1043.785 154713904 150250288 145927856 141700016 137537248 133435504 
1046.678 129412216 125501544 121744336 118178640 114838472 111746168 
1049.571 108911888 106333488 103997328 101881000 99954952 98189840 96558192 
1052.947 95037464 93611896 92270520 91004608 89806056 88665536 87572952 
1056.322 86519352 85497144 84501920 83530992 82582016 81651712 80735240 
1059.697 79826832 78921832 78018592 77119056 76228600 75353872 74501792 
1063.072 73678280 72887320 72132688 71417952 70746544 70120912 69540000 
1066.448 68998792 68486880 67991184 67497712 66995532 66479756 65952292 
1069.823 65421572 64899856 64402700 63946076 63545196 63215704 62971600 
1073.198 62825108 62786088 62859720 63046484 63340664 63731676 64203440 
1076.573 64733096 65292740 65846816 66352196 66766060 67046144 67161456 
1079.948 67098812 66865920 66491924 66019788 65504440 65002204 64563640 
1083.324 64236284 64059728 64066716 64287460 64747752 65469304 66471228 
1086.699 67766880 69363528 71257848 73432728 75848176 78431432 81081944 
1090.074 83661736 86007624 87964920 89393168 90201584 90365520 89930464 
1093.449 89006872 87743728 86323112 84923312 83695480 82764952 82209656 
1096.825 82063224 82318376 82930912 83825352 84896568 86027008 87086632 
1100.200 87940416 88470920 88577728 88192184 87289464 85887560 84047728 
1103.575 81857968 79429568 76876416 74298168 71783160 69396184 67178592 
1106.950 65154240 63330196 61701028 60253212 58968320 57825552 56802756 
1110.326 55879768 55037828 54259228 53529212 52833720 52159740 51497032 
1113.701 50837116 50175744 49513116 48854280 48208136 47585104 46996556 
1117.076 46452756 45960724 45525652 45150128 44835688 44583336 44394584 
1120.451 44271508 44216332 44230084 44310656 44449748 44630960 44826760 
1123.827 44997804 45099504 45083736 44907884 44546144 43992204 43263012 
1127.202 42393128 41431700 40431188 39436492 38484692 37597904 36785340 
1130.577 36046568 35374760 34760200 34191384 33657468 33148348 32655538 
1133.952 32173746 31701144 31239812 30794370 30370774 29974216 29607818 
1137.328 29272774 28969158 28696902 28457044 28252008 28084320 27956348 
1140.703 27868968 27821946 27814738 27847452 27921576 28039822 28204802 
1144.078 28417564 28676620 28977800 29314706 29679264 30063228 30457274 
1147.453 30849932 31229130 31580084 31888526 32143060 32337234 32470756 
1150.829 32549746 32584958 32589280 32574992 32553460 32534066 32524138 
1154.204 32530352 32557458 32608174 32682438 32777116 32886360 33003032 
1157.579 33120416 33232860 33336136 33427202 33503394 33561276 33597464 
1160.954 33608488 33591520 33544808 33467102 33357606 33215440 33039536 
1164.330 32829500 32586638 32314352 32018590 31706206 31385034 31061502 
1167.705 30740698 30426992 30124414 29837806 29573516 29337784 29136478 
1171.080 28973232 28849100 28763066 28713326 28699450 28722636 28786536 
1174.455 28895846 29055306 29268556 29538050 29865808 30254806 30709404 
1177.831 31236144 31842530 32536138 33324976 34216012 35216376 36334280 
1181.206 37577528 38954332 40471880 42135148 43947988 45913508 48035084 
1184.581 50316388 52759412 55362000 58112836 60987500 63949412 66943652 
1187.956 69901576 72745744 75384024 77722352 79670968 81147072 82093392 
1191.332 82483848 82329112 81674304 80593328 79180520 77528816 75726200 
1194.707 73843952 71927192 70000024 68066712 66119248 64145824 62139316 
1198.082 60102420 58051288 56013756 54023968 52121072 50340352 48709656 
1201.457 47249388 45969564 44871324 43948168 43188748 42577656 42095900 
1204.833 41723436 41437968 41215164 41032820 40869884 40708500 40536844 
1208.208 40347368 40136860 39905276 39654468 39388204 39111728 38833080 
1211.583 38562900 38313588 38099760 37935856 37835056 37810156 37871936 
1214.958 38030276 38295024 38674372 39175548 39803436 40560416 41447192 
1218.333 42463420 43609868 44888300 46301784 47853000 49543568 51373604 
1221.709 53342636 55451404 57703644 60105960 62667488 65396072 68294888 
1225.084 71359800 74577520 77925224 81368008 84861112 88346472 91748824 
1228.459 94984072 97956616 100565880 102723224 104351320 105394944 105829552 
1231.834 105663216 104944280 103756720 102228864 100519848 98799240 97251304 
1235.210 96045456 95323640 95208936 95789792 97126480 99257680 102198760 
1238.585 105943752 110458688 115682448 121515336 127812192 134400768 
1241.478 141068016 147570800 153665888 159096048 163617312 167031648 
1244.371 169187696 170012240 169513312 167778864 164960064 161245232 
1247.264 156860032 152034320 146986896 141926256 137010240 132336200 
1250.157 127929208 123737376 119643112 115483504 111100968 106365312 
1253.050 101209408 95646256 89765024 83717216 77675160 71822608 66317796 
1256.426 61268300 56737656 52737152 49239108 46187784 43515844 41156840 
1259.801 39047056 37136152 35386444 33769872 32269240 30873232 29573764 
1263.176 28363338 27233528 26174250 25176392 24232318 23337456 22491190 
1266.551 21695090 20951138 20260150 19621074 19031300 18488788 17993090 
1269.927 17545774 17149686 16807410 16519507 16284319 16098667 15959773 
1273.302 15866799 15821232 15825562 15881406 15987789 16140034 16330520 
1276.677 16549073 16785956 17031302 17275240 17508654 17722106 17907832 
1280.052 18061754 18183874 18278138 18350232 18403740 18436998 18441804 
1283.427 18405194 18313736 18158720 17939806 17666300 17354928 17026238 
1286.803 16698761 16387256 16101316 15845802 15623790 15436910 15286043 
1290.178 15169779 15084385 15024218 14982339 14953976 14937619 14935424 
1293.553 14951816 14990983 15055124 15143943 15255533 15388846 15545004 
1296.928 15727911 15943274 16196057 16488979 16822188 17194326 17603774 
1300.304 18049768 18531074 19043864 19578160 20117768 20638966 21114734 
1303.679 21520898 21837434 22052954 22164694 22177074 22100018 21947098 
1307.054 21736470 21488972 21227176 20974750 20750866 20568716 20433732 
1310.429 20343790 20292368 20271884 20276642 20303444 20350630 20416228 
1313.805 20495312 20580804 20665618 20743950 20813430 20875204 20932084 
1317.180 20986016 21036756 21081588 21117204 21141800 21157002 21167230 
1320.555 21178118 21194678 21219276 21252714 21295758 21352208 21429756 
1323.930 21540640 21698154 21915802 22205354 22575124 23032230 23581638 
1327.306 24224610 24955208 25755486 26594474 27425236 28195362 28854732 
1330.681 29363272 29701968 29873476 29901586 29821232 29673942 29501060 
1334.056 29336330 29208412 29140196 29147886 29243356 29433012 29718998 
1337.431 30101296 30580582 31161096 31851086 32661256 33599504 34667740 
1340.807 35857996 37153008 38526224 39944580 41369116 42750444 44035252 
1344.182 45165900 46084864 46748812 47130376 47222788 47036988 46597108 
1347.557 45932804 45071900 44040680 42863544 41564252 40172660 38724576 
1350.932 37259388 35821152 34449852 33176600 32024548 31006446 30127540 
1354.308 29388410 28786536 28315414 27963202 27714568 27550654 27453262 
1357.683 27409708 27413132 27462650 27560258 27706834 27900306 28136816 
1361.058 28413992 28735380 29111744 29561848 30105416 30756882 31523786 
1364.433 32405704 33398214 34495876 35692316 36975464 38317676 39672220 
1367.809 40967344 42109156 43002572 43559756 43716672 43445160 42750992 
1371.184 41673616 40274728 38641088 36875720 35084308 33379108 31856898 
1374.559 30583746 29591430 28874632 28405148 28146678 28073294 28177790 
1377.934 28474734 28996182 29786596 30900022 32389674 34305252 36680048 
1381.310 39510556 42730372 46185796 49651172 52823132 55371940 57009832 
1384.685 57500704 56717040 54661128 51491884 47516080 43129644 38769388 
1388.060 34784964 31385746 28643526 26516136 24904044 23688558 22766462 
1391.435 22055046 21493150 21042042 20677086 20386154 20166252 20019286 
1394.811 19947640 19951042 20025044 20162330 20355422 20596300 20876524 
1398.186 21185180 21506484 21822450 22116580 22377692 22602732 22795270 
1401.561 22962008 23109590 23242752 23365532 23483032 23603048 23736710 
1404.936 23894462 24083794 24305232 24553326 24819278 25095852 25381210 
1408.312 25679762 25999800 26349120 26731950 27146858 27588926 28052440 
1411.687 28533962 29032564 29546598 30070438 30591888 31092928 31557598 
1415.062 31976148 32351762 32699372 33043504 33411562 33826140 34303352 
1418.437 34850628 35467440 36149260 36888416 37673896 38492404 39329508 
1421.813 40174256 41023824 41890308 42801672 43799972 44927392 46213584 
1425.188 47668592 49282236 51035324 52907968 54888800 56968196 59128928 
1428.563 61339272 63543820 65669836 67646840 69418960 70963960 72294752 
1431.938 73456864 74514728 75535440 76588272 77739272 79057752 80627712 
1435.313 82542392 84888952 87723536 91033048 94737808 98720952 102864328 
1438.689 107063592 111211080 115186336 118818080 121888336 124181512 
1441.582 125495344 125697416 124748016 122693112 119649744 115772368 
1444.475 111247768 106262040 100982248 95570648 90173656 84937256 80027216 
1447.850 75605120 71804736 68700720 66289192 64502552 63241264 62416848 
1451.225 61968116 61867276 62107968 62684028 63575960 64755976 66190936 
1454.601 67859840 69763392 71909288 74292976 76866528 79529752 82154848 
1457.976 84635456 86924008 89022168 90957944 92765648 94474744 96105968 
1461.351 97667744 99156296 100545576 101782016 102794632 103503288 103850848 
1464.726 103830904 103498152 102949400 102281232 101569040 100851408 
1467.619 100137800 99423696 98698040 97942040 97121128 96175472 95019816 
1470.995 93553616 91703272 89464496 86934168 84284864 81704496 79330120 
1474.370 77217280 75364712 73754016 72381880 71275808 70484800 70052496 
1477.745 70003952 70335328 71022840 72039472 73370544 75020888 77010912 
1481.120 79364648 82096640 85204632 88672200 92478904 96610920 101070432 
1484.496 105869040 111008504 116464232 122149032 127886384 133424368 
1487.389 138417952 142464480 145171776 146187680 145293472 142475360 
1490.282 137956224 132160528 125590768 118732672 111934224 105379152 
1493.175 99140392 93205360 87537936 82132952 77028752 72315264 68112016 
1496.550 64522044 61596740 59320360 57635344 56463660 55734036 55395012 
1499.925 55408752 55745220 56375556 57265196 58373212 59656188 61056444 
1503.301 62503732 63909604 65138884 66010536 66298612 65762424 64249040 
1506.676 61789304 58616640 55054300 51374424 47728424 44163580 40684264 
1510.051 37297080 34024256 30917204 28038442 25435698 23138142 21145348 
1513.426 19435032 17973992 16726412 15658723 14737116 13930831 13216618 
1516.802 12581267 12026617 11563962 11203856 10946111 10774071 10655070 
1520.177 10551887 10435016 10299787 10169620 10083440 10071401 10137330 
1523.552 10261652 10412854 10564618 10703665 10836132 10981316 11162412 
1526.927 11392359 11669020 11978487 12305832 12643826 12996048 13374045 
1530.302 13789823 14249550 14750039 15280689 15827486 16381716 16942510 
1533.678 17517140 18112048 18727768 19355136 19979802 20585842 21160272 
1537.053 21697214 22193532 22648038 23056862 23408822 23685480 23868978 
1540.428 23955486 23959864 23909938 23834184 23747174 23646886 23518010 
1543.803 23343190 23113504 22836442 22534288 22236392 21964732 21723688 
1547.179 21501332 21275052 21024234 20738214 20423624 20100310 19793500 
1550.554 19519206 19277782 19055186 18832530 18596296 18345394 18092912 
1553.929 17860426 17668612 17526006 17426456 17350134 17270792 17156926 
1557.304 16974586 16693527 16299076 15812092 15293594 14821653 14452054 
1560.680 14199700 14049365 13971274 13935040 13913246 13887518 13850880 
1564.055 13807917 13772585 13761196 13785001 13844552 13929565 14023493 
1567.430 14111553 14184432 14241332 14289372 14340533 14405880 14491449 
1570.805 14598965 14727142 14874455 15038796 15216171 15399694 15576668 
1574.181 15732033 15852435 15932789 15982529 16025467 16092477 16204793 
1577.556 16368710 16578263 16823150 17096334 17397278 17732046 18109078 
1580.931 18535398 19013436 19539514 20104648 20696824 21299690 21891756 
1584.306 22447086 22931862 23311690 23558340 23655142 23604692 23429734 
1587.682 23174732 22896898 22661060 22534184 22571876 22816676 23293790 
1591.057 24004926 24924854 25994628 27129470 28214596 29122020 29737414 
1594.432 29966478 29759308 29119042 28100936 26801056 25330556 23806216 
1597.807 22323832 20951138 19734202 18694904 17839262 17161374 16647942 
1601.183 16282083 16047332 15932411 15931414 16043242 16267668 16601775 
1604.558 17036024 17554538 18132914 18739634 19338402 19883606 20325110 
1607.933 20614748 20707944 20574900 20205648 19612618 18830110 17910076 
1611.308 16919394 15922582 14973869 14111246 13349068 12685309 12106063 
1614.684 11594282 11133074 10711782 10328866 9990869 9709921 9497085 9357543 
1618.541 9288517 9280054 9316714 9380904 9455533 9526211 9585215 9632979 
1622.398 9677699 9731065 9803110 9898013 10013484 10143843 10284349 10433218 
1626.256 10591066 10758889 10935238 11115805 11294441 11466824 11632569 
1629.631 11796573 11965749 12146166 12339305 12541636 12744437 12937399 
1633.006 13111425 13258634 13374422 13457566 13510031 13537820 13552417 
1636.382 13568176 13597953 13650161 13726005 13820163 13921867 14017881 
1639.757 14097452 14154684 14191450 14216100 14239861 14271224 14311424 
1643.132 14354403 14387898 14398516 14374439 14310466 14209389 14082324 
1646.507 13945475 13816845 13713592 13647973 13627013 13652520 13720466 
1649.883 13820505 13933945 14035539 14089956 14060590 13926520 13705316 
1653.258 13458660 13256824 13139974 13102033 13112892 13139120 13157324 
1656.633 13155718 13130924 13085232 13021790 12942349 12845549 12728059 
1660.008 12586282 12417785 12222873 12003795 11764742 11512515 11256321 
1663.384 11007007 10776076 10571951 10397548 10248761 10115081 9981444 
1666.759 9831002 9649375 9428747 9169921 8882773 8582870 8286755 8007311 
1670.616 7752029 7524002 7323085 7146276 6987082 6835183 6676978 6499289 
1674.474 6296694 6076653 5860585 5674770 5539404 5459607 5426156 5421794 
1678.331 5430082 5441455 5455346 5479337 5523799 5595855 5694275 5808902 
1682.188 5922989 6020005 6089623 6135962 6177971 6241933 6347224 6496127 
1686.046 6680040 6886080 7104376 7328072 7552996 7776012 7992496 8198044 
1689.903 8389368 8566852 8734537 8898905 9065771 9236729 9407618 9567737 
1693.761 9702805 9799043 9849847 9861473 9854762 9856999 9885064 9939303 
1697.618 10002329 10047426 10043052 9963271 9799009 9568989 9318746 9096865 
1701.476 8932084 8822512 8747993 8681463 8600174 8488085 8337721 8150944 
1705.333 7938128 7714859 7495818 7290837 7103062 6930013 6765917 6604440 
1709.190 6441544 6276019 6110389 5949391 5798325 5660973 5537525 5425653 
1713.048 5320652 5218762 5117567 5017366 4919468 4823234 4725346 4619141 
1716.905 4498031 4361659 4218270 4084361 3976340 3905389 3872425 3870385 
1720.763 3887569 3911507 3933641 3949422 3959387 3966910 3976239 3990151 
1724.620 4009044 4031350 4055497 4080347 4104864 4127443 4145674 4155810 
1728.478 4154405 4140990 4118712 4093391 4071149 4054159 4037504 4008309 
1732.335 3946714 3835284 3665437 3450299 3222415 3022510 2878295 2794550 
1736.192 2757836 2747099 2742831 2730160 2701853 2657245 2602075 2544946 
1740.050 2493789 2454568 2429111 2417082 2417149 2427378 2445471 2468696 
1743.907 2494656 2521883 2550179 2580909 2615809 2655678 2699652 2744364 
1747.765 2785046 2817161 2837738 2845575 2841640 2827766 2806556 2780844 
1751.622 2754568 2731794 2716923 2712522 2717790 2728226 2735528 2730560 
1755.479 2705054 2656112 2588142 2511885 2440839 2384398 2345219 2318203 
1759.337 2293686 2260345 2209921 2139724 2053658 1960752 1871261 1794165 
1763.194 1734447 1693065 1668351 1657142 1655546 1658273 1660435 1657308 
1767.052 1646831 1630701 1614072 1603396 1602897 1612409 1626144 1634991 
1770.909 1629869 1606589 1568811 1528143 1499116 1491868 1508791 1544436 
1774.767 1589961 1637851 1684450 1730388 1778660 1831863 1889297 1946540 
1778.624 1997300 2035448 2058285 2067873 2070137 2071735 2077195 2086550 
1782.481 2096772 2103431 2103364 2096306 2085086 2074299 2067907 2068040 
1786.339 2074565 2086817 2104063 2126938 2156073 2190705 2227206 2259312 
1790.196 2278631 2277098 2250753 2201662 2138026 2071103 2010981 1962982 
1794.054 1926471 1897750 1871793 1845405 1817355 1788109 1758632 1729124 
1797.911 1699219 1667819 1634093 1598241 1561362 1525815 1493032 1464506 
1801.769 1441035 1422884 1410750 1405465 1407060 1415171 1427571 1441932 
1805.626 1455828 1468163 1479633 1492134 1507927 1527578 1550189 1573001 
1809.483 1593286 1609116 1620889 1631166 1643040 1658739 1678696 1701248 
1813.341 1724667 1747554 1770509 1795662 1825574 1862276 1905205 1951899 
1817.198 1998431 2041773 2080158 2114318 2146050 2177785 2210887 2245290 
1821.056 2280096 2313439 2343720 2368806 2386763 2395292 2393260 2381099 
1824.913 2362309 2342887 2329362 2326198 2333993 2348550 2361710 2365041 
1828.771 2352715 2324499 2287424 2252285 2231036 2230469 2251085 2287791 
1832.628 2333526 2382232 2430843 2479526 2530215 2585109 2644844 2708454 
1836.485 2774509 2842407 2913585 2991948 3081570 3186031 3306409 3441248 
1840.343 3587186 3740025 3896061 4051851 4203951 4349979 4488088 4618606 
1844.200 4744808 4872588 5007914 5153978 5310220 5471083 5628379 5772637 
1848.058 5896623 5996757 6073158 6128233 6165301 6185298 6186911 6167015 
1851.915 6122554 6052729 5960174 5850107 5727948 5598573 5464338 5325684 
1855.772 5182647 5036137 4888605 4743568 4603503 4469207 4338801 4209338 
1859.630 4078307 3945745 3814259 3687993 3571418 3466464 3373122 3289649 
1863.487 3215338 3150752 3098756 3062617 3043764 3039960 3045332 3051472 
1867.345 3050804 3040027 3020641 2998521 2980905 2973198 2975801 2985776 
1871.202 2997753 3007396 3011833 3010432 3003892 2993282 2979203 2961855 
1875.060 2942006 2920790 2899275 2878462 2857149 2832335 2799986 2756535 
1878.917 2701086 2635976 2566310 2497322 2432776 2373070 2314872 2254150 
1882.774 2187942 2116915 2045035 1978227 1922045 1878915 1847169 1822945 
1886.632 1801551 1780490 1759497 1740701 1726363 1717814 1714787 1716184 
1890.489 1721240 1730521 1745658 1768147 1797126 1829300 1859181 1882176 
1894.347 1896286 1904306 1912327 1928235 1958189 2003125 2059917 2122376 
1898.204 2184478 2242393 2295318 2344586 2391594 2436341 2477294 2512185 
1902.062 2540013 2562611 2583409 2606609 2634243 2666080 2699185 2729493 
1905.919 2754268 2773708 2789948 2805788 2822263 2837638 2847343 2847443 
1909.776 2835403 2812725 2784079 2755701 2732261 2715356 2704353 2696318 
1913.634 2689984 2685449 2683482 2685083 2688050 2687583 2677015 2650978 
1917.491 2608708 2555011 2499021 2449736 2412218 2385097 2362409 2335792 
1921.349 2299715 2253284 2201229 2150779 2107659 2074099 2047166 2022032 
1925.206 1994770 1965445 1937620 1917252 1908999 1913558 1927203 1944643 
1929.063 1960453 1972269 1981455 1991042 2003125 2017771 2032019 2042505 
1932.921 2047699 2049197 2051727 2060116 2076729 2099602 2123108 2140923 
1936.778 2148648 2147083 2141289 2137360 2140256 2150246 2164032 2176353 
1940.636 2183279 2184179 2183013 2184978 2193503 2208589 2226340 2242126 
1944.493 2253450 2261810 2271303 2286658 2310308 2339123 2366574 2385863 
1948.351 2393426 2391094 2386097 2386696 2400023 2428111 2467597 2512152 
1952.208 2555978 2595975 2632076 2665213 2694985 2718590 2732161 2732127 
1956.065 2719090 2698552 2679281 2669547 2673081 2687216 2703586 2713522 
1959.923 2711422 2698119 2680715 2668413 2667613 2680048 2701853 2727326 
1963.780 2752767 2778310 2807956 2845509 2892537 2945743 2997253 3039360 
1967.638 3067355 3082438 3090213 3096320 3104430 3111938 3113907 3104930 
1971.495 3083740 3054341 3026013 3008797 3010064 3031852 3072728 3129459 
1975.353 3200050 3285075 3384976 3495322 3606631 3703164 3768100 3791864 
1979.210 3774116 3724919 3659823 3594169 3537811 3492082 3451601 3410022 
1983.067 3362670 3310883 3259135 3213869 3179155 3154490 3136668 3122417 
1986.925 3109702 3102394 3104963 3121883 3153289 3194776 3238705 3278498 
1990.782 3311517 3339330 3367679 3401506 3441481 3483832 3521877 3549636 
1994.640 3564669 3570382 3572353 3576663 3585984 3597911 3606865 3608201 
1998.497 3599581 3584581 3569079 3559124 3557053 3560059 3561295 3553545 
2002.354 3533702 3503739 3470305 3441782 3425217 3422712 3432765 3450933 
2006.212 3472442 3494821 3515163 3530495 3536107 3526019 3496023 3446190 
2010.069 3382906 3316926 3261038 3225686 3213502 3221180 3240875 3263976 
2013.927 3286678 3310582 3339864 3380435 3433266 3496123 3563534 3630420 
2017.784 3694375 3756870 3820577 3886566 3951362 4009245 4052353 4075865 
2021.642 4080347 4072220 4060815 4053858 4055296 4063189 4072688 4078240 
2025.499 4076735 4068641 4055798 4039310 4018809 3991856 3956812 3915185 
2029.356 3874531 3844143 3833981 3849893 3889842 3946681 4009579 4068908 
2033.214 4121422 4168254 4213018 4259458 4307778 4354296 4395430 4428501 
2037.071 4454812 4478547 4504359 4533956 4564794 4591950 4609229 4613649 
2040.929 4607186 4594461 4582306 4574939 4572260 4570553 4565563 4553978 
2044.786 4536835 4518353 4503790 4496960 4498065 4503790 4508878 4509046 
2048.644 4501479 4485510 4461072 4427329 4382879 4327656 4264143 4198263 
2052.501 4138649 4094729 4072153 4070413 4082287 4096435 4101520 4090649 
2056.358 4063925 4027304 3989549 3957347 3933607 3916355 3901778 3885897 
2060.216 3868179 3850561 3837624 3832076 3834415 3842305 3851798 3859922 
2064.073 3865972 3870786 3875901 3881718 3887001 3888538 3884226 3874063 
2067.931 3861426 3851397 3848422 3853971 3864669 3874497 3876269 3865003 
2071.788 3840232 3805200 3766195 3728997 3696815 3670583 3648596 3629384 
2075.646 3611308 3594336 3578433 3562765 3545995 3525919 3501434 3473711 
2079.503 3445790 3421443 3403877 3393425 3387715 3383039 3376094 3366110 
2083.360 3355424 3348479 3348579 3356459 3369215 3381103 3385310 3377430 
2087.218 3355791 3322335 3281269 3235834 3189169 3143176 3099190 3059981 
2091.075 3028916 3010031 3005527 3015436 3036223 3062383 3089513 3114742 
2094.933 3137836 3160798 3185364 3211099 3235567 3254929 3266079 3269050 
2098.790 3266814 3263809 3264210 3269184 3276795 3283239 3284508 3280434 
2102.647 3274058 3271454 3279032 3300232 3334756 3378531 3426653 3474780 
2106.505 3521376 3567876 3616287 3667576 3721177 3774650 3825022 3871054 
2110.362 3913947 3956010 3999949 4046701 4094361 4139485 4178157 4208601 
2114.220 4232055 4251863 4272475 4297237 4327255 4361391 4397739 4434895 
2118.077 4472655 4511758 4553476 4597643 4642551 4685320 4723604 4756030 
2121.935 4783600 4808693 4833620 4859654 4885757 4909080 4927813 4940280 
2125.792 4946949 4949663 4950099 4948356 4943262 4932270 4913034 4885690 
2129.649 4852920 4819147 4789832 4769765 4761658 4766247 4783399 4811876 
2133.507 4850708 4897686 4949194 4999166 5041165 5069391 5081426 5079046 
2137.364 5067815 5055044 5046965 5045993 5051557 5062184 5075459 5091483 
2141.222 5112202 5139762 5173526 5209607 5240527 5257161 5254847 5232411 
2145.079 5194584 5149418 5104558 5064295 5028528 4993736 4955964 4913503 
2148.937 4868165 4824206 4785275 4753551 4727289 4703406 4678755 4652095 
2152.794 4624902 4598815 4574671 4551266 4525685 4496658 4468638 4453473 
2156.651 4467533 4528766 4648244 4823368 5035635 5258502 5463802 5629789 
2160.509 5748126 5821092 5858402 5870929 5868142 5857361 5843928 5831570 
2164.366 5823275 5819077 5815014 5803664 5775794 5724255 5646774 5548633 
2168.224 5441288 5338296 5251191 5186604 5143316 5116963 5100233 5087997 
2172.081 5077973 5070900 5068419 5071000 5077940 5087226 5096881 5105631 
2175.938 5112202 5114113 5107508 5086824 5046831 4986865 4910521 4829064 
2179.796 4756767 4705818 4683544 4688903 4712584 4741994 4766180 4780183 
2183.653 4784706 4785309 4787420 4793885 4803869 4813183 4818309 4817605 
2187.511 4812580 4806549 4802563 4802160 4803836 4806415 4809229 4813652 
2191.368 4823737 4842767 4872186 4910052 4950903 4987938 5016260 5034093 
2195.226 5042574 5044786 5043646 5039456 5030607 5015154 4992328 4963504 
2199.083 4932270 4902545 4877078 4855935 4836669 4816700 4794354 4770837 
2202.940 4749364 4734792 4729198 4733184 4744339 4759212 4775158 4790401 
2206.798 4805142 4818309 4828728 4833051 4827690 4811507 4786314 4758040 
2210.655 4734759 4723671 4728863 4749297 4780485 4815126 4848329 4877045 
2214.513 4901406 4922384 4940414 4953484 4959114 4955126 4941720 4922987 
2218.370 4904858 4893531 4892425 4901071 4914810 4928215 4936593 4938068 
2222.228 4933811 4926606 4918195 4908343 4895173 4875436 4847592 4812814 
2226.085 4774421 4737204 4705751 4681602 4664387 4652095 4642584 4634747 
2229.942 4629154 4626308 4626810 4629858 4633743 4636857 4638331 4638532 
2233.800 4638431 4639000 4639871 4639402 4635718 4627614 4615826 4603436 
2237.657 4593825 4589974 4592720 4600255 4609832 4619410 4628451 4638900 
2241.515 4653267 4673564 4698951 4726083 4749866 4765946 4772713 4771574 
2245.372 4766180 4760552 4757504 4756599 4755963 4753484 4747923 4740989 
2249.229 4735730 4735027 4740085 4749833 4761323 4771775 4780049 4787654 
2253.087 4797738 4813116 4834357 4858616 4880228 4892794 4891554 4875906 
2256.944 4848463 4815160 4781624 4752881 4730940 4716134 4706957 4702033 
2260.802 4700191 4700626 4702301 4704378 4705885 4706488 4707124 4709804 
2264.659 4716905 4729835 4748727 4771339 4794991 4816600 4834559 4848832 
2268.517 4860793 4872353 4884383 4896849 4908376 4917793 4924562 4928885 
2272.374 4931801 4934549 4937029 4938905 4938905 4936794 4932638 4928315 
2276.231 4925567 4925567 4928751 4933309 4937330 4938939 4937934 4935520 
2280.089 4934180 4936526 4944301 4958042 4977078 4999803 5025177 5051859 
2283.946 5078677 5104659 5128228 5147674 5161656 5169972 5173526 5173895 
2287.804 5172788 5170643 5167625 5162494 5154682 5144925 5135437 5129569 
2291.661 5130742 5141069 5160181 5185665 5213866 5241298 5265847 5287513 
2295.519 5306933 5325918 5345541 5365769 5385863 5405187 5423371 5440684 
2299.376 5457594 5473834 5488330 5498799 5503262 5499974 5489068 5472525 
2303.233 5453501 5434879 5418808 5405724 5394988 5385193 5375196 5365266 
2307.091 5355940 5348762 5344535 5344133 5347353 5353659 5362683 5373921 
2310.948 5386937 5400960 5414648 5426961 5436725 5443703 5448635 5453031 
2314.806 5458500 5465949 5475512 5485846 5495880 5504739 5512289 5519806 
2318.663 5528867 5541049 5557023 5576355 5598003 5620055 5640564 5657180 
2322.521 5666781 5666445 5653320 5625358 5582933 5528699 5467861 5406731 
2326.378 5351647 5306833 5274064 5251996 5237542 5227749 5220271 5214704 
2330.235 5211988 5213765 5221177 5234088 5251325 5271716 5294121 5318505 
2334.093 5344602 5373049 5403409 5435013 5467257 5499738 5532558 5566454 
2337.950 5601829 5638113 5673494 5705219 5730835 5749000 5760549 5767533 
2341.808 5772738 5778177 5783852 5788049 5788855 5785397 5779554 5776264 
2345.665 5782039 5804000 5846514 5910595 5994103 6092210 6198910 6308057 
2349.522 6414507 6513987 6603196 6680477 6745422 6799505 6845113 6886147 
2353.380 6925939 6967284 7011528 7058875 7108552 7160086 7213514 7269576 
2357.237 7329285 7393484 7462412 7535869 7613451 7694792 7780027 7869259 
2361.095 7961751 8055578 8147467 8233871 8311747 8379875 8438994 8491971 
2364.952 8541372 8589529 8636913 8682308 8723279 8757561 8783763 8801244 
2368.810 8810543 8812064 8806079 8793095 8773654 8749615 8724192 8701712 
2372.667 8686771 8683762 8695525 8723989 8769833 8832893 8912839 9009274 
2376.524 9121497 9248304 9388488 9540741 9703957 9877742 10062178 10257412 
2380.382 10463085 10677754 10898644 11122297 11344775 11561887 11770393 
2383.757 11966974 12148483 12312171 12454780 12574378 12669992 12742526 
2387.132 12794187 12828587 12848688 12856572 12852545 12835515 12803572 
2390.508 12755287 12690461 12610090 12516877 12413898 12304298 12190702 
2393.883 12075605 11960946 11848940 11742068 11642643 11553073 11475363 
2397.258 11410829 11360624 11325831 11307296 11305664 11321580 11354706 
2400.633 11404332 11469034 11547425 11638015 11740162 11853537 11978487 
2404.009 12115671 12265679 12429276 12606883 12799170 13005915 13226694 
2407.384 13460163 13704530 13957861 14218668 14486345 14761112 15043701 
2410.759 15334129 15631141 15931381 16229970 16520435 16796630 17052910 
2414.134 17284964 17489682 17665610 17811472 17927236 18012950 18069906 
2417.510 18100200 18106522 18091564 18057954 18007596 17942188 17862946 
2420.885 17771878 17671166 17563750 17452738 17341202 17231420 17125386 
2424.260 17024686 16930832 16846298 16774142 16717458 16679548 16663296 
2427.635 16670527 16702307 16759092 16840752 16947024 17077308 17230938 
2431.010 17406762 17603944 17821242 18057746 18312560 18584746 18872810 
2434.386 19175716 19492140 19821834 20165282 20524526 20902182 21300666 
2437.761 21722014 22166892 22634740 23125142 23637580 24172376 24730772 
2441.136 25313804 25922028 26554564 27209892 27885680 28580246 29293404 
2444.511 30025770 30778078 31550936 32343052 33151314 33972192 34801444 
2447.887 35635552 36472248 37309068 38143748 38973436 39794504 40602724 
2451.262 41394992 42168592 42921256 43650572 44352784 45021876 45650520 
2454.637 46229688 46751324 47207460 47591496 47898324 48122880 48260308 
2458.012 48306152 48256568 48108592 47860400 47511132 47061172 46511500 
2461.388 45864120 45122996 44293632 43384996 42408216 41376004 40302176 
2464.763 39199736 38080552 36955480 35834572 34727428 33644580 32596316 
2468.138 31592946 30643904 29755866 28933562 28178888 27491312 26869502 
2471.513 26310606 25812306 25371094 24983040 24643792 24347214 24087646 
2474.889 23859210 23656404 23473974 23307844 23153378 23006306 22862880 
2478.264 22720024 22575890 22430514 22285080 22140950 21999970 21862730 
2481.639 21729120 21598374 21469198 21340860 21213710 21088404 20966056 
2485.014 20847810 20734810 20627396 20526368 20431162 20341672 20256956 
2488.390 20176388 20098956 20024108 19951734 19882252 19816354 19754626 
2491.765 19697242 19643608 19592720 19543432 19494808 19446398 19398268 
2495.140 19350146 19301196 19249726 19193168 19129176 19056052 18973592 
2498.515 18883330 18787550 18688712 18589308 18490688 18393404 18298044 
2501.891 18205192 18115606 18030324 17949960 17873960 17801082 17729734 
2505.266 17658362 17586762 17515796 17447426 17383516 17324824 17270758 
2508.641 17218768 17165440 17107326 17041848 16967868 16885324 16795460 
2512.016 16699828 16599502 16495138 16387463 16276406 16162010 16044341 
2515.392 15923819 15801061 15677307 15554722 15435949 15324175 15222176 
2518.767 15132277 15055330 14990708 14937001 14892010 14854087 14821722 
2522.142 14794123 14770881 14752028 14737253 14727142 14722000 14722377 
2525.517 14728855 14741469 14759568 14781508 14805368 14829367 14852373 
2528.893 14874489 14896331 14919135 14943243 14968380 14993349 15017118 
2532.268 15039139 15059995 15081435 15105758 15134954 15169642 15209239 
2535.643 15252513 15297781 15343604 15389671 15436361 15484224 15533568 
2539.018 15584499 15636843 15690740 15746739 15805632 15868243 15934851 
2542.394 16004495 16075423 16145296 16212463 16276442 16337952 16398404 
2545.769 16459588 16522467 16586835 16651625 16715392 16776586 16834792 
2549.144 16889940 16942340 16992126 17039230 17083030 17123250 17159992 
2552.519 17193878 17226248 17258036 17290066 17322548 17355168 17387274 
2555.895 17418108 17446804 17472296 17493130 17507480 17513310 17508722 
2559.270 17492750 17465120 17427006 17379688 17324618 17263000 17195188 
2562.645 17121286 17041538 16956534 16867240 16775656 16683094 16591620 
2566.020 16502608 16417708 16338674 16266948 16204208 16151417 16108742 
2569.396 16075561 16050737 16033271 16022716 16019451 16024401 16038496 
2572.771 16061705 16093303 16131369 16173806 16218791 16265433 16313560 
2576.146 16363412 16415127 16468329 16522467 16576989 16631966 16688466 
2579.521 16748141 16812680 16882982 16958668 17038334 17120148 17202290 
2582.896 17284584 17367688 17453118 17542428 17636382 17734564 17835776 
2586.272 17938390 18040788 18142484 18243132 18342802 18441216 18538026 
2589.647 18632610 18724516 18813880 18901256 18987508 19073396 19159058 
2593.022 19244114 19328010 19409910 19489714 19567590 19644232 19720438 
2596.397 19796898 19874102 19952880 20034378 20119918 20211236 20309796 
2599.773 20416298 20530814 20652798 20781208 20915570 21055710 21201880 
2603.148 21354608 21513830 21678756 21848060 22020606 22195312 22372460 
2606.523 22552576 22736748 22925506 23118292 23313540 23508740 23701576 
2609.898 23889666 24071674 24246928 24414328 24572784 24720318 24854466 
2613.274 24972438 25072262 25152516 25213048 25254520 25278788 25287638 
2616.649 25283178 25267514 25242406 25209290 25169438 25123760 25072928 
2620.024 25017924 24959806 24900114 24840538 24782898 24728666 24678864 
2623.399 24633938 24593928 24558618 24528048 24502526 24482508 24468660 
2626.775 24461720 24462000 24469992 24486224 24511394 24546454 24592034 
2630.150 24648280 24714566 24789316 24870360 24955384 25042740 25131414 
2633.525 25221020 25311942 25404536 25499046 25595404 25693610 25793564 
2636.900 25895650 26000504 26109358 26222288 26339826 26460846 26584258 
2640.276 26708482 26831542 26952416 27070078 27184776 27296716 27407132 
2643.651 27517118 27628084 27740950 27856284 27973946 28093266 28213254 
2647.026 28333346 28453330 28573772 28696124 28821838 28952652 29089778 
2650.401 29233646 29384260 29541206 29703886 29871912 30045332 30224220 
2653.777 30408868 30599530 30796540 31000290 31210830 31428452 31653098 
2657.152 31884712 32122758 32367076 32617104 32872706 33133254 33398576 
2660.527 33668140 33940840 34215868 34491608 34767124 35041852 35315236 
2663.902 35587432 35858720 36129312 36399744 36670780 36943072 37217548 
2667.278 37495452 37777476 38064348 38355752 38651336 38950420 39252540 
2670.653 39557516 39866048 40178436 40494760 40814772 41137204 41460604 
2674.028 41783192 42103460 42420164 42732640 43039780 43340696 43634156 
2677.403 43919136 44195236 44463256 44725304 44984608 45245356 45511672 
2680.779 45787720 46077056 46382336 46706084 47049872 47415588 47803912 
2684.154 48215432 48649872 49106932 49585796 50085788 50605860 51145008 
2687.529 51701772 52274124 52860028 53457220 54063896 54679208 55303064 
2690.904 55936108 56579520 57234236 57901152 58580920 59273832 59980216 
2694.280 60700132 61432964 62178240 62934824 63701136 64476064 65258352 
2697.655 66048064 66845208 67650088 68462320 69281120 70104712 70930960 
2701.030 71757672 72582800 73404280 74220440 75028808 75826440 76609848 
2704.405 77374920 78116992 78831920 79514672 80160536 80764168 81320256 
2707.781 81823968 82270840 82657728 82983416 83247184 83449512 83591272 
2711.156 83673544 83697608 83664544 83576416 83434856 83241280 82996648 
2714.531 82701128 82353824 81953840 81500104 80992536 80431840 79820056 
2717.906 79159960 78455808 77712368 76935712 76132712 75310872 74477640 
2721.281 73640976 72807800 71984320 71176768 70390456 69631048 68904232 
2724.657 68215096 67568320 66967272 66413732 65908512 65450928 65040192 
2728.032 64675680 64356580 64082840 63854328 63670404 63530160 63432412 
2731.407 63375400 63357876 63378388 63435784 63528588 63655324 63813844 
2734.782 64001628 64215696 64453236 64711020 64985616 65273680 65571212 
2738.158 65874124 66178552 66480376 66776268 67063464 67339520 67602120 
2741.533 67849456 68079848 68292952 68488544 68668976 68837248 68997320 
2744.908 69153552 69309384 69467640 69630272 69798176 69971800 70150856 
2748.283 70335208 70523464 70713864 70904584 71093432 71279168 71461928 
2751.659 71643360 71826208 72014208 72211600 72422040 72648720 72894088 
2755.034 73160352 73448736 73759984 74093968 74449520 74824184 75214216 
2758.409 75615648 76022848 76430480 76832560 77222344 77593304 77938416 
2761.784 78250872 78524608 78754168 78935624 79065976 79143344 79166920 
2765.160 79136584 79053696 78920680 78741344 78520824 78265032 77980408 
2768.535 77673696 77351600 77020128 76685200 76352024 76024984 75708056 
2771.910 75404280 75116168 74845832 74594592 74364024 74154176 73964888 
2775.285 73794152 73639096 73495128 73357248 73219288 73075888 72920392 
2778.661 72747160 72549912 72322032 72058128 71753688 71406312 71016248 
2782.036 70586920 70124104 69634896 69127368 68609440 68087216 67566656 
2785.411 67052020 66546568 66052736 65572096 65105088 64651220 64209432 
2788.786 63778460 63356912 62944284 62540464 62146352 61762908 61391364 
2792.162 61032800 60687868 60356496 60038536 59733208 59439608 59156492 
2795.537 58882596 58615880 58354564 58096436 57839368 57581128 57319600 
2798.912 57053280 56780592 56500524 56212416 55915984 55610752 55296404 
2802.287 54972048 54637344 54291292 53933328 53563696 53182992 52793012 
2805.663 52396160 51995488 51594592 51196972 50805976 50424372 50054516 
2809.038 49698236 49356876 49031364 48722852 48432488 48161380 47910680 
2812.413 47681164 47472760 47284448 47114568 46960816 46821108 46693728 
2815.788 46578588 46476392 46389520 46320948 46273880 46251580 46256592 
2819.164 46291092 46356856 46455152 46586852 46752800 46952988 47186628 
2822.539 47452396 47747692 48069540 48414076 48776752 49152756 49536476 
2825.914 49921832 50302848 50672916 51025856 51355552 51656280 51922780 
2829.289 52150104 52334148 52471720 52561048 52602188 52596916 52549044 
2832.665 52463828 52347004 52205216 52044756 51871548 51691096 51508000 
2836.040 51326056 51148252 50976484 50812384 50657388 50513320 50382728 
2839.415 50268924 50175968 50108208 50070208 50066304 50101148 50180244 
2842.790 50309880 50498396 50755768 51092228 51518220 52041732 52665884 
2846.166 53386996 54191920 55057160 55945684 56811368 57601636 58258008 
2849.541 58729020 58972912 58962856 58692188 58173444 57437616 56524792 
2852.916 55484644 54368384 53221720 52087116 50999324 49982984 49055776 
2856.291 48226652 47497196 46862704 46314020 45839928 45427052 45062416 
2859.667 44734192 44430952 44143040 43862024 43580672 43294128 42999172 
2863.042 42695204 42383192 42065968 41747768 41432972 41126568 40833556 
2866.417 40558744 40306500 40081080 39885156 39721196 39590436 39493352 
2869.792 39429312 39396728 39393028 39413888 39454128 39507072 39566228 
2873.167 39626188 39683908 39738732 39793128 39851668 39919336 40000600 
2876.543 40098736 40214928 40349332 40501416 40670364 40855832 41057256 
2879.918 41273824 41503476 41743720 41991468 42243924 42499084 42756184 
2883.293 43015048 43275712 43538220 43801984 44065688 44328268 44588440 
2886.668 44845496 45099320 45349876 45596636 45838860 46075252 46304328 
2890.044 46525148 46737192 46941324 47138612 47331000 47520556 47708564 
2893.419 47896176 48083900 48271304 48458272 48644388 48829880 49015748 
2896.794 49203780 49396120 49595116 49802756 50019864 50246304 50480752 
2900.169 50721544 50966720 51215056 51465208 51716624 51968824 52221248 
2903.545 52473548 52726416 52981408 53241608 53511672 53796944 54103488 
2906.920 54436924 54803012 55207672 55657152 56159400 56722252 57353896 
2910.295 58061364 58848064 59713440 60650944 61648748 62688312 63744688 
2913.670 64789712 65789676 66709616 67517536 68184744 68691016 69027376 
2917.046 69195360 69206784 69079936 68837672 68502048 68091672 67621440 
2920.421 67100124 66532008 65917888 65256736 64547412 63790204 62988028 
2923.796 62146964 61276160 60386384 59489152 58595596 57714128 56851668 
2927.171 56012664 55200372 54417280 53666112 52949704 52271620 51635120 
2930.547 51043744 50500664 50009380 49573428 49196952 48884016 48638640 
2933.922 48464012 48361592 48331444 48371148 48476128 48640012 48854280 
2937.297 49109420 49394632 49699056 50013060 50328372 50639480 50943472 
2940.672 51239736 51528444 51810396 52084576 52348276 52596428 52821112 
2944.048 53013116 53161872 53256440 53287832 53249808 53141204 52966172 
2947.423 52735652 52466108 52175996 51885664 51612840 51370396 51165584 
2950.798 50999848 50869560 50767500 50684868 50612672 50542168 50465940 
2954.173 50378156 50274240 50151088 50007112 49841740 49654996 49447840 
2957.549 49221256 48976656 48716104 48442044 48157416 47866024 47571348 
2960.924 47276764 46984888 46697636 46416104 46141168 45873992 45615884 
2964.299 45369004 45135864 44919164 44721704 44545740 44392712 44263180 
2967.674 44156280 44069836 43999644 43940728 43886912 43831708 43769480 
2971.050 43695968 43608224 43505624 43389500 43262792 43130232 42997524 
2974.425 42871408 42757796 42661572 42584708 42524772 42474272 42420892 
2977.800 42348600 42238116 42071732 41834524 41516856 41116260 40637364 
2981.175 40092124 39496472 38870332 38234736 37608240 37007684 36446008 
2984.551 35931596 35469704 35062648 34711456 34416748 34178840 33998100 
2987.926 33873024 33798164 33762996 33748852 33731408 33680920 33565104 
2991.301 33357068 33037358 32599102 32049480 31409468 30710578 29986714 
2994.676 29272492 28595642 27973416 27413344 26913248 26465282 26057918 
2998.052 25680148 25323182 24981108 24650666 24330568 24020510 23720298 
3001.427 23429560 23147682 22873880 22607512 22347934 22094788 21848026 
3004.802 21607742 21374168 21147608 20928572 20717744 20515216 20321324 
3008.177 20136092 19959402 19790900 19629986 19475990 19327628 19183472 
3011.552 19041962 18901984 18762952 18625590 18491208 18362192 18240680 
3014.928 18128492 18026696 17935006 17852554 17777816 17709060 17644870 
3018.303 17583968 17525040 17467018 17408726 17348756 17285860 17219078 
3021.678 17147620 17070760 16988024 16898864 16803140 16700964 16593134 
3025.053 16481476 16368538 16257349 16151074 16052421 15963107 15883675 
3028.429 15813328 15750140 15690980 15632000 15569181 15498131 15415556 
3031.804 15318924 15207627 15082430 14945472 14799986 14649648 14497924 
3035.179 14348136 14203124 14065143 13936340 13818042 13710685 13614227 
3038.554 13527361 13448270 13375173 13306530 13241349 13179524 13121840 
3041.930 13068602 13020220 12976315 12935862 12897427 12859405 12820805 
3045.305 12780777 12739182 12696193 12652354 12608418 12565101 12523084 
3048.680 12483014 12444790 12407931 12370975 12332215 12289436 12240629 
3052.055 12184297 12120134 12048317 11969972 11886669 11799842 11711091 
3055.431 11621508 11531705 11442295 11353583 11265706 11179343 11094968 
3058.806 11013600 10936324 10864126 10797237 10735556 10678330 10624272 
3062.181 10572155 10521334 10471605 10423646 10378408 10336772 10298837 
3065.556 10264095 10231391 10199673 10167789 10135397 10102737 10070147 
3068.932 10038169 10006873 9975951 9945134 9914047 9882827 9851643 9821004 
3072.789 9791079 9761901 9733233 9704974 9677293 9650900 9626847 9605980 
3076.646 9588941 9575358 9564349 9554323 9543552 9530851 9515441 9496882 
3080.504 9475241 9450385 9422145 9390452 9355275 9317189 9276838 9235612 
3084.361 9194660 9154727 9116591 9080523 9046859 9015701 8987455 8962457 
3088.219 8940641 8922106 8905940 8891329 8877532 8863733 8849530 8834821 
3092.076 8819469 8803644 8787584 8771524 8755972 8741603 8729162 8719256 
3095.934 8712225 8707796 8705701 8705329 8706342 8708472 8711752 8715943 
3099.791 8721048 8726289 8731360 8735518 8738899 8741941 8745254 8749920 
3103.648 8756445 8764829 8774803 8785623 8796645 8807026 8816359 8824440 
3107.506 8830763 8835091 8837154 8837289 8835937 8834449 8833976 8836173 
3111.363 8841584 8850410 8862144 8875807 8890450 8905094 8919130 8931813 
3115.221 8942602 8950551 8954982 8955354 8951836 8944869 8935567 8924879 
3119.078 8913753 8902118 8889942 8876551 8861941 8846250 8830222 8814702 
3122.936 8800534 8787584 8775514 8763139 8750021 8735348 8719494 8703030 
3126.793 8687311 8673114 8661182 8651413 8643436 8636677 8630525 8624407 
3130.650 8618256 8612173 8606764 8602270 8599701 8599701 8602642 8608590 
3134.508 8617613 8628700 8641307 8654827 8668720 8682950 8697080 8710872 
3138.365 8723651 8734672 8743395 8749176 8752625 8754450 8756107 8758845 
3142.223 8763612 8770814 8780450 8792047 8805234 8819976 8836140 8853994 
3146.080 8873203 8893528 8914564 8935872 8957113 8978423 8999937 9021994 
3149.938 9044761 9068004 9091789 9115847 9140413 9165725 9192595 9221295 
3153.795 9252163 9284692 9318273 9351889 9385136 9417370 9448862 9479813 
3157.652 9511004 9542875 9576136 9611806 9650527 9693318 9740417 9792299 
3161.510 9848119 9906895 9967340 10027997 10087781 10146183 10203337 
3164.885 10259176 10313834 10367787 10420965 10473574 10526188 10579183 
3168.260 10632896 10687330 10742280 10796625 10849042 10898066 10942237 
3171.635 10980397 11011356 11034705 11049932 11057273 11057171 11051053 
3175.011 11040551 11027568 11013838 11000617 10988316 10977102 10966431 
3178.386 10956033 10946247 10937514 10930480 10925927 10923889 10924059 
3181.761 10925859 10928407 10931194 10934014 10936563 10939145 10942067 
3185.136 10945635 10950732 10957970 10968470 10982879 11001569 11023931 
3188.512 11049116 11075390 11101392 11126717 11151227 11175739 11201544 
3191.887 11229561 11260062 11292843 11327395 11362971 11399366 11436546 
3195.262 11474682 11513638 11553005 11591867 11629336 11664663 11698089 
3198.637 11730120 11762290 11795722 11831370 11869404 11909554 11951410 
3202.013 11994054 12037484 12081124 12125143 12169405 12213705 12258317 
3205.388 12303377 12349259 12396442 12445164 12495154 12545456 12595219 
3208.763 12643553 12690119 12735565 12780913 12827119 12874729 12923232 
3212.138 12971365 13017454 13060135 13099130 13135193 13170131 13205892 
3215.514 13243945 13284734 13328055 13372782 13417786 13462316 13505929 
3218.889 13549102 13592073 13635458 13679499 13724535 13770876 13818760 
3222.264 13868566 13920499 13974593 14030714 14088211 14147015 14206547 
3225.639 14266670 14326937 14386973 14445751 14502309 14555414 14604551 
3229.015 14649340 14690501 14729129 14766664 14804580 14843801 14885324 
3232.390 14929320 14975720 15023841 15072619 15120785 15166965 15209857 
3235.765 15249356 15286078 15321704 15358432 15398493 15443227 15492739 
3239.140 15546549 15602701 15659513 15715336 15769381 15821198 15870923 
3242.516 15919041 15965788 16011475 16056547 16101589 16147394 16194612 
3245.891 16243866 16295534 16349236 16404839 16461963 16520677 16580638 
3249.266 16642123 16704753 16767874 16830832 16892696 16953052 17012146 
3252.641 17070624 17129832 17190774 17254210 17320134 17387516 17455186 
3256.017 17521590 17585556 17646042 17703124 17756862 17808158 17858148 
3259.392 17907762 17957866 18009048 18061546 18115504 18170502 18226580 
3262.767 18283322 18340348 18397346 18453730 18508876 18562024 18612964 
3266.142 18661526 18708706 18755652 18803846 18854678 18909044 18966808 
3269.518 19027560 19089946 19153104 19216060 19277954 19338402 19396744 
3272.893 19452460 19505308 19555076 19602598 19648774 19695230 19743184 
3276.268 19793430 19846320 19901296 19957702 20015086 20073102 20132446 
3279.643 20193188 20255708 20319484 20383724 20447762 20511014 20573578 
3283.019 20636326 20700506 20767028 20836094 20907294 20979688 21052128 
3286.394 21123848 21194678 21264962 21335674 21407268 21480268 21554846 
3289.769 21630692 21707978 21786392 21866040 21946924 22028484 22110478 
3293.144 22192416 22274094 22355820 22438294 22522458 22608734 22697854 
3296.520 22789368 22883206 22978810 23075694 23173788 23272604 23371688 
3299.895 23470652 23569044 23666620 23764146 23862782 23964240 24070098 
3303.270 24181274 24297978 24419098 24543334 24669324 24795876 24922922 
3306.645 25050602 25179726 25310782 25444586 25581698 25722474 25867374 
3310.021 26016968 26171468 26330530 26493456 26658836 26826114 26994620 
3313.396 27164706 27337400 27513624 27694612 27880556 28071138 28265870 
3316.771 28463766 28664266 28866806 29070788 29275644 29480598 29685118 
3320.146 29889306 30093696 30300210 30510624 30726294 30947804 31174090 
3323.521 31403198 31632502 31859822 32084194 32305182 32523748 32740314 
3326.897 32955236 33168052 33378142 33584544 33787028 33985664 34181060 
3330.272 34373204 34561744 34745448 34922512 35091276 35250260 35399424 
3333.647 35538816 35669116 35790676 35903848 36008372 36104248 36191284 
3337.022 36269588 36339324 36400900 36453540 36497076 36530412 36553156 
3340.398 36564760 36565268 36554704 36532936 36499528 36453648 36393872 
3343.773 36319044 36228272 36121352 35998112 35859764 35707028 35541544 
3347.148 35364876 35178684 34984528 34783316 34575344 34359972 34136000 
3350.523 33902040 33657540 33402332 33138260 32867632 32593068 32317064 
3353.899 32040886 31764488 31487126 31207342 30924428 30638144 30349348 
3357.274 30059536 29770840 29485102 29204196 28929560 28661790 28401576 
3360.649 28148764 27902990 27663290 27428626 27197900 26970432 26745798 
3364.024 26524168 26305924 26091766 25881968 25677020 25476840 25281246 
3367.400 25090166 24903342 24720530 24541474 24365998 24193606 24024082 
3370.775 23857322 23693492 23532768 23375288 23220974 23069650 22920964 
3374.150 22774354 22630026 22488364 22349960 22215222 22084574 21957448 
3377.525 21833078 21710068 21587370 21464568 21341940 21220320 21101170 
3380.901 20985496 20874230 20767166 20663394 20561210 20459226 20355630 
3384.276 20249388 20139908 20027232 19912326 19796032 19679942 19565546 
3387.651 19453708 19345572 19241276 19140430 19042412 18946146 18850628 
3391.026 18754924 18658308 18560606 18462304 18364128 18266906 18171574 
3394.402 18078332 17986944 17896540 17806120 17714996 17622992 17530940 
3397.777 17440078 17351582 17266310 17184294 17104846 17026064 16946576 
3401.152 16865174 16781786 16696662 16611138 16526114 16442072 16359145 
3404.527 16276957 16195094 16113522 16032411 15952038 15872540 15793674 
3407.903 15715096 15636191 15556611 15476841 15397463 15319679 15244414 
3411.278 15171804 15101778 15032965 14964299 14894856 14824088 14752267 
3414.653 14679739 14606949 14534377 14461920 14389817 14317726 14246126 
3418.028 14175017 14104606 14034684 13965013 13894839 13824199 13753228 
3421.404 13682782 13613714 13547529 13484976 13426227 13370526 13316815 
3424.779 13263998 13211050 13157562 13103195 13048559 12993453 12938389 
3428.154 12883569 12828724 12773850 12718915 12663987 12608862 12553505 
3431.529 12498291 12443050 12388191 12334294 12281494 12230200 12180275 
3434.905 12131583 12083951 12037314 11991430 11946642 11902607 11859189 
3438.280 11815640 11770937 11724095 11673990 11620215 11563044 11503397 
3441.655 11442635 11382665 11325083 11271011 11220958 11174583 11130422 
3445.030 11086504 11040551 10990694 10936155 10877477 10816735 10756613 
3448.406 10700031 10648414 10601964 10559356 10517871 10474795 10428194 
3451.781 10377221 10322385 10264875 10205949 10146725 10087408 10027793 
3455.156 9967746 9907166 9846695 9787012 9728930 9672718 9617768 9563603 
3459.013 9509108 9453670 9397224 9340513 9284082 9229080 9176115 9125423 
3462.871 9076868 9030079 8984444 8939626 8894948 8850681 8806350 8762632 
3466.728 8719426 8676900 8635020 8593077 8549854 8504135 8455075 8402306 
3470.586 8346806 8290065 8233905 8179575 8127311 8076202 8024727 7971301 
3474.443 7915081 7856742 7798378 7742517 7691318 7645993 7606539 7571371 
3478.301 7538263 7505426 7471075 7434132 7394158 7350953 7304551 7255729 
3482.158 7205193 7154663 7105925 7060425 7018599 6979944 6942671 6904393 
3486.015 6862818 6817007 6767398 6715203 6663014 6612817 6565586 6521319 
3489.873 6478941 6437172 6394499 6350620 6305199 6258707 6211447 6163923 
3493.730 6116068 6068454 6021315 5975660 5932932 5894003 5859846 5830495 
3497.588 5805611 5783449 5762497 5740941 5716936 5689508 5657683 5621699 
3501.445 5581725 5539102 5495276 5451789 5409952 5370667 5334036 5299420 
3505.302 5265847 5232176 5196965 5159745 5120349 5078912 5036305 4993434 
3509.160 4951305 4910789 4872186 4835698 4801055 4767889 4736166 4706321 
3513.017 4678219 4652531 4629423 4608760 4589840 4571791 4553409 4534090 
3516.875 4513298 4491201 4468102 4444669 4421505 4398777 4376519 4354262 
3520.732 4331672 4308447 4284254 4259191 4233627 4208066 4183075 4159088 
3524.590 4136174 4113528 4090047 4064326 4034828 4000784 3963332 3923811 
3528.447 3885630 3851531 3823886 3803529 3789691 3780232 3772511 3764022 
3532.304 3753394 3739925 3723416 3704133 3681844 3656014 3626109 3591997 
3536.162 3554280 3514595 3475381 3438910 3407317 3381303 3361435 3347143 
3540.019 3337861 3332986 3331784 3333554 3336692 3339397 3339297 3333821 
3543.877 3321066 3300065 3271087 3235967 3196812 3156793 3118446 3083339 
3547.734 3052340 3025045 3000222 2976368 2952281 2927228 2901443 2875527 
3551.592 2851245 2829200 2810024 2792983 2776909 2760636 2743464 2725859 
3555.449 2709121 2694518 2683416 2675047 2668146 2660212 2648811 2632609 
3559.306 2611708 2588375 2565577 2546779 2534048 2528515 2529882 2536247 
3563.164 2545312 2553878 2558511 2554811 2538880 2507219 2457867 2392593 
3567.021 2316737 2238463 2166130 2106694 2062846 2033317 2013910 1999630 
3570.879 1986248 1971270 1954894 1938153 1923210 1911195 1901943 1893956 
3574.736 1885337 1873690 1858383 1839183 1817022 1793100 1767848 1741799 
3578.594 1714753 1686745 1658406 1631499 1608218 1591091 1582778 1584540 
3582.451 1596013 1615369 1639115 1661932 1678197 1682255 1669282 1636754 
3586.308 1585072 1518301 1443727 1370629 1307779 1261254 1233574 1223074 
3590.166 1225633 1235568 1247464 1257200 1262184 1261453 1255140 1244440 
3594.023 1230550 1214302 1196294 1176292 1154897 1132605 1110713 1090816 
3597.881 1074240 1061519 1052617 1046406 1041391 1036741 1032091 1028272 
3601.738 1026877 1029899 1038568 1053248 1073045 1095632 1118021 1136259 
3605.595 1146857 1146159 1131442 1101611 1057599 1002931 943289 885581 
3609.453 835582 796775 769092 749608 733809 716849 696206 671682 646229 
3613.792 623898 608867 603159 606046 614109 622006 624329 615967 593969 
3618.132 557871 510763 458120 406313 362306 330239 311737 305802 309615 
3622.472 320093 334815 353253 376333 405418 441204 482169 523070 555416 
3626.811 568388 551767 500612 418983 321784 229944 163447 131959 133152 
3631.151 155592 185988 212175 226861 228320 219999 208231 199413 197556 
3635.490 202860 212673 222154 227193 225900 217844 204949 189568 173657 
3639.830 158509 144554 132324 123176 119497 124900 141870 172198 215391 
3644.170 268535 326725 383695 433476 470260 489931 489566 468204 426710 
3648.509 367280 294727 216684 142300 82080 45031 35488 53315 92520 144223 
3653.331 197391 242078 270524 278912 269098 247581 225966 214662 220828 
3657.671 246255 286173 333157 377527 412184 431685 434936 423692 403295 
3662.010 380313 361012 350301 350998 364096 389234 425815 473345 531496 
3666.350 599941 677124 760926 848994 941396 1043616 1167588 1333137 1562858 
3670.689 1873723 2273268 2757436 3314555 3926820 4571892 5221311 5828043 
3674.547 6328128 6648917 6726139 6535312 6101350 5485310 4756968 3977410 
3678.404 3198014 2458100 1791669 1227626 781871 455500 234420 95005 10337 
3682.744 -41713 -74710 -94355 -101345 -95150 -77493 -53640 -31641 -21006 
3687.083 -29819 -62022 -116019 -185312 -259726 -329260 -386833 -428973 
3690.941 -455718 -469421 -473095 -470877 -465912 -460418 -456347 -454063 
3694.798 -453235 -452673 -451382 -447840 -440988 -430131 -415434 -398618 
3698.656 -382595 -371869 -371671 -386402 -418281 -465184 -520555 -574660 
3702.513 -617510 -641928 -645567 -630546 -601794 -565693 -526975 -487922 
3706.371 -449561 -411561 -374187 -339424 -310255 -290852 -284693 -293667 
3710.228 -317208 -352105 -394314 -438175 -478688 -511917 -534487 -544878 
3714.085 -542661 -529424 -508012 -481998 -455751 -433077 -416195 -406265 
3717.943 -403021 -405338 -412058 -423081 -437976 -456247 -476768 -497620 
3721.800 -515292 -527438 -532733 -531939 -527438 -523103 -522275 -526677 
3725.658 -536241 -548121 -558214 -561193 -552787 -530284 -493880 -446318 
3729.515 -392990 -341444 -299296 -272872 -265521 -275389 -296978 -322671 
3733.373 -347602 -370644 -395572 -427682 -470976 -523599 -577903 -622473 
3737.230 -647817 -649504 -629653 -594812 -552423 -508409 -465482 -423974 
3741.087 -383920 -347304 -321579 -318500 -350151 -423610 -531376 -649669 
3744.945 -743685 -786122 -769055 -703462 -610959 -515292 -438076 -392990 
3748.802 -384747 -408483 -452573 -503411 -550438 -589683 -620819 -644045 
3752.660 -658139 -659760 -645931 -616484 -574793 -528067 -483785 -449462 
3756.517 -429635 -425762 -435659 -455155 -480178 -506721 -531740 -552522 
3760.375 -565594 -568704 -560001 -540675 -513737 -484613 -458498 -439532 
3764.232 -429403 -426457 -426954 -426689 -423246 -417122 -411594 -411230 
3768.089 -420300 -440095 -469520 -504073 -537565 -563939 -579558 -583131 
3771.947 -576315 -561921 -543720 -524228 -505198 -486863 -468064 -447608 
3775.804 -424637 -400571 -378954 -364983 -364122 -380046 -412786 -456645 
3779.662 -502220 -538822 -558578 -558777 -542595 -517411 -492159 -474021 
3783.519 -466574 -469421 -479185 -490636 -499969 -505397 -508045 -510063 
3787.376 -513439 -518635 -524956 -529986 -531111 -526975 -517245 -502783 
3791.234 -485043 -465449 -445060 -424934 -406000 -389680 -377828 -372068 
3795.091 -373525 -381404 -392626 -402193 -404941 -396896 -377828 -351443 
3798.949 -325122 -309129 -312738 -342504 -396301 -464026 -527273 -568539 
3802.806 -577804 -556030 -514002 -467137 -432250 -421790 -440724 -484480 
3806.664 -539352 -587201 -612084 -607882 -578069 -532832 -482858 -435891 
3810.521 -394414 -355780 -315586 -269958 -219291 -168321 -126255 -102769 
3814.378 -105916 -137120 -189551 -247606 -292739 -310321 -294892 -251679 
3818.236 -193625 -137583 -99953 -94885 -129037 -199123 -290819 -381437 
3822.093 -450488 -484480 -482196 -451117 -404212 -354952 -313169 -284693 
3825.951 -269892 -264362 -261150 -254063 -239956 -219523 -196109 -174746 
3829.808 -160041 -154410 -158020 -168222 -181271 -192399 -197301 -193393 
3833.666 -179913 -158351 -132052 -106380 -87730 -81800 -92666 -120723 
3837.523 -161962 -209058 -253699 -289197 -312440 -323830 -326645 -325320 
3841.380 -323400 -323135 -325949 -331743 -339491 -347569 -354124 -356773 
3845.238 -352800 -340484 -318632 -287971 -249195 -204289 -154940 -101941 
3849.095 -46020 11298 66670 113300 140842 136732 88708 -8449 -147057 -302805 
3853.917 -443405 -541238 -583760 -575620 -531939 -469785 -402557 -339888 
3857.774 -286216 -242374 -207435 -179714 -157821 -141326 -129965 -124168 
3861.632 -124168 -130462 -143744 -164346 -191969 -224127 -255057 -277309 
3865.489 -283766 -269892 -236446 -190876 -144738 -111282 -102140 -123141 
3869.347 -170904 -232704 -290124 -327737 -338928 -327439 -304064 -282673 
3873.204 -273898 -281812 -303269 -328068 -344192 -341510 -316679 -272740 
3877.062 -219027 -166532 -126421 -106910 -111150 -136457 -174183 -213264 
3880.919 -242804 -255719 -250652 -232174 -208429 -189021 -182596 -194784 
3884.776 -225352 -267739 -310454 -341146 -350251 -335617 -301481 -257275 
3888.634 -213661 -179648 -162227 -163055 -179284 -203991 -229094 -247043 
3892.491 -253865 -248798 -233234 -209588 -180013 -146328 -110090 -73286 
3896.349 -38665 -9542 10901 20046 17329 4174 -15937 -38566 -59902 -77692 
3901.170 -92003 -104757 -119365 -138411 -163717 -193989 -226544 -256249 
3905.028 -278137 -287971 -283965 -266746 -239228 -206210 -172627 -142916 
3908.885 -119928 -104624 -95448 -89518 -83556 -74810 -61658 -44364 -24684 
3913.225 -4970 11862 23625 28562 25911 15705 -994 -22099 -45258 -66991 
3918.047 -84649 -96144 -100384 -97668 -89287 -77394 -64540 -53077 -45093 
3922.386 -41780 -43436 -49764 -59073 -69211 -77858 -82827 -82893 -77592 
3926.726 -68018 -55694 -42773 -31178 -22298 -17593 -17295 -21635 -30084 
3931.065 -41879 -55562 -69211 -81005 -89386 -93659 -94057 -91870 -89154 
3935.405 -87233 -87398 -89187 -91837 -93659 -92931 -88922 -82065 -73451 
3939.745 -65236 -59372 -57682 -60896 -68681 -80044 -92036 -102305 -107606 
3944.084 -106413 -97999 -83953 -66892 -50427 -38268 -32668 -34590 -42873 
3948.424 -55065 -68482 -80508 -90214 -97800 -103465 -107871 -110587 -110587 
3952.763 -106844 -99026 -87597 -74379 -61757 -51652 -45358 -42045 -40156 
3957.103 -38003 -33662 -27268 -19250 -11663 -6461 -4870 -7521 -13717 -22431 
3961.925 -31940 -40587 -46782 -49499 -47743 -41680 -32006 -19979 -7819 2120 
3966.747 8714 11298 10337 7289 3942 1259 165 165 1126 2319 3843 6096 9741 
3973.015 15142 22067 29887 37807 45130 51460 57226 63058 69520 77209 85991 
3978.319 95303 104484 112670 119298 123872 126325 126656 124668 121088 
3982.658 116382 111245 106207 101600 97358 93315 89073 84798 80987 78799 
3987.480 79065 82611 89669 99347 110714 122149 132390 140544 146178 149195 
3992.302 149327 146775 141140 132954 122778 111676 101004 91724 84632 79230 
3997.124 75320 72238 69487 66869 64417 62395 60772 59479 
##END=
