##TITLE=1693_1_a
##JCAMP-DX=5.01  $$ Nicolet v. 1
##DATATYPE=INFRARED SPECTRUM
##ORIGIN=UniL
##OWNER=Nicolet
##LONGDATE=2011/09/29
##TIME=10:13:31
##SPECTROMETER/DATA SYSTEM=Nicolet iS5
##DATA PROCESSING=
Ratio against background
%Transmittance->Absorbance
Truncated
ElementMultiply or ElementDivide
##COMMENTS=
Number of sample scans: 32
Collection length: 51.18 sec
Sample gain: 2.0
Background collected on: Jeu Sep 29 10:11:50 2011 (GMT+02:00);
Number of background scans: 32
Background gain: 2.0
Sample spacing:  1.000
Number of scan points: 12415
Resolution points: 8192
Number of FFT points: 65536
Apodization: N-B fort;
Phase correction: Mertz;
Laser frequency: 15798.0 cm-1
Number of rejected sample scans: 0
Number of rejected background scans: 0
Bench serial number: ASB1000141;
##RESOLUTION=4.000
##XUNITS=1/CM
##YUNITS=ABSORBANCE
##FIRSTX=649.893372
##LASTX=4000.122314
##FIRSTY=0.089484
##MAXX=4000.122314
##MINX=649.893372
##MAXY=0.287671
##MINY=0.003305
##XFACTOR=1.000000
##YFACTOR=1.000000E-009
##NPOINTS=6950
##DELTAX=0.482117
##ZPD=6100
##XYDATA=(X++(Y..Y))
649.893 89484000 89558024 89709576 89953784 90289000 90698200 91162672 
653.268 91674504 92241384 92882008 93613376 94437352 95334408 96273888 
656.643 97225816 98178248 99142968 100148568 101224128 102381928 103612296 
660.018 104888928 106188712 107506400 108862408 110292536 111831336 
662.911 113488232 115241936 117040016 118822480 120536272 122133192 
665.803 123568312 124780600 125678656 126161024 126160800 125699368 
668.696 124880512 123836864 122656512 121358360 119910384 118266344 
671.589 116397176 114316560 112083496 109780664 107499648 105307360 
674.481 103235416 101291448 99471152 97771816 96198336 94757704 93449528 
677.856 92261952 91173472 90158360 89197336 88284024 87421616 86617624 
681.231 85875768 85189512 84544912 83926880 83324288 82736888 82173384 
684.606 81647272 81168320 80738912 80352176 79995696 79658032 79330240 
687.981 79009456 78694752 78383568 78068560 77737688 77376352 76971904 
691.355 76517840 76014480 75467464 74887168 74285544 73675800 73075184 
694.730 72505312 71989096 71550096 71203544 70952368 70782536 70665168 
698.105 70561432 70427632 70227664 69938672 69553576 69082960 68548800 
701.480 67981960 67412656 66867508 66366480 65919428 65527788 65186776 
704.855 64889000 64626380 64392664 64184428 63999288 63835868 63692464 
708.229 63567520 63459524 63370144 63303896 63271204 63287796 63377580 
711.604 63567520 63884848 64349860 64964728 65705256 66512196 67299472 
714.979 67960568 68387384 68500880 68263208 67693880 66862792 65887384 
718.354 64910436 64069396 63494264 63283392 63492084 64130120 65149584 
721.729 66444196 67840432 69125000 70074152 70479232 70210368 69239976 
725.104 67658648 65648676 63446900 61295312 59370236 57775132 56531964 
728.478 55603860 54923880 54424676 54059620 53799492 53629744 53540192 
731.853 53516468 53541096 53598744 53680284 53786440 53924960 54104652 
735.228 54329520 54595936 54894740 55216740 55556900 55916176 56298864 
738.603 56707904 57140536 57587444 58035156 58470892 58886348 59277216 
741.978 59638132 59957660 60211644 60365744 60382728 60229800 59891172 
745.352 59370804 58691432 57886008 56988824 56032188 55043056 54046336 
748.727 53069048 52138524 51280152 50513840 49848876 49285128 48816500 
752.102 48437376 48147460 47953560 47866616 47897176 48048592 48314000 
755.477 48674520 49102188 49564552 50024696 50445768 50794988 51042068 
758.852 51167564 51166108 51050828 50850040 50603816 50355792 50138964 
762.227 49975512 49874444 49836540 49862812 49959860 50140936 50425968 
765.601 50837784 51397324 52124364 53033928 54131040 55404048 56817488 
768.976 58312084 59811572 61253876 62624544 63991912 65511376 67402816 
772.351 69893328 73110080 77001176 81262520 85384760 88686184 90481736 
775.726 90308000 88017832 83866144 78398056 72349776 66436356 61187304 
779.101 56936840 53777404 51624896 50288672 49555676 49244488 49216692 
782.475 49389100 49712060 50150564 50679764 51282168 51951088 52692856 
785.850 53522728 54458672 55513184 56692844 58001604 59447812 61052592 
789.225 62851376 64886236 67204120 69845424 72840912 76217856 80003112 
792.600 84226128 88916392 94089416 99728080 105758064 112042968 118373288 
795.975 124463328 129999088 134639920 138058112 140005952 140334688 
798.867 139043264 136279168 132336240 127606824 122496040 117406792 
801.760 112658696 108447560 104853872 101833456 99256144 96937848 94704624 
805.135 92435648 90086472 87698920 85379640 83266536 81471720 80053512 
808.510 78992808 78200560 77534640 76835208 75972408 74858544 73466480 
811.885 71819752 69977400 68011912 65988816 63966616 61990244 60093100 
815.259 58305528 56652296 55152480 53819784 52659264 51668072 50838268 
818.634 50160312 49625244 49226712 48960784 48824248 48813680 48926552 
822.009 49161812 49523292 50021240 50672468 51498260 52517932 53744816 
825.384 55177912 56797056 58555476 60379300 62172080 63809924 65165444 
828.759 66123872 66598280 66557692 66034140 65125868 63972296 62741028 
832.133 61602624 60692856 60109120 59892732 60025604 60432156 60987500 
835.508 61543248 61932384 62005416 61660588 60853112 59611980 58025916 
838.883 56232028 54378108 52594556 50984680 49604628 48470756 47569684 
842.258 46872924 46347640 45963008 45695500 45524912 45432824 45404132 
845.633 45425688 45488524 45588868 45725792 45899252 46107452 46346128 
849.008 46609616 46894740 47202068 47536932 47907980 48323484 48788060 
852.382 49301572 49859916 50458460 51095140 51772320 52495944 53273784 
855.757 54113660 55020716 56000264 57059932 58210576 59470496 60863064 
859.132 62413364 64149624 66099644 68288032 70737336 73460440 76451776 
862.507 79673072 83043832 86435816 89663472 92516872 94778232 96245680 
865.882 96782504 96325136 94901440 92620568 89664040 86260256 82634752 
869.256 79005408 75550976 72391464 69602656 67214448 65222196 63599856 
872.631 62310168 61314508 60573648 60053112 59723056 59555236 59526776 
876.006 59619508 59820132 60121904 60522684 61022544 61620108 62310284 
879.381 63081928 63919468 64803676 65714888 66636368 67554424 68460192 
882.756 69349344 70220648 71074512 71910296 72724440 73509096 74253304 
886.131 74945600 75580312 76162056 76711048 77259640 77849264 78522016 
889.505 79308408 80221664 81253536 82377816 83554200 84735600 85878880 
892.880 86942952 87891976 88696016 89326824 89758920 89972208 89950528 
896.255 89685592 89177440 88436192 87483704 86353664 85095024 83765312 
899.630 82427040 81144008 79966936 78932320 78059560 77350248 76794952 
903.005 76377456 76082856 75899008 75818352 75837088 75952480 76162728 
906.379 76465920 76862296 77354408 77946824 78645824 79456704 80381280 
909.754 81418960 82567144 83823624 85188304 86664184 88254832 89963928 
913.129 91793312 93743696 95818376 98026816 100388064 102931848 105692088 
916.504 108705728 112003688 115604864 119512728 123710232 128157528 
919.397 132778840 137460176 142051376 146356080 150168336 153303248 
922.289 155627248 157107936 157830768 158011008 157948208 158005088 
925.182 158562144 159932288 162348832 165916816 170594832 176182128 
928.075 182317808 188537984 194252752 198831888 201703424 202366752 
930.967 200509664 196053744 189165440 180243456 169848720 158668064 
933.860 147368624 136538096 126659496 118034744 110822776 105063112 
936.753 100705696 97657040 95807632 95058544 95312456 96460120 98369200 
940.128 100844344 103623696 106409976 108863768 110675984 111623192 
943.020 111585360 110580872 108746968 106320832 103574440 100767992 98127368 
946.395 95798264 93855800 92314896 91147432 90304296 89730232 89378840 
949.770 89211456 89197008 89311072 89530824 89835720 90209048 90638016 
953.145 91114816 91635960 92198736 92800520 93436416 94099872 94784952 
956.520 95487496 96206440 96942904 97698200 98472104 99262256 100064536 
959.894 100875608 101694648 102524808 103371472 104239720 105132248 
962.787 106046992 106978976 107921920 108871864 109828960 110796816 
965.680 111780584 112783560 113805776 114843648 115892464 116948272 
968.573 118009952 119079080 120157320 121244320 122335944 123425344 
971.465 124505600 125572416 126626592 127672584 128716992 129764584 
974.358 130817216 131874128 132935048 134002400 135083728 136189344 
977.251 137328544 138506304 139719728 140959728 142212704 143466176 
980.143 144711280 145941344 147151472 148334208 149477664 150568096 
983.036 151593104 152545488 153427168 154247632 155021264 155761216 
985.929 156478256 157179552 157871424 158562272 159264304 159991040 
988.821 160755392 161564512 162418528 163311808 164237328 165190528 
991.714 166172304 167186704 168238368 169327376 170448112 171590384 
994.607 172743472 173901264 175064480 176238768 177430896 178643664 
997.500 179873088 181110496 182346912 183577392 184804912 186038368 
1000.392 187288960 188564336 189866608 191193824 192543200 193916656 
1003.285 195322480 196773120 198280928 199852528 201486000 203172944 
1006.178 204904928 206676688 208490928 210354464 212274208 214250560 
1009.070 216275312 218332032 220402576 222473344 224535888 226586800 
1011.963 228621552 230628848 232589936 234483616 236292624 238012800 
1014.856 239655600 241245712 242810640 244373056 245945248 247529200 
1017.748 249120880 250716768 252315344 253915632 255511584 257089200 
1020.641 258626912 260103312 261507840 262849264 264157392 265473984 
1023.534 266844960 268304800 269869088 271536224 273292160 275118496 
1026.427 276992032 278885408 280759648 282555168 284198464 285605952 
1029.320 286693792 287397376 287671232 287488832 286837952 285713792 
1032.213 284119040 282069792 279602880 276779232 273673312 270366048 
1035.106 266921872 263375760 259730880 255963088 252036272 247912608 
1037.999 243566784 238990432 234192864 229200400 224057248 218829376 
1040.892 213595040 208443616 203462272 198713040 194226592 189992208 
1043.785 185964800 182075616 178252688 174443184 170619408 166787072 
1046.678 162976528 159237200 155623888 152185952 148966704 145995280 
1049.571 143286032 140839328 138641472 136667392 134883024 133253904 
1052.464 131747472 130336672 129003808 127736328 126524552 125360056 
1055.357 124231968 123128976 122041112 120960168 119880640 118798304 
1058.250 117707968 116602240 115472872 114311600 113114808 111885264 
1061.144 110632760 109371800 108118744 106888648 105693104 104540408 
1064.037 103437144 102388552 101399320 100471576 99603232 98785920 98005688 
1067.412 97246000 96490616 95728160 94955208 94175968 93401376 92644848 
1070.787 91921776 91246304 90631728 90090104 89632640 89267816 89001704 
1074.162 88835440 88765800 88784256 88879264 89035504 89233832 89451472 
1077.538 89659520 89822800 89906176 89875488 89706976 89392888 88944568 
1080.913 88391272 87773096 87139104 86537712 86011264 85599344 85334632 
1084.288 85244912 85356288 85690800 86267056 87100640 88201848 89576064 
1087.663 91220144 93119336 95240088 97520440 99873800 102181232 104301984 
1091.039 106102280 107462056 108304080 108608536 108415160 107818064 
1093.932 106943328 105943032 104965464 104134936 103554168 103287112 
1096.825 103361472 103771992 104484224 105437984 106547416 107714200 
1099.718 108825336 109758264 110401224 110652376 110436424 109718040 
1102.611 108504048 106845592 104824056 102546544 100126248 97663720 95249488 
1105.986 92950912 90811592 88857272 87095784 85521552 84118664 82865752 
1109.361 81738096 80709264 79755280 78854200 77985680 77132976 76280840 
1112.737 75416264 74530464 73618880 72683616 71732192 70778048 69837520 
1116.112 68926280 68059072 67246632 66495700 65810040 65191508 64640916 
1119.487 64159080 63747296 63406452 63136876 62937008 62801516 62719168 
1122.862 62671624 62631324 62560520 62418032 62160036 61748736 61161708 
1126.238 60394724 59464724 58405392 57264028 56091832 54933244 53825596 
1129.613 52791960 51841604 50973952 50180396 49449432 48768076 48124324 
1132.988 47508764 46913896 46335844 45773724 45229836 44708408 44215228 
1136.363 43756176 43335752 42957652 42624764 42338920 42102144 41916620 
1139.739 41783552 41703524 41676240 41700240 41774432 41898044 42071076 
1143.114 42293700 42565628 42884500 43245920 43643612 44070272 44517768 
1146.489 44978876 45445700 45909272 46359952 46786636 47178316 47527396 
1149.864 47829476 48085716 48301784 48486316 48649500 48800480 48947616 
1153.240 49097436 49255216 49425040 49609756 49810004 50024176 50248424 
1156.615 50477292 50703820 50921864 51125256 51308156 51464540 51587840 
1159.990 51670568 51705880 51687440 51610792 51473304 51273704 51011660 
1163.365 50687324 50301548 49856496 49356100 48806896 48217432 47597228 
1166.740 46956868 46305984 45653244 45006880 44374620 43764164 43183552 
1170.116 42640008 42139348 41685580 41280380 40924164 40617024 40360060 
1173.491 40156084 40009064 39923292 39902156 39947668 40060696 40241976 
1176.866 40493232 40818084 41222556 41713628 42298704 42984316 43776220 
1180.241 44679580 45700136 46843288 48115516 49523032 51070504 52762328 
1183.617 54601912 56591560 58732432 61021780 63451432 66002548 68644136 
1186.992 71334064 74015104 76620288 79077752 81306272 83226552 84766288 
1190.367 85862408 86475760 86594408 86238032 85454016 84312344 82898592 
1193.742 81295448 79579896 77814736 76039904 74277248 72531352 70795800 
1197.118 69059464 67314480 65560424 63807740 62076892 60394380 58791304 
1200.493 57296196 55931624 54713444 53648380 52735392 51966956 51331800 
1203.868 50815920 50403084 50076456 49817248 49604852 49419212 49240888 
1207.243 49053364 48845600 48611368 48349592 48062804 47756312 47436652 
1210.619 47111096 46788520 46478940 46193568 45945292 45747476 45612276 
1213.994 45552108 45577500 45697816 45921940 46257292 46709700 47283264 
1217.369 47979500 48798404 49739072 50800944 51984288 53290076 54719640 
1220.744 56273480 57951168 59752488 61678040 63730724 65915420 68238008 
1224.120 70702360 73307736 76046344 78903080 81855256 84870656 87910440 
1227.495 90925392 93853416 96626272 99167536 101398520 103250840 104666672 
1230.870 105606720 106055368 106023384 105552888 104713600 103611456 
1233.763 102377352 101150936 100084896 99320104 98974272 99149256 99917000 
1237.138 101324960 103400864 106151944 109566208 113606360 118212704 
1240.031 123292840 128718632 134342480 139987696 145457824 150561488 
1242.925 155098624 158881648 161758800 163612000 164380880 164065808 
1245.818 162725888 160468784 157432176 153785600 149706224 145367888 
1248.711 140941120 136560224 132312744 128229272 124276960 120368896 
1251.604 116380792 112191160 107701288 102863448 97694800 92274952 86734576 
1254.979 81220856 75890640 70879032 66277848 62141688 58480180 55269648 
1258.354 52462484 50001424 47829656 45892696 44146780 42558464 41101584 
1261.729 39759248 38519380 37372404 36310468 35324332 34403980 33540152 
1265.105 32725200 31954676 31228312 30548338 29917914 29339096 28811746 
1268.480 28334230 27904088 27520434 27184178 26897774 26663910 26484016 
1271.855 26357394 26281740 26254424 26274032 26340988 26456760 26622690 
1275.230 26838414 27100444 27402402 27735158 28088388 28450146 28807142 
1278.606 29145866 29452302 29715026 29927250 30088050 30202340 30277614 
1281.981 30321136 30335028 30315558 30252746 30135530 29956006 29713110 
1285.356 29415036 29076882 28718600 28358740 28012042 27688858 27393862 
1288.731 27128976 26894672 26690194 26513636 26361796 26230632 26115974 
1292.107 26015912 25931702 25867410 25829324 25822960 25851796 25916752 
1295.482 26016650 26150566 26318984 26524660 26771840 27064154 27403780 
1298.857 27790542 28223508 28701078 29222128 29784962 30384740 31010468 
1302.232 31645190 32264602 32841154 33350270 33771052 34092024 34310272 
1305.608 34431168 34466244 34431060 34345128 34229708 34106180 33995592 
1308.983 33913968 33871272 33870588 33908708 33978748 34072888 34185144 
1312.358 34311060 34447272 34589660 34731912 34866140 34984744 35081828 
1315.733 35154864 35204804 35234056 35244944 35238008 35212712 35167944 
1319.109 35105000 35027664 34942080 34855148 34772584 34697280 34630168 
1322.484 34572616 34528020 34503948 34512308 34566124 34679296 34863732 
1325.859 35127880 35478980 35921516 36456388 37078196 37771188 38508188 
1329.234 39249128 39948360 40562416 41055912 41410848 41627776 41724204 
1332.610 41727744 41670988 41586204 41499572 41432464 41401628 41418940 
1335.985 41492832 41628796 41829592 42097144 42435104 42850232 43353252 
1339.360 43956348 44669116 45495332 46430080 47459676 48561860 49709012 
1342.735 50868364 51998852 53056504 53994408 54766588 55338932 55691280 
1346.111 55820044 55736144 55459796 55014020 54418292 53688572 52837688 
1349.486 51877860 50826944 49710092 48558044 47408124 46297028 45255104 
1352.861 44307356 43469472 42749860 42152344 41675988 41315840 41061808 
1356.236 40899696 40812736 40784124 40801596 40857468 40948340 41072188 
1359.612 41225584 41402100 41594956 41799824 42020048 42268648 42568004 
1362.987 42943640 43415756 43996860 44688392 45484664 46375584 47348444 
1366.362 48385888 49458088 50521804 51516056 52363976 52989940 53325404 
1369.737 53321468 52957076 52238212 51196936 49882508 48365408 46730880 
1373.113 45068516 43476432 42041984 40826896 39862780 39146756 38653220 
1376.488 38347356 38202464 38208832 38376784 38734356 39321636 40188140 
1379.863 41383000 42952968 44931508 47321212 50070988 53053248 56075052 
1383.238 58870184 61142752 62627956 63100740 62430772 60605644 57757196 
1386.614 54157352 50165924 46185204 42540960 39430576 36924128 34985464 
1389.989 33524156 32431230 31611264 30987124 30500636 30114364 29804162 
1393.364 29558656 29376816 29263594 29225068 29263380 29374262 29548192 
1396.739 29773714 30038870 30332292 30643050 30958586 31266124 31555106 
1400.115 31818818 32056186 32269988 32464828 32644574 32811418 32966998 
1403.490 33113766 33257578 33407270 33572444 33761096 33976600 34217052 
1406.865 34477868 34754632 35046520 35356212 35688900 36049092 36438876 
1410.240 36856604 37299356 37764608 38252724 38765328 39302484 39857880 
1413.615 40418388 40964032 41475988 41942348 42363540 42752600 43133048 
1416.991 43533020 43978124 44489868 45081936 45758116 46514344 47338836 
1420.366 48213172 49115876 50026076 50929128 51820252 52711112 53630420 
1423.741 54621336 55727028 56977604 58381928 59927040 61587996 63337936 
1427.116 65158284 67033960 68947640 70873920 72770936 74585816 76267808 
1430.492 77779584 79110544 80277904 81323856 82302272 83265808 84264344 
1433.867 85342696 86548184 87942728 89602416 91607728 94022888 96857992 
1437.242 100062536 103543736 107195088 110913920 114592176 118114968 
1440.135 121328088 124043008 126077072 127259808 127478960 126697824 
1443.028 124949824 122328392 118960808 115006280 110628144 105975936 
1445.921 101197776 96428384 91801336 87466888 83569552 80227048 77502080 
1449.297 75385552 73811344 72685816 71928600 71488496 71349296 71515680 
1452.672 71991952 72764280 73802904 75063064 76502864 78096600 79827752 
1456.047 81684096 83639840 85649624 87652904 89595408 91451704 93219656 
1459.422 94913064 96551072 98151208 99723744 101264336 102754496 104150384 
1462.798 105380128 106359016 107000168 107249584 107112224 106658296 
1465.691 105998904 105239680 104461296 103705728 102984728 102296872 
1468.584 101632800 100973928 100283288 99498144 98529976 97276008 95660792 
1471.959 93677136 91415184 89037904 86721872 84594632 82706224 81053584 
1475.334 79618504 78398128 77419512 76728960 76365960 76349928 76669736 
1478.709 77294672 78188944 79329208 80712216 82352096 84270464 86484136 
1482.085 88997768 91803672 94890352 98250944 101891184 105823880 110052728 
1485.460 114557320 119262928 124017000 128602120 132720456 136023984 
1488.353 138173840 138864304 137905424 135284880 131196768 126011176 
1491.246 120165264 114081368 108058176 102249616 96711088 91424184 86353016 
1494.621 81492992 76883216 72613312 68801496 65550216 62911920 60875336 
1497.997 59388468 58379808 57783308 57551244 57647036 58039888 58699508 
1501.372 59589900 60669500 61895092 63209800 64543644 65807840 66868052 
1504.747 67547296 67632584 66911684 65271600 62782184 59697700 56331832 
1508.122 52927956 49604368 46382516 43249576 40202024 37256680 34460828 
1511.498 31873300 29538652 27483334 25705598 24183200 22884812 21777926 
1514.873 20832792 20020082 19313320 18692622 18146526 17677034 17293998 
1518.248 17006114 16811370 16692322 16616235 16547523 16459795 16352780 
1521.623 16254392 16207097 16241595 16360935 16543256 16754650 16966972 
1524.999 17165268 17354686 17555054 17790896 18077746 18416462 18796200 
1528.374 19204042 19633554 20087018 20573788 21103710 21680530 22300602 
1531.749 22954254 23630092 24321912 25030912 25763466 26522160 27302892 
1535.124 28091534 28870772 29621404 30328028 30981892 31575986 32105100 
1538.500 32562782 32938722 33219912 33397072 33475980 33477518 33431962 
1541.875 33365906 33290308 33198308 33069104 32881216 32622964 32302648 
1545.250 31946548 31590060 31261318 30968408 30698984 30427560 30128606 
1548.625 29787094 29407128 29009856 28624202 28270644 27952320 27655838 
1552.000 27360866 27051776 26726874 26400278 26096164 25837764 25633608 
1555.376 25473958 25332840 25175408 24962262 24653436 24219320 23656122 
1558.751 23006376 22353970 21789946 21367276 21088786 20926000 20840196 
1562.126 20795840 20764456 20728934 20684626 20640010 20612906 20622150 
1565.501 20679692 20783816 20920124 21066978 21204490 21319110 21407548 
1568.877 21476926 21540954 21614184 21706062 21820396 21956334 22111348 
1572.252 22281590 22460380 22638404 22799984 22927250 23005678 23031600 
1575.627 23020280 23004210 23022762 23101274 23243800 23436272 23658712 
1579.002 23894428 24135456 24383906 24648912 24942222 25272676 25644962 
1582.378 26057074 26501942 26966836 27433144 27876776 28266400 28569206 
1585.753 28757720 28815250 28743558 28563862 28318314 28060356 27848548 
1589.128 27740810 27782348 28005928 28428990 29051054 29851682 30784198 
1592.503 31780958 32748390 33579496 34176184 34454480 34366428 33908024 
1595.879 33120274 32078948 30875580 29608172 28359200 27189928 26144828 
1599.254 25248446 24510764 23929824 23494540 23188888 22995756 22902974 
1602.629 22904722 23000786 23193222 23481180 23857566 24307792 24809278 
1606.004 25332804 25846168 26310112 26682726 26923824 26995818 26873380 
1609.380 26547554 26029562 25351070 24560092 23718024 22883276 22103156 
1612.755 21407896 20804982 20286710 19834492 19428518 19050824 18692448 
1616.130 18357248 18060060 17822518 17663298 17591938 17605154 17690008 
1619.505 17825282 17986944 18152710 18303124 18428320 18530348 18622716 
1622.881 18724722 18853952 19019804 19220252 19446398 19687742 19936956 
1626.256 20190342 20446268 20703080 20958128 21209048 21455794 21703136 
1629.631 21959924 22234718 22532894 22851704 23181548 23505698 23805656 
1633.006 24066316 24277340 24437462 24553992 24643862 24727230 24823626 
1636.382 24945838 25096764 25271098 25458954 25648124 25825598 25979538 
1639.757 26103096 26196210 26267238 26329300 26396686 26476658 26566680 
1643.132 26652952 26714188 26727932 26675254 26548398 26354400 26117664 
1646.507 25872226 25654840 25494864 25406712 25391150 25437804 25530038 
1649.883 25644224 25748454 25804360 25764134 25584614 25251782 24813102 
1653.258 24374340 24038964 23852104 23789836 23796696 23818466 23819586 
1656.633 23783956 23709694 23604132 23476948 23335568 23181618 23011232 
1660.008 22817236 22592992 22333006 22036360 21706446 21351824 20987128 
1663.384 20628994 20294764 19996454 19737602 19512518 19306324 19099086 
1666.759 18867620 18591868 18259614 17870748 17437940 16984442 16536992 
1670.134 16118646 15743680 15417856 15138522 14897394 14679945 14468634 
1673.509 14242908 13986398 13693963 13379479 13074237 12813810 12624484 
1676.885 12512273 12465350 12463509 12487412 12526290 12578505 12650069 
1680.260 12748463 12876436 13029098 13194893 13359216 13513004 13657375 
1683.635 13809115 13992148 14227055 14517623 14850419 15205842 15567910 
1687.010 15928047 16282909 16630968 16970762 17297582 17605672 17890842 
1690.385 18152606 18395204 18625832 18850560 19070454 19279410 19463378 
1693.761 19604610 19687396 19706256 19674254 19622288 19586966 19588040 
1697.136 19620070 19653004 19645480 19551610 19337190 18996682 18569182 
1700.511 18131532 17757416 17483956 17299584 17166646 17041780 16890700 
1703.886 16692184 16438458 16135462 15799617 15453253 15115913 14800329 
1707.262 14510292 14243284 13991737 13746559 13499605 13245004 12981572 
1710.637 12712603 12444858 12185932 11941465 11713610 11500675 11298794 
1714.012 11103194 10910467 10718574 10525373 10327610 10121356 9905030 
1717.387 9682544 9467147 9277177 9128265 9028354 8973788 8952648 8949367 
1721.245 8949672 8945106 8934147 8921802 8915816 8922986 8945241 8979133 
1725.102 9017595 9053862 9083602 9105763 9120855 9129179 9129179 9118588 
1728.960 9095613 9061541 9020776 8978761 8937935 8893968 8833705 8737478 
1732.817 8586555 8374099 8117116 7853942 7630649 7476064 7391698 7358232 
1736.675 7348392 7338248 7310380 7257818 7183229 7096932 7011696 6938329 
1740.532 6882175 6843598 6820609 6810982 6813406 6826835 6849253 6877495 
1744.389 6908231 6939137 6969977 7002436 7038838 7079655 7122563 7162849 
1748.247 7194245 7211594 7212672 7198927 7175110 7147590 7122327 7103870 
1752.104 7094541 7094440 7101580 7112425 7120980 7119633 7101513 7061368 
1755.962 6999406 6922505 6843060 6773758 6723010 6690975 6670585 6651037 
1759.819 6620791 6573054 6507731 6431523 6354924 6288356 6238101 6204859 
1763.677 6185567 6175383 6170207 6166813 6162478 6154748 6141608 6122520 
1767.534 6099468 6077459 6062574 6058676 6065497 6076820 6083541 6075107 
1771.391 6045909 5998336 5944084 5898537 5874053 5875329 5898369 5934611 
1775.249 5975761 6016948 6057467 6098830 6142616 6187584 6229228 6261867 
1779.106 6280793 6285768 6281297 6275414 6276153 6286843 6305770 6326581 
1782.964 6342416 6348266 6343560 6332162 6320361 6312999 6312494 6318109 
1786.821 6327489 6339054 6352267 6367599 6384949 6401359 6411514 6408017 
1790.678 6384580 6339659 6277700 6209430 6146413 6097317 6064086 6042348 
1794.536 6025314 6007071 5984764 5959099 5932092 5906128 5881173 5855984 
1798.393 5828245 5796411 5761355 5725799 5693435 5666713 5646203 5630964 
1802.251 5619216 5610422 5605454 5606159 5613711 5627574 5645129 5662517 
1806.108 5676415 5685714 5691387 5696323 5703104 5712974 5724725 5736106 
1809.966 5745172 5751786 5757964 5767164 5781569 5801380 5824249 5846682 
1813.823 5865992 5882550 5898873 5919933 5949895 5990307 6039021 6091101 
1817.680 6140869 6184323 6220690 6251648 6280423 6309670 6339559 6368844 
1821.538 6394667 6414238 6425368 6426982 6418676 6401325 6377048 6349645 
1825.395 6324463 6306980 6301131 6307384 6322277 6338281 6346384 6339995 
1829.253 6317201 6283079 6248152 6225261 6222976 6243984 6284591 6337306 
1833.110 6395004 6452137 6506453 6558152 6608309 6657497 6705714 6753263 
1836.968 6801390 6853797 6916108 6993379 7088748 7201791 7327802 7460288 
1840.825 7592411 7719379 7838759 7950580 8056557 8159891 8264061 8372985 
1844.682 8490619 8620081 8761550 8912771 9068207 9219536 9357746 9476088 
1848.540 9569904 9638399 9684035 9709751 9717680 9707888 9678987 9629387 
1852.397 9560149 9473886 9375724 9270407 9160819 9046656 8926402 8798201 
1856.255 8662264 8522111 8382915 8249303 8123328 8003734 7886501 7768153 
1860.112 7647409 7526362 7410100 7303406 7209101 7126302 7051938 6982435 
1863.969 6916782 6856793 6806102 6768004 6742663 6726139 6711569 6692624 
1867.827 6666648 6636872 6610529 6596299 6599159 6618133 6647100 6677213 
1871.684 6701844 6717323 6723952 6724087 6720453 6713520 6702651 6686298 
1875.542 6663452 6635089 6603868 6571573 6539214 6505040 6465791 6418945 
1879.399 6364204 6303787 6242336 6183752 6129577 6077997 6025179 5967060 
1883.257 5903172 5836842 5774081 5722073 5685378 5663189 5651440 5643652 
1887.114 5634186 5619954 5601493 5581490 5563131 5548767 5539404 5535276 
1890.971 5537357 5546888 5565145 5592129 5625325 5659731 5690918 5715157 
1894.829 5733018 5748966 5768977 5798492 5839058 5887823 5938911 5986511 
1898.686 6026658 6059382 6087842 6116236 6147254 6181735 6217934 6253362 
1902.544 6286978 6318546 6349510 6380511 6411043 6438719 6460747 6475443 
1906.401 6482809 6485230 6485028 6483919 6481329 6474838 6461957 6442553 
1910.259 6419047 6396315 6379603 6371903 6371735 6375097 6376880 6373786 
1914.116 6365851 6356100 6347493 6341542 6335759 6324564 6302207 6266506 
1917.973 6220354 6171619 6128838 6097654 6076787 6060659 6040836 6010800 
1921.831 5969445 5921982 5876336 5840334 5817298 5805108 5798123 5790669 
1925.688 5779722 5766459 5754170 5745440 5740303 5735972 5728284 5715425 
1929.546 5699445 5685277 5679168 5684606 5699076 5715727 5725631 5722610 
1933.403 5706126 5682088 5658422 5642511 5636603 5636972 5637106 5631769 
1937.260 5619921 5606058 5597298 5598808 5611261 5629755 5646035 5652413 
1941.118 5647143 5633246 5618477 5610153 5611328 5619182 5628580 5633850 
1944.975 5633951 5632072 5634220 5643786 5661309 5680980 5695987 5701862 
1948.833 5699377 5694510 5696658 5713008 5745138 5788285 5833081 5871097 
1952.690 5898638 5917178 5931588 5946737 5963298 5977306 5982614 5973846 
1956.548 5950970 5919194 5887689 5862500 5846682 5836137 5824417 5805007 
1960.405 5777372 5745508 5717305 5699310 5693738 5697330 5705286 5713411 
1964.262 5722744 5737886 5765485 5806988 5859376 5911838 5952213 5971831 
1968.120 5970251 5952918 5930345 5909890 5894440 5881475 5866093 5846077 
1971.977 5825928 5815249 5824752 5860720 5921444 5997127 6075107 6145271 
1975.835 6204052 6255749 6308258 6363632 6419282 6464748 6487248 6478403 
1979.692 6438484 6374862 6300829 6229295 6167351 6117513 6078904 6049571 
1983.550 6030857 6025549 6035897 6060592 6094663 6128401 6152295 6162646 
1987.407 6160999 6155723 6155757 6167351 6190406 6219917 6247950 6269430 
1991.264 6284322 6298240 6317335 6346518 6383840 6422174 6453751 6472114 
1995.122 6477528 6475410 6475074 6483683 6504367 6534236 6566427 6594718 
1998.979 6613961 6624659 6628528 6627485 6621463 6609588 6589571 6561953 
2002.837 6530334 6501206 6479075 6466968 6461890 6457047 6445277 6422712 
2006.694 6390027 6353141 6318445 6290003 6266271 6242370 6212085 6172762 
2010.552 6127090 6082802 6048362 6030118 6028572 6039189 6055014 6071109 
2014.409 6084952 6099771 6118891 6145876 6181097 6222774 6268825 6319285 
2018.266 6376107 6442586 6519369 6603868 6687846 6762753 6821417 6861338 
2022.124 6886517 6904830 6921731 6940113 6957183 6965466 6958361 6933447 
2025.981 6893721 6847334 6804049 6770831 6750504 6742865 6744412 6753532 
2029.839 6769787 6793211 6822763 6856221 6888907 6916243 6938766 6959236 
2033.696 6985298 7023887 7077196 7140617 7205193 7258760 7294139 7310246 
2037.553 7313953 7315065 7323455 7343708 7374780 7412190 7449536 7483346 
2041.411 7514427 7544534 7576226 7609001 7639282 7661944 7673376 7672297 
2045.268 7662045 7647915 7635573 7627479 7624916 7625490 7627850 7630312 
2049.126 7632369 7632268 7627716 7615407 7591972 7557244 7515304 7472862 
2052.983 7439154 7420751 7419200 7430391 7446368 7457626 7458502 7448255 
2056.841 7431334 7413706 7400528 7393754 7391630 7391496 7392608 7395877 
2060.698 7405752 7425638 7456143 7494436 7533846 7566617 7588803 7599660 
2064.555 7602763 7602965 7603875 7605696 7606033 7602054 7592647 7580441 
2068.413 7571135 7569247 7577777 7594333 7613182 7627445 7632605 7628558 
2072.270 7618813 7609338 7603066 7599930 7596154 7585903 7565302 7534048 
2076.128 7495515 7455434 7419538 7389743 7365410 7344786 7325544 7308089 
2079.985 7294746 7288175 7289523 7297273 7306943 7313885 7315604 7312807 
2083.843 7308797 7308595 7314929 7327331 7342629 7355334 7361468 7359749 
2087.700 7351795 7339934 7326724 7311594 7292320 7266813 7234233 7198219 
2091.557 7165240 7142773 7135868 7145872 7168541 7197613 7226013 7249731 
2095.415 7267251 7281369 7295184 7310111 7326185 7341888 7355503 7366556 
2099.272 7376128 7385362 7395102 7404674 7411651 7414010 7411077 7405112 
2103.130 7399753 7399685 7407572 7423649 7445727 7470772 7495751 7521271 
2106.987 7548411 7579497 7615509 7655536 7696411 7735535 7771358 7804450 
2110.844 7837410 7873511 7913731 7957600 8002215 8044338 8082346 8116879 
2114.702 8150066 8184707 8222828 8263386 8304587 8344071 8381057 8416561 
2118.559 8453082 8492241 8533228 8572800 8605413 8626165 8633296 8628767 
2122.417 8618121 8609368 8608117 8617613 8638028 8666252 8698939 8734334 
2126.274 8770577 8806282 8839251 8865053 8878411 8875502 8855313 8821160 
2130.132 8780348 8741569 8712461 8697757 8698128 8711245 8734402 8764660 
2133.989 8799789 8838202 8876043 8907766 8928059 8932049 8918927 8892648 
2137.846 8860250 8829681 8807364 8795631 8793568 8798302 8807770 8820280 
2141.704 8836783 8857004 8878005 8894238 8897958 8882503 8845135 8788632 
2145.561 8720406 8650298 8587298 8535053 8493660 8458894 8426325 8391429 
2149.419 8352582 8307999 8256732 8197099 8128391 8050278 7966441 7880630 
2153.276 7797804 7721369 7651152 7584318 7520226 7462041 7419874 7408785 
2157.134 7444716 7534655 7673545 7840784 8007649 8148445 8248628 8306782 
2160.991 8336133 8353765 8372748 8399536 8433454 8469198 8502750 8533262 
2164.848 8562121 8591522 8621298 8646276 8660337 8658004 8637555 8603216 
2168.706 8563574 8526098 8496127 8473523 8453420 8429906 8400381 8365756 
2172.563 8332148 8306951 8295739 8299961 8316644 8339950 8362851 8381936 
2176.421 8393793 8396800 8390077 8371228 8339173 8294658 8242144 8188657 
2180.278 8142740 8110600 8093654 8089232 8090244 8091528 8090785 8090008 
2184.135 8093890 8107866 8133354 8167657 8205337 8240185 8267201 8287262 
2187.993 8302662 8316780 8332249 8349239 8365756 8379875 8391226 8401461 
2191.850 8413657 8430108 8450818 8472915 8492477 8505959 8511805 8512380 
2195.708 8510622 8510116 8511771 8514407 8514272 8509777 8499336 8485382 
2199.565 8471563 8461393 8456393 8457069 8461461 8467610 8475077 8484335 
2203.423 8495586 8508561 8520692 8527687 8526842 8517414 8501804 8485991 
2207.280 8476902 8479063 8493255 8516873 8544582 8571381 8594091 8612476 
2211.137 8627754 8641645 8653712 8662635 8666861 8665509 8660777 8657599 
2214.995 8659627 8670647 8691131 8717667 8745727 8771727 8793365 8811320 
2218.852 8827923 8844086 8860048 8873676 8882604 8885141 8882435 8877159 
2222.710 8873270 8873811 8878782 8885850 8891194 8890958 8882875 8867183 
2226.567 8845101 8818522 8788937 8756918 8724260 8693193 8667063 8649149 
2230.425 8641509 8642659 8648270 8652326 8649689 8637656 8618628 8598316 
2234.282 8582600 8576855 8582330 8596828 8616364 8636879 8656416 8675717 
2238.139 8696371 8719494 8744984 8770645 8794346 8814194 8831135 8847198 
2241.997 8864951 8885580 8908138 8928769 8944733 8953460 8956132 8956234 
2245.854 8958669 8967023 8982414 9002441 9022941 9040025 9051155 9056264 
2249.712 9057685 9058159 9060087 9064790 9073282 9085293 9102143 9124476 
2253.569 9151986 9182950 9213917 9239572 9256124 9261268 9255446 9241873 
2257.427 9225153 9207689 9190971 9173880 9154490 9131750 9107117 9083263 
2261.284 9064823 9055723 9057245 9068681 9087831 9111076 9135879 9161563 
2265.141 9187214 9212935 9238421 9262215 9282762 9299654 9312788 9323282 
2268.999 9333032 9342376 9350806 9356663 9357780 9352431 9341124 9325821 
2272.856 9309674 9296370 9288550 9287975 9295524 9310520 9331678 9357441 
2276.714 9384628 9409887 9429730 9441141 9442800 9435791 9423702 9410632 
2280.571 9401084 9397935 9401591 9411004 9423770 9437416 9450317 9461628 
2284.428 9471042 9478391 9483403 9486045 9486688 9486349 9486958 9490007 
2288.286 9496170 9505077 9514526 9522892 9528446 9531393 9533764 9538167 
2292.143 9547210 9562452 9583453 9608520 9635452 9662216 9687660 9711615 
2296.001 9733877 9753870 9770474 9782606 9789452 9791994 9792468 9793654 
2299.858 9798162 9807006 9818903 9830731 9838933 9840391 9833849 9820428 
2303.716 9802229 9782437 9763528 9747160 9733673 9723135 9715139 9709887 
2307.573 9707786 9708972 9713207 9720492 9729675 9740044 9751294 9762815 
2311.430 9774067 9784708 9793688 9799890 9802872 9802397 9799212 9795077 
2315.288 9791248 9789553 9790909 9795857 9803991 9815073 9828291 9842967 
2319.145 9858252 9872726 9885403 9895606 9902284 9904929 9903132 9895369 
2323.003 9880319 9856253 9822631 9779557 9729675 9677258 9626948 9583826 
2326.860 9551173 9530310 9520420 9519404 9524958 9534848 9548057 9563977 
2330.718 9581997 9601068 9619903 9637213 9652594 9666891 9681968 9700129 
2334.575 9722729 9749633 9779387 9809481 9837612 9862557 9884488 9904318 
2338.432 9923200 9941608 9959170 9974663 9987140 9996226 10002397 10006737 
2342.290 10009857 10011518 10010942 10007009 10000193 9992802 9989513 
2345.665 9996159 10018808 10061228 10124544 10206831 10303723 10410003 
2349.040 10519772 10627599 10728729 10819418 10897352 10962116 11015537 
2352.416 11060569 11101766 11142762 11185735 11230445 11275364 11318111 
2355.791 11357495 11393685 11428994 11466993 11510950 11562942 11622631 
2359.166 11688796 11758511 11829259 11899644 11968575 12036156 12102247 
2362.541 12167088 12230234 12292197 12352873 12412091 12469919 12524687 
2365.917 12574617 12617970 12652696 12678213 12695101 12704210 12707178 
2369.292 12704859 12697796 12685787 12669548 12650479 12630898 12614149 
2372.667 12603200 12600334 12606747 12623087 12649830 12688141 12739831 
2376.042 12807087 12891693 12994238 13114054 13248625 13395198 13551152 
2379.417 13714549 13884269 14060112 14241299 14427151 14615996 14805506 
2382.793 14993452 15176848 15352631 15517944 15669029 15802195 15914710 
2386.168 16004462 16071573 16117338 16144574 16156266 16154891 16141925 
2389.543 16117992 16083194 16037671 15982322 15918456 15847726 15771477 
2392.918 15690533 15605174 15515780 15423143 15329290 15236555 15148266 
2396.294 15067610 14996951 14938304 14893485 14863620 14850179 14854293 
2399.669 14876272 14915191 14969238 15035504 15111076 15194003 15283504 
2403.044 15380539 15486902 15604488 15735056 15879206 16036779 16207064 
2406.419 16389148 16581774 16784094 16994984 17213664 17439390 17672064 
2409.795 17911836 18158790 18412832 18672592 18935346 19197222 19453362 
2413.170 19698558 19928874 20140498 20330422 20496460 20636430 20748398 
2416.545 20831680 20886780 20915570 20921584 20908928 20881324 20841760 
2419.920 20791844 20732202 20663152 20585320 20499898 20408970 20314694 
2423.296 20219186 20124430 20032472 19945698 19867234 19800852 19750464 
2426.671 19719362 19709968 19722726 19757366 19813336 19890230 19988440 
2430.046 20108882 20252062 20417686 20604290 20808910 21028618 21260856 
2433.421 21504046 21758068 22023672 22301682 22592854 22897702 23216256 
2436.797 23548650 23895652 24258456 24638392 25037090 25455338 25893646 
2440.172 26351620 26829110 27325120 27839328 28371474 28921096 29488400 
2443.547 30073774 30677434 31299632 31940412 32598458 33272028 33958864 
2446.922 34655324 35359088 36067484 36778340 37489528 38198988 38903740 
2450.298 39600600 40286400 40957952 41612568 42248160 42861788 43450212 
2453.673 44009364 44534508 45020184 45461776 45854068 46192316 46471636 
2457.048 46686236 46829596 46896548 46881672 46781620 46595484 46323716 
2460.423 45968128 45531392 45016544 44426548 43765884 43040476 42257580 
2463.799 41426596 40558452 39664084 38754824 37840952 36931704 36035228 
2467.174 35159500 34311672 33499494 32730560 32011316 31347462 30743010 
2470.549 30199212 29715630 29289114 28916208 28591360 28309402 28064880 
2473.924 27852646 27667880 27506668 27365102 27239984 27128482 27027552 
2477.300 26934330 26846168 26760668 26675996 26590634 26503282 26412848 
2480.675 26318386 26219158 26114778 26005674 25893012 25778868 25665630 
2484.050 25555338 25449610 25349068 25253714 25163082 25076720 24993848 
2487.425 24914676 24838922 24766306 24696504 24629134 24563388 24499054 
2490.801 24435710 24373076 24310838 24248574 24185408 24120780 24054164 
2494.176 23985424 23914452 23841744 23766948 23689538 23608786 23523676 
2497.551 23433546 23338296 23238066 23133634 23025870 22915234 22801800 
2500.926 22686404 22569364 22451832 22335412 22221292 22110442 22003594 
2504.302 21900678 21801372 21705852 21614218 21527550 21446570 21371836 
2507.677 21302544 21237510 21174464 21111048 21045658 20976904 20904130 
2511.052 20826988 20745338 20659154 20568540 20474160 20376848 20278064 
2514.427 20178782 20079386 19979664 19878748 19776022 19671654 19567036 
2517.802 19464970 19369062 19282458 19206780 19142610 19089012 19044420 
2521.178 19007170 18976882 18953414 18937286 18929014 18928184 18933996 
2524.553 18945350 18961030 18980310 19002982 19029188 19058578 19090846 
2527.928 19124984 19159718 19193516 19225308 19253778 19278058 19297248 
2531.303 19311278 19320632 19326832 19332028 19338888 19349660 19365388 
2534.679 19385760 19409668 19434928 19460466 19485624 19511028 19537990 
2538.054 19567796 19601144 19638130 19678070 19720854 19766138 19814794 
2541.429 19866956 19923080 19981884 20041942 20101282 20158826 20214084 
2544.804 20268134 20322678 20378930 20436928 20495870 20553256 20606932 
2548.180 20655680 20698978 20737764 20774084 20808982 20843012 20876316 
2551.555 20908302 20938726 20968004 20996972 21026182 21056232 21086492 
2554.930 21115500 21141800 21163960 21181388 21194016 21202334 21206508 
2558.305 21206194 21200280 21187128 21165560 21134180 21092960 21042424 
2561.681 20983686 20918038 20847114 20772484 20695642 20618084 20541478 
2565.056 20466518 20394176 20325248 20259872 20198776 20142790 20092780 
2568.431 20049402 20013214 19984000 19961448 19945074 19934562 19930436 
2571.806 19933488 19944414 19963530 19990522 20024526 20063942 20107668 
2575.182 20154868 20204816 20257408 20311672 20366430 20420570 20473084 
2578.557 20523658 20573302 20623818 20677120 20734774 20797614 20864636 
2581.932 20934796 21006952 21080022 21154392 21230932 21310550 21393764 
2585.307 21480756 21570654 21662628 21755978 21849976 21944484 22039080 
2588.683 22133140 22225790 22316226 22403508 22487632 22568700 22647132 
2592.058 22723376 22797784 22870074 22940176 23008612 23075764 23142928 
2595.433 23211362 23281834 23354658 23429944 23507376 23587026 23669524 
2598.808 23755922 23847310 23944702 24048140 24157454 24271664 24390322 
2602.184 24512938 24640040 24771742 24908570 25050638 25197738 25349314 
2605.559 25505160 25665314 25829816 25998674 26171504 26347114 26523956 
2608.934 26699778 26872886 27041692 27205130 27362030 27511222 27651142 
2612.309 27780122 27896348 27998894 28086938 28160820 28220678 28266964 
2615.685 28299960 28319942 28327368 28323442 28309896 28289032 28262792 
2619.060 28232914 28200240 28164638 28125820 28083968 28039434 27993806 
2622.435 27948892 27906842 27869110 27836748 27810182 27789448 27774612 
2625.810 27765922 27763554 27767794 27778390 27795240 27817882 27846038 
2629.186 27879990 27920164 27966842 28020418 28080468 28146184 28216294 
2632.561 28289668 28365284 28442540 28521614 28602436 28684936 28769508 
2635.936 28855864 28943798 29033130 29123934 29215996 29309602 29404150 
2639.311 29499180 29594444 29689552 29784468 29879650 29975318 30071714 
2642.687 30168880 30266388 30363560 30460222 30556194 30651584 30746960 
2646.062 30842852 30940048 31039186 31140554 31245010 31352804 31464718 
2649.437 31581114 31702142 31827946 31958066 32092612 32231126 32373644 
2652.812 32520354 32671362 32827110 32987554 33152640 33322722 33497848 
2656.188 33678380 33864320 34056256 34254192 34458284 34668424 34884628 
2659.563 35106580 35333788 35565640 35800716 36037820 36275672 36513292 
2662.938 36749964 36986148 37222060 37458432 37695364 37932892 38170660 
2666.313 38407872 38644564 38880656 39116988 39354720 39595152 39839100 
2669.688 40087584 40340896 40599196 40862272 41129772 41401228 41675916 
2673.064 41952344 42229356 42505004 42777868 43046404 43309648 43566568 
2676.439 43816680 44059968 44296640 44527384 44753952 44977992 45202040 
2679.814 45428336 45659572 45898220 46146732 46407332 46682584 46974364 
2683.189 47284376 47613388 47961736 48329224 48715220 49119364 49541452 
2686.565 49981088 50437656 50909904 51395568 51892048 52396500 52906620 
2689.940 53421468 53941504 54467984 55003152 55548804 56106308 56676304 
2693.315 57258544 57852620 58457928 59074108 59700704 60337000 60982196 
2696.690 61635308 62295592 62961908 63633808 64310440 64991004 65674536 
2700.066 66359916 67045488 67730432 68413368 69093448 69769080 70438504 
2703.441 71099248 71747904 72381168 72995168 73586184 74150520 74684584 
2706.816 75184472 75646328 76066512 76441896 76770272 77050552 77282520 
2710.191 77466520 77603648 77694856 77741456 77744592 77705792 77625800 
2713.567 77505168 77343520 77139632 76891920 76598824 76259552 75874776 
2716.942 75446504 74977808 74472448 73934248 73366976 72773992 72159248 
2720.317 71526896 70881608 70229448 69576328 68928808 68293224 67675608 
2723.692 67081056 66514552 65979636 65479360 65015560 64589472 64201712 
2727.068 63852376 63541436 63268976 63035452 62840656 62684604 62566488 
2730.443 62485024 62438424 62424576 62441560 62487776 62562280 62664008 
2733.818 62791912 62945016 63121660 63319808 63536988 63770704 64017756 
2737.193 64275356 64540148 64808712 65077408 65343036 65602200 65852448 
2740.569 66091312 66317336 66529648 66728352 66914508 67090072 67257888 
2743.944 67420968 67582488 67744616 67908656 68075160 68243944 68414648 
2747.319 68586976 68760888 68936224 69112912 69290376 69467520 69643072 
2750.694 69816160 69985960 70153272 70319280 70486008 70656000 70832064 
2754.070 71016904 71213264 71423768 71650672 71895128 72157296 72435624 
2757.445 72727184 73027792 73332688 73636312 73934096 74221072 74492704 
2760.820 74744600 74972688 75172488 75340632 75473696 75569000 75624712 
2764.195 75639584 75612288 75542936 75431872 75281048 75093632 74874368 
2767.571 74628744 74362928 74083240 73795400 73504464 73215096 72930968 
2770.946 72655336 72390800 72139528 71903376 71683768 71481656 71297752 
2774.321 71131912 70984016 70852272 70734880 70628288 70528264 70429856 
2777.696 70326952 70213448 70083024 69929248 69746352 69529816 69276504 
2781.072 68985584 68658336 68298304 67910904 67502168 67079128 66647880 
2784.447 66214168 65782668 65357328 64940556 64534308 64139180 63755012 
2787.822 63380836 63015536 62657496 62305960 61960128 61620224 61286844 
2791.197 60960616 60642640 60333916 60035456 59747996 59472588 59209236 
2794.573 58957996 58718056 58488104 58266232 58050304 57838268 57628456 
2797.948 57419388 57210424 57001024 56790448 56578308 56363560 56145444 
2801.323 55922540 55693652 55457916 55214256 54962236 54701376 54432192 
2804.698 54155324 53872368 53585360 53297008 53009744 52726228 52448576 
2808.073 52178684 51917664 51666092 51424440 51192948 50972012 50762212 
2811.449 50564092 50378156 50204684 50043364 49893808 49755012 49625872 
2814.824 49506060 49395192 49294484 49205112 49129604 49070580 49030368 
2818.199 49011632 49016456 49046540 49103632 49189380 49304912 49451256 
2821.574 49629068 49838100 50077160 50343996 50635980 50948688 51278400 
2824.950 51620304 51969424 52320840 52669216 53008884 53334396 53640056 
2828.325 53920008 54169664 54384308 54560472 54696152 54790796 54845488 
2831.700 54862596 54845904 54799324 54727800 54635768 54528124 54409692 
2835.075 54285624 54160464 54038756 53924172 53818992 53724828 53642752 
2838.451 53573816 53520292 53485700 53474532 53492860 53547204 53643240 
2841.826 53787228 53985212 54243540 54570424 54975508 55469060 56062160 
2845.201 56762992 57574848 58492424 59499376 60567592 61653368 62703400 
2848.576 63657404 64449964 65024292 65335296 65355168 65078868 64522616 
2851.952 63722664 62726140 61589104 60369936 59119968 57886688 56708432 
2855.327 55612336 54617392 53733416 52961980 52298080 51731332 51249428 
2858.702 50837004 50479336 50163028 49874892 49603996 49341028 49078368 
2862.077 48810564 48534480 48249608 47957260 47660860 47364516 47072732 
2865.453 46790476 46522528 46273180 46046624 45847144 45677608 45540408 
2868.828 45436244 45364920 45324608 45312728 45326004 45360432 45411596 
2872.203 45474580 45544052 45615332 45684452 45749060 45808928 45866220 
2875.578 45924408 45987720 46060332 46145956 46246972 46365080 46500916 
2878.954 46655064 46827012 47015420 47218580 47433252 47656424 47884928 
2882.329 48116400 48349444 48583724 48819204 49056520 49295668 49536512 
2885.704 49778344 50020760 50263156 50505244 50746460 50986132 51222808 
2889.079 51455212 51681916 51901756 52114608 52321104 52522048 52719196 
2892.455 52913548 53106040 53297160 53487048 53675672 53863216 54049976 
2895.830 54236516 54424004 54613636 54806920 55005332 55209968 55421664 
2899.205 55640316 55865564 56096392 56331456 56569780 56810540 57053396 
2902.580 57298012 57544848 57794324 58047880 58307688 58577392 58861536 
2905.956 59165720 59496072 59858580 60259300 60703792 61198252 61749652 
2909.331 62364976 63052200 63818412 64667680 65599964 66608712 67680632 
2912.706 68793608 69918008 71019872 72059656 72997408 73798472 74433080 
2916.081 74882992 75141968 75216504 75123608 74886456 74532792 74087632 
2919.457 73571736 72999568 72378392 71709688 70991040 70219168 69392064 
2922.832 68510768 67580552 66611104 65615608 64608312 63604116 62616432 
2926.207 61655128 60727648 59837968 58987716 58177196 57406268 56675588 
2929.582 55986204 55340548 54741176 54191244 53693220 53249624 52862500 
2932.958 52533828 52265676 52060256 51919084 51843136 51831752 51882228 
2936.333 51989104 52144348 52338296 52559256 52795628 53037184 53275508 
2939.708 53505264 53723928 53932012 54131152 54323584 54510504 54691456 
2943.083 54862896 55018948 55151352 55250304 55305284 55307692 55251060 
2946.458 55133596 54958364 54734376 54475536 54198600 53921844 53662476 
2949.834 53433160 53242280 53092260 52980360 52899736 52841204 52795032 
2953.209 52751516 52702324 52640752 52561312 52460200 52334892 52184292 
2956.584 52008636 51809612 51590076 51353540 51103824 50844976 50579764 
2959.959 50310848 50039940 49768200 49496816 49227492 48961784 48702320 
2963.335 48451784 48213100 47988456 47780056 47588872 47415512 47259772 
2966.710 47121440 46999620 46893228 46800624 46718812 46644508 46572948 
2970.085 46499036 46418024 46326076 46220732 46101852 45971184 45832456 
2973.460 45690344 45550564 45418920 45300556 45199356 45116820 45051204 
2976.836 44996884 44943708 44878048 44783340 44643296 44443984 44175352 
2980.211 43834348 43424576 42956628 42444972 41907824 41363980 40829768 
2983.586 40319664 39844076 39409064 39017692 38670388 38366248 38104572 
2986.961 37885236 37708804 37575580 37483752 37426756 37390964 37356840 
2990.337 37298528 37186724 36996104 36707812 36314504 35822088 35249400 
2993.712 34624716 33978712 33341754 32737956 32181524 31678084 31224858 
2997.087 30814288 30436374 30081694 29743270 29416950 29100832 28795176 
3000.462 28500632 28217708 27946100 27685078 27432438 27186506 26945576 
3003.838 26708516 26475178 26246082 26022386 25805342 25596212 25395542 
3007.213 25203848 25021120 24846782 24680302 24520720 24367084 24217990 
3010.588 24072550 23929788 23789206 23651330 23516890 23387282 23264214 
3013.963 23148556 23041034 22941538 22849504 22763914 22684450 22610480 
3017.339 22541722 22478140 22419000 22363460 22310018 22257072 22202564 
3020.714 22145168 22083458 22016458 21943612 21864368 21778378 21686172 
3024.089 21588832 21488206 21387254 21289356 21197740 21115188 21043538 
3027.464 20982748 20931876 20888208 20848610 20809154 20765706 20714548 
3030.840 20652726 20578374 20490624 20389938 20277856 20156152 20026954 
3034.215 19892660 19755320 19617158 19480808 19348656 19223298 19106702 
3037.590 18999762 18902468 18813880 18732784 18657962 18588860 18525542 
3040.965 18468632 18418570 18375292 18337652 18304230 18272920 18242198 
3044.341 18211100 18179486 18147424 18114984 18082030 18047798 18011810 
3047.716 17973476 17932900 17891258 17849654 17809090 17770084 17732116 
3051.091 17694116 17654290 17610916 17562714 17508758 17449116 17383552 
3054.466 17312686 17237420 17159064 17079412 17000568 16924460 16852462 
3057.842 16785404 16723141 16665019 16610553 16559055 16510386 16464818 
3061.217 16422387 16382920 16345693 16309878 16274756 16240014 16206065 
3064.592 16173806 16144367 16118646 16096707 16078414 16062599 16048295 
3067.967 16034439 16020276 16004909 15988201 15969329 15947914 15923819 
3071.343 15896941 15867693 15837349 15807142 15778452 15752820 15731484 
3074.718 15715268 15704688 15699843 15700290 15704619 15711179 15717672 
3078.093 15722277 15723307 15720079 15712829 15702419 15689949 15676415 
3081.468 15662536 15648453 15634129 15619394 15603973 15587899 15571035 
3084.844 15553521 15535388 15516845 15498267 15480275 15463863 15449751 
3088.219 15438524 15430112 15424104 15419332 15415041 15410578 15405668 
3091.594 15400759 15396365 15392863 15390770 15390323 15391765 15395232 
3094.969 15401412 15410955 15424379 15442335 15464652 15490679 15519523 
3098.344 15549571 15579519 15607990 15633889 15656319 15675452 15691530 
3101.720 15705751 15720079 15736157 15755190 15777901 15804119 15832607 
3105.095 15862161 15891716 15920484 15948841 15977236 16006352 16036537 
3108.470 16067205 16097188 16125180 16149664 16170092 16186565 16200081 
3111.845 16211879 16224019 16237572 16253326 16271729 16292300 16313903 
3115.221 16335165 16354810 16371187 16383678 16392142 16396787 16398301 
3118.596 16397785 16395548 16391970 16386842 16379479 16369537 16356943 
3121.971 16341908 16325051 16307471 16289547 16272279 16255837 16240632 
3125.346 16227013 16215662 16206754 16201010 16198292 16198086 16199222 
3128.722 16200528 16200632 16198499 16194062 16188009 16181819 16177485 
3132.097 16176797 16181268 16191758 16207853 16228387 16252052 16277164 
3135.472 16302586 16328078 16353779 16379893 16407007 16434638 16461927 
3138.847 16488014 16511556 16532000 16549796 16566182 16582910 16601499 
3142.223 16623359 16648803 16677586 16708782 16741322 16774245 16806860 
3145.598 16838788 16869788 16899966 16929350 16958600 16988680 17020758 
3148.973 17056010 17095332 17138728 17185742 17234972 17284964 17334134 
3152.348 17381516 17426594 17469398 17510378 17550018 17589142 17628686 
3155.724 17669372 17711718 17756242 17802910 17851242 17900994 17951546 
3159.099 18003418 18057366 18114744 18176446 18243444 18315324 18390502 
3162.474 18467456 18544112 18619224 18692828 18765962 18839936 18916382 
3165.849 18996094 19078522 19162348 19245604 19326382 19403050 19474848 
3169.225 19541180 19602288 19658274 19709238 19755458 19797280 19834666 
3172.600 19868690 19899944 19929186 19957008 19983722 20008980 20032472 
3175.975 20053498 20071368 20085630 20096596 20104718 20111416 20118218 
3179.350 20126790 20138244 20153306 20172084 20194090 20218874 20245986 
3182.726 20275044 20306256 20339728 20375562 20413866 20454570 20497154 
3186.101 20541410 20586920 20633198 20680004 20727336 20774604 20822258 
3189.476 20870442 20919742 20970646 21024130 21080336 21139190 21200210 
3192.851 21262458 21325062 21387534 21449424 21510836 21571944 21632954 
3196.227 21693906 21754724 21815482 21875936 21936538 21997252 22057940 
3199.602 22118392 22178330 22237300 22295298 22352994 22410940 22470150 
3202.977 22531356 22594736 22660326 22727602 22796352 22866268 22937662 
3206.352 23010288 23084150 23158726 23232684 23305116 23375148 23442604 
3209.728 23508426 23573872 23640238 23708820 23779440 23851860 23925552 
3213.103 23999816 24074442 24149782 24226012 24302746 24379492 24455130 
3216.478 24528608 24599540 24668376 24736314 24805138 24876500 24951066 
3219.853 25028700 25108384 25188644 25268006 25345732 25421750 25496410 
3223.229 25570732 25645418 25721242 25798910 25878488 25959840 26042930 
3226.604 26126672 26210042 26291984 26371724 26448590 26523006 26595460 
3229.979 26666906 26738572 26811170 26885296 26961336 27038834 27117900 
3233.354 27197828 27278018 27357832 27436532 27513694 27589244 27663430 
3236.729 27737312 27811490 27886632 27963026 28040280 28118008 28195894 
3240.105 28273862 28352162 28431078 28510610 28590474 28670070 28748372 
3243.480 28824848 28899882 28974328 29049816 29128220 29210644 29297336 
3246.855 29387842 29480812 29574866 29669152 29762856 29855834 29948054 
3250.230 30039616 30130524 30221166 30312076 30403644 30497152 30593416 
3253.606 30692832 30795258 30899558 31004346 31108484 31210722 31310278 
3256.981 31407508 31502728 31596084 31688244 31779140 31868950 31957566 
3260.356 32045272 32131892 32217920 32303326 32388530 32473754 32559316 
3263.731 32645322 32732132 32819998 32908808 32998708 33089630 33181176 
3267.107 33272960 33364724 33455580 33544880 33631940 33716796 33799524 
3270.482 33881048 33962340 34044396 34128044 34212820 34298080 34382784 
3273.857 34466244 34548144 34628700 34708332 34787516 34866352 34944308 
3277.232 35020660 35094652 35166684 35237468 35308588 35381696 35458056 
3280.608 35538060 35621312 35706992 35793988 35881860 35970004 36058128 
3283.983 36145696 36232164 36316776 36398988 36478984 36557660 36636604 
3287.358 36717220 36800664 36887044 36975864 37065816 37156364 37247220 
3290.733 37339292 37434016 37532336 37634836 37741044 37849304 37957808 
3294.109 38065324 38171204 38275664 38379892 38484876 38591544 38700380 
3297.484 38810904 38922584 39034696 39146648 39258052 39369048 39480000 
3300.859 39591416 39704312 39820000 39939532 40064144 40194796 40331296 
3304.234 40473556 40620624 40771388 40924968 41080420 41236876 41394084 
3307.610 41551712 41710016 41869768 42032056 42197768 42368252 42544360 
3310.985 42726132 42913320 43105532 43301812 43501996 43706008 43914040 
3314.360 44126460 44343060 44563620 44787820 45015368 45246496 45481608 
3317.735 45721636 45966616 46216416 46470532 46728188 46988468 47251088 
3321.111 47515676 47782352 48050924 48320632 48590280 48858916 49125672 
3324.486 49390588 49654364 49918008 50182404 50447260 50711492 50973092 
3327.861 51229708 51479608 51721516 51955304 52181224 52399864 52611912 
3331.236 52817444 53016820 53209732 53395764 53574116 53743312 53901592 
3334.612 54046676 54177016 54292156 54392608 54479928 54556112 54622352 
3337.987 54678456 54723664 54755872 54773204 54774704 54760460 54731184 
3341.362 54688188 54631744 54561412 54475948 54373488 54252436 54112648 
3344.737 53954596 53779728 53589968 53386960 53171572 52944872 52707108 
3348.113 52458292 52199012 51929276 51648924 51358648 51058428 50748808 
3351.488 50430920 50105976 49774740 49438296 49096952 48750360 48398408 
3354.863 48041636 47680424 47317072 46954060 46594084 46239268 45891484 
3358.238 45550968 45217740 44890944 44569528 44252612 43939188 43628844 
3361.614 43321508 43017720 42718600 42425752 42140840 41864876 41597948 
3364.989 41339600 41088140 40841636 40599052 40359332 40123232 39891328 
3368.364 39664560 39443496 39227876 39016748 38808912 38603568 38400416 
3371.739 38199388 38001348 37806752 37616188 37430076 37248668 37072020 
3375.115 36900284 36733264 36570240 36410048 36251536 36093372 35935016 
3378.490 35776356 35618328 35461756 35307404 35155328 35004532 34854040 
3381.865 34702808 34550264 34396912 34243832 34092132 33943244 33797448 
3385.240 33654636 33515132 33378464 33244666 33113946 32985802 32859306 
3388.615 32733456 32606460 32476682 32344088 32208786 32072314 31936522 
3391.991 31802848 31672240 31545054 31420938 31299454 31180356 31063672 
3395.366 30948800 30835630 30723450 30611298 30499142 30386942 30275126 
3398.741 30165080 30057086 29951072 29846360 29741672 29635344 29526878 
3402.116 29416844 29305988 29195654 29087262 28980102 28873712 28766816 
3405.492 28658460 28548646 28438152 28327792 28218556 28110586 28002852 
3408.867 27894122 27783478 27670458 27556126 27442568 27331684 27224886 
3412.242 27122910 27024272 26927034 26829286 26729376 26626884 26522160 
3415.617 26416336 26310606 26205958 26102990 26001630 25901700 25802846 
3418.993 25704650 25607108 25510288 25414476 25320372 25228570 25139594 
3422.368 25053412 24969772 24887728 24806190 24723862 24639936 24554238 
3425.743 24467364 24379910 24292618 24206182 24120534 24035638 23951110 
3429.118 23866772 23782696 23699128 23616482 23535182 23455298 23376966 
3432.494 23300328 23225414 23152296 23081286 23012034 22943982 22876046 
3435.869 22807492 22737586 22665946 22593026 22519212 22444994 22370786 
3439.244 22296416 22221220 22144716 22066654 21986760 21905904 21824368 
3442.619 21742916 21662000 21581416 21500078 21417468 21332404 21244260 
3445.995 21153106 21059848 20965082 20870686 20778498 20689560 20604846 
3449.370 20524594 20448216 20374800 20303270 20232724 20162192 20091288 
3452.745 20019562 19946634 19871502 19793674 19712324 19627176 19538164 
3456.120 19446466 19353540 19261294 19171524 19085686 19004228 18926902 
3459.496 18852912 18780492 18707980 18633612 18556526 18476376 18393994 
3462.871 18310626 18228516 18149012 18073186 18001208 17932244 17864948 
3466.246 17797766 17729388 17659192 17586832 17512552 17436838 17360100 
3469.621 17282066 17203324 17123732 17043882 16964078 16884636 16805688 
3472.997 16726790 16647700 16568281 16488565 16409278 16331380 16255975 
3476.372 16183607 16114140 16046852 15980981 15915157 15848791 15781337 
3479.747 15712244 15641376 15568700 15494182 15418474 15343020 15269500 
3483.122 15200180 15136566 15078622 15025556 14974589 14922050 14865608 
3486.498 14803037 14734065 14660032 14583477 14506934 14432700 14361870 
3489.873 14294337 14229452 14165604 14101662 14036600 13970145 13901853 
3493.248 13833058 13764378 13696870 13631287 13568245 13506578 13445707 
3496.623 13384468 13322213 13259419 13197285 13136969 13080281 13027595 
3499.999 12977954 12929376 12879610 12825515 12766309 12702163 12634855 
3503.374 12567454 12502827 12442778 12388158 12338828 12293322 12249593 
3506.749 12205970 12160136 12110560 12056016 11996403 11932303 11865761 
3510.124 11799501 11736485 11678993 11628076 11583427 11543410 11505438 
3513.500 11466993 11426477 11383107 11337088 11288966 11239490 11189644 
3516.875 11140348 11092419 11047348 11006429 10971155 10942067 10918554 
3520.250 10898983 10880705 10860932 10837049 10807665 10772441 10732295 
3523.625 10688349 10641758 10593544 10543569 10491869 10438682 10384177 
3527.000 10329238 10275155 10223486 10175149 10131191 10091410 10055464 
3530.376 10022978 9993175 9965204 9938693 9912793 9886522 9859236 9829544 
3534.233 9796467 9759055 9716799 9669398 9617768 9563129 9507279 9452350 
3538.091 9401117 9355308 9316817 9286757 9265466 9252332 9246341 9245191 
3541.948 9246578 9247662 9245529 9237203 9220483 9193272 9155269 9107286 
3545.805 9051290 8991142 8930866 8874149 8824068 8781295 8745051 8712732 
3549.663 8681193 8646850 8608083 8564081 8516468 8467915 8421798 8380822 
3553.520 8346536 8319042 8297259 8279427 8263554 8248020 8231845 8214455 
3557.378 8195647 8175321 8153712 8130857 8106955 8082413 8058041 8034549 
3561.235 8012847 7993913 7978186 7965699 7955406 7945417 7931953 7910964 
3565.093 7877694 7828537 7762688 7682145 7592714 7503302 7421931 7355267 
3568.950 7306034 7272844 7251753 7237131 7224025 7208292 7188046 7162579 
3572.807 7132601 7099828 7065645 7031396 6997554 6964456 6931662 6899040 
3576.665 6865916 6831514 6795803 6758312 6719309 6679972 6641347 6605147 
3580.522 6572953 6546345 6525793 6512036 6504603 6502551 6504603 6508505 
3584.380 6510825 6508000 6495757 6470163 6429034 6373047 6305434 6233060 
3588.237 6164259 6105584 6062003 6034183 6019333 6013185 6009960 6004786 
3592.094 5994338 5977306 5953523 5924836 5893533 5861828 5831737 5804335 
3595.952 5779554 5757628 5737785 5719085 5700217 5679772 5656676 5630964 
3599.809 5603776 5577697 5556285 5542861 5539538 5546586 5562225 5583101 
3603.667 5605286 5625694 5641672 5651641 5654226 5648587 5633448 5607468 
3607.524 5570548 5523463 5469606 5414011 5360771 5313273 5272119 5235228 
3611.382 5199145 5160449 5117701 5071469 5025277 4983681 4950401 4927578 
3615.239 4913939 4906198 4899697 4888840 4869003 4837205 4792378 4736400 
3619.096 4674501 4612879 4559570 4520362 4499337 4496692 4510552 4536868 
3622.954 4571122 4610368 4652464 4696138 4741559 4786783 4828159 4859286 
3626.811 4871013 4853824 4802160 4717441 4612176 4505832 4419631 4365408 
3630.669 4344892 4349778 4367583 4385824 4394995 4390309 4372403 4346297 
3634.526 4318387 4295363 4280807 4275319 4276624 4281309 4285726 4287432 
3638.384 4285592 4279870 4271203 4260496 4249420 4239249 4232724 4231955 
3642.241 4239884 4258722 4288972 4329798 4378159 4429739 4479652 4523141 
3646.098 4556389 4575977 4579996 4566769 4535429 4485309 4418291 4338734 
3649.956 4255075 4178190 4119749 4088074 4086535 4112725 4159121 4214523 
3653.813 4266820 4304934 4320026 4309351 4276189 4231252 4188394 4160794 
3657.671 4156880 4177889 4218371 4268627 4317617 4354664 4373173 4371098 
3661.528 4351853 4323607 4295731 4277962 4277427 4297036 4336458 4393221 
3665.385 4463449 4543230 4629088 4718211 4808292 4898792 4992999 5100837 
3669.243 5239420 5431759 5701828 6064892 6524178 7070797 7689194 8359135 
3673.100 9055959 9749736 10390014 10906934 11221604 11264788 11011391 
3676.476 10492480 9779557 8953426 8085249 7233357 6440232 5740606 5160617 
3680.333 4710407 4385858 4167552 4029745 3946480 3897298 3871722 3864769 
3684.190 3875300 3900140 3933975 3968214 3993829 4002925 3991689 3960122 
3688.048 3912610 3855776 3795373 3735179 3677333 3622367 3571652 3526554 
3691.905 3489176 3460686 3441014 3428724 3421811 3418337 3417169 3418004 
3695.763 3420942 3426486 3434769 3445656 3458782 3473745 3489710 3505142 
3699.620 3517668 3524650 3522745 3510420 3488141 3459483 3429893 3405113 
3703.478 3389785 3385678 3392223 3406582 3425818 3446925 3468301 3489109 
3707.335 3509184 3528324 3545260 3558456 3565905 3564970 3554113 3532199 
3711.192 3499764 3459283 3414831 3371920 3336292 3313086 3304539 3310850 
3715.050 3329313 3355257 3382672 3406849 3423614 3431562 3432063 3427555 
3718.907 3420976 3414864 3409755 3405380 3400838 3395696 3389852 3384609 
3722.765 3381036 3379867 3380836 3382639 3383807 3383774 3382872 3383006 
3726.622 3387113 3398768 3419406 3449530 3486571 3526554 3564001 3593334 
3730.479 3610339 3613580 3604426 3588322 3571251 3559091 3552309 3548033 
3734.337 3539348 3519906 3486337 3441915 3394260 3355257 3333921 3334388 
3738.194 3355357 3392490 3440179 3494487 3553010 3614416 3676464 3734511 
3742.052 3779230 3798382 3779931 3718737 3622668 3515096 3428623 3388382 
3745.909 3401840 3458949 3540717 3625575 3694075 3732706 3735480 3704601 
3749.767 3648830 3580872 3512724 3451935 3402742 3368080 3349047 3346943 
3753.624 3361401 3389852 3427788 3470138 3511889 3549235 3580338 3603891 
3757.481 3619661 3626878 3624105 3610640 3587387 3558155 3529760 3510085 
3761.339 3505175 3517033 3543122 3576128 3606664 3626911 3631422 3619728 
3765.196 3596608 3569848 3547832 3536074 3536107 3544826 3557420 3567108 
3769.054 3568478 3558489 3537844 3509752 3480659 3457012 3443719 3444187 
3772.911 3458481 3484333 3517735 3553879 3588456 3618492 3642314 3658988 
3776.769 3668712 3671519 3667108 3655947 3639575 3619928 3600884 3585282 
3780.626 3574792 3568611 3564035 3557420 3545828 3528491 3506512 3483431 
3784.483 3463090 3448562 3440813 3438876 3440179 3442116 3443753 3444621 
3788.341 3445957 3448361 3452870 3459617 3468568 3480124 3495389 3515831 
3792.198 3542755 3575928 3613480 3651269 3684283 3708277 3720642 3722146 
3796.056 3717133 3712321 3714159 3726657 3749584 3778227 3803964 3815930 
3799.913 3804365 3762953 3693540 3606898 3522044 3459149 3431128 3441248 
3803.771 3482830 3542387 3602889 3648563 3667208 3653775 3613112 3558623 
3807.628 3508816 3478721 3475949 3499898 3544325 3600417 3659589 3716899 
3811.485 3769069 3815997 3858217 3896261 3928258 3951462 3961961 3956946 
3815.343 3937018 3907963 3878375 3857949 3852601 3862496 3882521 3903115 
3819.200 3913011 3902279 3865070 3802092 3722981 3643584 3578199 3536441 
3823.058 3518503 3518871 3528491 3539314 3545761 3546930 3545695 3547632 
3826.915 3558723 3582776 3620062 3667509 3720308 3772545 3818838 3855877 
3830.772 3881384 3896094 3902279 3903851 3905522 3911440 3923510 3940796 
3834.630 3959487 3973030 3973364 3953903 3911674 3849358 3775085 3701092 
3838.487 3639909 3598846 3580004 3578968 3588957 3602187 3612945 3618291 
3842.345 3617924 3613480 3607867 3604893 3607566 3618558 3640076 3672387 
3846.202 3714727 3765125 3820710 3878576 3936449 3993427 4049845 4105332 
3850.060 4158988 4206627 4240186 4248918 4220713 4147580 4031751 3889140 
3853.917 3745874 3627346 3549102 3513793 3514495 3540884 3584380 3637269 
3857.774 3694308 3751689 3805434 3851297 3886499 3909200 3919866 3921537 
3861.632 3918996 3916355 3916589 3919197 3921805 3921838 3918027 3912276 
3865.489 3909066 3913312 3927623 3950760 3976474 3995902 3999882 3981824 
3869.347 3941665 3887201 3831708 3786950 3760212 3750687 3751756 3754196 
3873.204 3750453 3736917 3716130 3695144 3682813 3687391 3711652 3753929 
3877.062 3807640 3863833 3913011 3946313 3959153 3950860 3927121 3896930 
3880.919 3871923 3861058 3868547 3891848 3923243 3951596 3964436 3952265 
3884.776 3911708 3848422 3776589 3714593 3679505 3679806 3713791 3771175 
3888.634 3837090 3895526 3932471 3939692 3917291 3874129 3824521 3784912 
3892.491 3767832 3778360 3814259 3868179 3930665 3992391 4046300 4088642 
3896.349 4118378 4136709 4145975 4148985 4148082 4144804 4139351 4132226 
3900.206 4122091 4108009 4089077 4064326 4033491 3997909 3960022 3923944 
3904.063 3894289 3875199 3868547 3874163 3888672 3907763 3926987 3943170 
3907.921 3954973 3963165 3970221 3978313 3989816 4005333 4023792 4043724 
3911.778 4063022 4080581 4095699 4108644 4119147 4127108 4131022 4129651 
3915.636 4122057 4108811 4091318 4072922 4056701 4044995 4038641 4036902 
3919.493 4038574 4042487 4048574 4056935 4068073 4081350 4094796 4105266 
3923.351 4109413 4104864 4091452 4072086 4051015 4033391 4022755 4020549 
3927.208 4025163 4034360 4044728 4053891 4060580 4064661 4066400 4065998 
3931.065 4062955 4056935 4047637 4036334 4024795 4016033 4012054 4014060 
3934.923 4021050 4031216 4041751 4050614 4056500 4059577 4060982 4062554 
3938.780 4065263 4069745 4075263 4081050 4085665 4088140 4087873 4084695 
3942.638 4079277 4072320 4065229 4059477 4055998 4055497 4058005 4062386 
3946.495 4066868 4069945 4070179 4066902 4060982 4053457 4046233 4040915 
3950.353 4038273 4038474 4041216 4045765 4051550 4058005 4064728 4071116 
3954.210 4076701 4080916 4083993 4086468 4089445 4094094 4101252 4111019 
3958.067 4122057 4133063 4141960 4146945 4147346 4143265 4135638 4125937 
3961.925 4116070 4107072 4100415 4096736 4096703 4100148 4106904 4115568 
3965.782 4125001 4133732 4140790 4145908 4149353 4152197 4155609 4160493 
3969.640 4166816 4174343 4182171 4189163 4194617 4197594 4198230 4196089 
3973.497 4191706 4184881 4176517 4167619 4159791 4154639 4153568 4157148 
3977.354 4165143 4176517 4189331 4201977 4213218 4222118 4228375 4232256 
3981.212 4234196 4234665 4234230 4233394 4232390 4231453 4230683 4229579 
3985.069 4228107 4225597 4221917 4217768 4213955 4211412 4211144 4213352 
3988.927 4217735 4223021 4227672 4230449 4230616 4228006 4223356 4217702 
3992.784 4212449 4208133 4205088 4203549 4202780 4202010 4201073 4199401 
3996.642 4196256 4191973 4186453 4179863 4172470 4164574 4156345 4148283 
4000.499 4140656 
##END=
