##TITLE=1706e_3_b
##JCAMP-DX=5.01  $$ Nicolet v. 1
##DATATYPE=INFRARED SPECTRUM
##ORIGIN=UniL
##OWNER=Nicolet
##LONGDATE=2011/09/29
##TIME=12:52:07
##SPECTROMETER/DATA SYSTEM=Nicolet iS5
##DATA PROCESSING=
Ratio against background
%Transmittance->Absorbance
Truncated
ElementMultiply or ElementDivide
##COMMENTS=
Number of sample scans: 32
Collection length: 51.20 sec
Sample gain: 2.0
Background collected on: Jeu Sep 29 12:48:18 2011 (GMT+02:00);
Number of background scans: 32
Background gain: 2.0
Sample spacing:  1.000
Number of scan points: 12415
Resolution points: 8192
Number of FFT points: 65536
Apodization: N-B fort;
Phase correction: Mertz;
Laser frequency: 15798.0 cm-1
Number of rejected sample scans: 0
Number of rejected background scans: 0
Bench serial number: ASB1000141;
##RESOLUTION=4.000
##XUNITS=1/CM
##YUNITS=ABSORBANCE
##FIRSTX=649.893372
##LASTX=4000.122314
##FIRSTY=0.024432
##MAXX=4000.122314
##MINX=649.893372
##MAXY=0.274300
##MINY=-0.002958
##XFACTOR=1.000000
##YFACTOR=1.000000E-009
##NPOINTS=6950
##DELTAX=0.482117
##ZPD=6100
##XYDATA=(X++(Y..Y))
649.893 24432416 23886270 23485026 23195354 22994392 22863822 22780882 
653.268 22715624 22635856 22516734 22353726 22165426 21989444 21861582 
656.643 21803812 21813288 21867748 21937130 21999030 22048596 22096672 
660.018 22160928 22254422 22380066 22531602 22701520 22887538 23094494 
663.393 23329940 23595248 23878744 24156088 24391618 24551958 24615072 
666.767 24587160 24511534 24463508 24518442 24705026 24999358 25346470 
670.142 25696038 26012850 26278960 26489758 26646682 26756792 26831296 
673.517 26887022 26943672 27020534 27132678 27285072 27471582 27676780 
676.892 27882500 28075342 28249744 28409642 28563296 28718458 28876722 
680.267 29036212 29193138 29347178 29504218 29674580 29867264 30086950 
683.642 30330408 30590110 30858718 31136070 31431090 31760604 32142236 
687.016 32589566 33109010 33702332 34370336 35120840 35969356 36939500 
690.391 38062756 39373112 40911680 42733880 44907112 47520740 50682932 
693.766 54505172 59109184 64618192 71146664 78803424 87654848 97678160 
697.141 108664792 120138008 131326768 141094832 148170448 151413360 
700.034 150060192 144041696 133990168 121125936 106869576 92606744 79475880 
703.408 68155352 58947448 51819504 46523636 42707124 40004016 38109780 
706.783 36765144 35767648 34967148 34239816 33502712 32718126 31889882 
710.158 31057658 30276654 29600616 29062216 28669044 28410276 28267530 
713.533 28224002 28268310 28392980 28589306 28842622 29136548 29455918 
716.908 29793338 30152366 30545176 30986198 31484668 32042168 32654002 
720.282 33315674 34028984 34805392 35662136 36616920 37677400 38836232 
723.657 40069996 41345648 42627908 43885920 45101564 46270084 47399884 
727.032 48509212 49626320 50789064 52040312 53431360 55015448 56838444 
730.407 58938224 61338892 64052276 67086048 70450664 74167568 78273680 
733.782 82818872 87857616 93442824 99611784 106381320 113742440 121664432 
737.156 130093720 138952224 148148672 157571904 167100768 176634512 
740.049 186111712 195547392 205035280 214730112 224765120 235145328 
742.942 245630912 255668320 264453056 270973152 274299968 273826464 
745.835 269374144 261226688 249961424 236279232 220803792 204041952 
748.727 186419168 168315504 150146880 132391464 115516056 99977640 86161456 
752.102 74314280 64595772 57079544 51780568 48699796 47812532 49041864 
755.477 52189744 56883280 62568480 68466240 73722360 77544432 79291904 
758.852 78653568 75657016 70643056 64137720 56755176 49108640 41690176 
762.227 34890408 28979004 24089606 20249840 17380896 15330319 13892684 
765.601 12860156 12072130 11420592 10863514 10402130 10050445 9810769 
768.976 9663910 9573833 9507076 9446389 9395362 9371120 9388793 9448862 
772.833 9533764 9615092 9668314 9685526 9678580 9671973 9687288 9733538 
776.690 9802601 9876183 9937744 9983139 10023148 10077607 10162565 10280143 
780.547 10416960 10550189 10660605 10740582 10798460 10851114 10914307 
783.922 10992359 11076851 11151194 11202734 11229697 11244624 11265774 
787.297 11310153 11382189 11473729 11568114 11651152 11718920 11779618 
790.671 11847748 11935471 12045694 12170019 12295776 12413728 12526290 
794.046 12647681 12799511 13000759 13261948 13584791 13965834 14403312 
797.421 14899040 15453493 16055997 16672730 17248348 17707126 17974408 
800.796 18001276 17776226 17333650 16739842 16080683 15434095 14854190 
804.171 14372281 13997588 13728400 13560246 13488463 13506066 13599662 
807.546 13749260 13930250 14117509 14293104 14445339 14567612 14653898 
810.920 14695676 14682481 14607737 14474251 14297522 14102894 13919369 
814.295 13768755 13658778 13582706 13525378 13472638 13417956 13365299 
817.670 13325390 13307932 13315413 13341653 13374729 13404834 13429131 
821.045 13453158 13486549 13537308 13605851 13685380 13764754 13835898 
824.420 13898637 13960736 14033725 14125382 14236060 14357041 14476547 
827.794 14585464 14683750 14780274 14889336 15022400 15183710 15368593 
831.169 15568082 15774397 15986791 16211534 16458865 16735297 17038404 
834.544 17354722 17663056 17941844 18173750 18350094 18470776 18541484 
837.919 18570774 18568282 18546670 18521392 18510086 18530556 18593942 
841.294 18701650 18843846 19004748 19169066 19329638 19491516 19669332 
844.669 19882496 20145046 20462628 20832098 21246764 21702998 22204832 
848.043 22762620 23388576 24088802 24858220 25679338 26527900 27380206 
851.418 28217780 29032208 29822118 30589506 31335068 32057080 32751464 
854.793 33415750 34049556 34654752 35231972 35776964 36277688 36717256 
858.168 37075812 37337340 37493900 37545704 37498992 37362148 37142040 
861.543 36844124 36474044 36042144 35564020 35060204 34553492 34062136 
864.917 33598180 33166550 32768540 32405488 32081802 31803702 31576768 
868.292 31401276 31269542 31167432 31077766 30986838 30886430 30775626 
871.667 30656596 30531560 30398918 30253136 30087092 29895232 29675928 
875.042 29431098 29163868 28875200 28563262 28224674 27858262 27469534 
878.417 27071172 26682406 26324336 26013238 25758720 25563000 25423364 
881.792 25335194 25293292 25291150 25316122 25346608 25354126 25303688 
885.166 25164628 24917660 24559006 24101516 23569988 22995860 22408358 
888.541 21832834 21291024 20800430 20376848 20033338 19775814 19600900 
891.916 19493804 19431878 19387632 19335214 19256826 19141882 18987266 
895.291 18794436 18566934 18310416 18032636 17746024 17465982 17208254 
898.666 16986198 16806412 16667223 16561534 16480753 16418671 16374422 
902.040 16350854 16351955 16378826 16428685 16494725 16570793 16654827 
905.415 16750447 16866550 17013180 17199324 17429800 17706886 18033570 
908.790 18416566 18868276 19404922 20040416 20779956 21613036 22510418 
912.165 23424488 24289324 25035370 25593296 25906130 25943624 25707322 
915.540 25236682 24600556 23895652 23227440 22687732 22351110 22258048 
918.914 22415860 22804278 23384974 24111182 24928924 25782876 26615962 
922.289 27365736 27974652 28394464 28593624 28565526 28328252 27920694 
925.664 27388956 26780402 26134166 25475678 24821276 24180644 23560020 
929.039 22964664 22397438 21858410 21344862 20853442 20383410 19939246 
932.414 19530434 19168860 18864920 18622926 18440214 18308448 18218288 
935.789 18162418 18137542 18143346 18179106 18240990 18321926 18412418 
939.163 18504624 18595810 18688712 18789660 18904164 19033998 19175612 
942.538 19322156 19466390 19604712 19738572 19873026 20013214 20161844 
945.913 20317194 20475064 20631566 20785658 20940708 21102736 21277524 
949.288 21467528 21671300 21884684 22104654 22331156 22568562 22823520 
952.663 23102182 23406968 23736080 24084668 24448820 24828364 25228078 
956.037 25655928 26120688 26629172 27184494 27788140 28442326 29151926 
959.412 29925654 30774842 31708702 32734382 33854720 35071376 36387420 
962.787 37811924 39359108 41049208 42903884 44941724 47176948 49617032 
966.162 52262052 55104288 58126056 61298368 64573900 67890248 71169384 
969.537 74317472 77239800 79844152 82045488 83778776 84995440 85664720 
972.912 85774112 85326160 84339624 82847384 80899632 78560576 75899712 
976.286 72992896 69912168 66719620 63473560 60225008 57018556 53898212 
979.661 50901000 48056884 45389788 42916356 40650064 38605596 36798248 
983.036 35244080 33953884 32926034 32140132 31552396 31101686 30709616 
986.411 30293992 29787376 29141260 28340562 27404168 26382496 25345344 
989.786 24363964 23503668 22806338 22286650 21934690 21724036 21622054 
993.160 21597818 21630448 21707978 21824264 21975502 22156814 22361646 
996.535 22584754 22824218 23083068 23368190 23688068 24048526 24450714 
999.910 24890430 25359186 25847962 26346798 26846978 27341140 27822934 
1003.285 28288148 28737150 29176590 29618600 30080238 30579160 31127742 
1006.660 31731620 32388210 33090450 33831472 34609212 35428360 36300816 
1010.035 37241772 38266112 39388132 40621356 41979752 43482988 45155496 
1013.409 47024764 49120256 51466664 54080112 56964608 60109084 63483676 
1016.784 67033380 70682520 74331736 77861944 81159456 84121032 86673688 
1020.159 88788440 90477656 91790736 92791944 93550208 94119296 94528336 
1023.534 94785448 94881528 94800984 94526160 94040336 93325416 92354128 
1026.909 91090944 89493040 87517392 85138072 82357104 79214992 75786792 
1030.284 72178496 68514456 64910584 61472472 58281008 55382816 52798024 
1033.659 50521284 48530440 46794572 45283048 43971268 42841528 41882792 
1037.035 41088212 40451880 39967792 39630764 39437688 39389764 39493716 
1040.410 39761788 40209732 40855032 41713120 42790776 44077240 45532164 
1043.785 47081888 48606104 49946292 50936804 51415676 51271168 50469960 
1047.160 49068200 47205948 45071680 42883804 40834608 39063984 37658540 
1050.536 36645184 36012264 35727212 35755884 36071484 36657980 37511240 
1053.911 38636956 40050120 41772208 43829804 46245940 49026656 52143568 
1057.286 55515444 59005892 62405064 65453856 67885720 69441128 69937816 
1060.661 69305072 67600224 65000900 61768904 58221976 54654368 51309164 
1064.037 48358108 45879000 43876904 42303856 41089852 40160808 39453620 
1067.412 38924324 38538712 38269152 38092124 37984240 37926928 37909100 
1070.787 37926600 37980336 38072124 38201632 38365708 38561092 38789132 
1074.162 39059124 39388636 39803184 40328896 40990284 41807452 42792528 
1077.538 43949012 45264920 46707264 48209288 49665140 50943472 51887272 
1080.913 52347792 52219788 51454540 50080952 48194812 45948568 43513568 
1084.288 41049352 38695740 36547892 34660528 33056162 31729232 30655744 
1087.663 29798946 29119858 28579752 28146292 27798526 27524918 27321062 
1091.039 27185412 27115574 27106262 27152078 27249686 27400850 27613678 
1094.414 27900626 28274498 28745080 29318678 29997790 30783522 31674698 
1097.789 32665468 33739468 34860932 35975544 37007900 37868608 38475352 
1101.164 38760440 38686792 38255180 37503400 36500644 35329328 34083384 
1104.540 32852766 31710696 30718472 29916034 29323038 28944152 28773296 
1107.915 28800664 29015984 29410248 29969780 30666946 31455670 32266062 
1111.290 33006358 33584288 33915728 33943996 33653208 33068032 32248434 
1114.665 31269792 30216334 29163762 28168528 27272688 26499724 25857774 
1118.041 25343202 24942926 24639094 24411526 24243074 24121934 24041136 
1121.416 23997118 23986648 24003876 24040508 24086980 24134930 24180294 
1124.791 24222998 24265742 24310874 24358218 24404374 24444088 24472902 
1128.166 24489204 24494952 24493760 24488502 24479176 24462770 24434800 
1131.542 24392388 24335930 24269142 24198020 24127470 24059522 23993022 
1134.917 23925552 23855606 23785006 23718338 23660320 23614278 23578736 
1138.292 23549140 23519304 23485060 23446800 23409242 23378958 23361266 
1141.667 23357350 23364274 23376616 23389520 23401198 23413822 23431342 
1145.042 23457046 23491496 23532350 23576356 23621626 23669488 23723972 
1148.418 23789450 23868068 23957306 24051292 24143022 24228534 24309262 
1151.793 24392004 24486224 24601222 24743504 24916396 25122814 25368002 
1155.168 25661236 26015490 26442146 26945612 27517752 28136922 28768624 
1158.543 29370328 29903644 30338724 30662784 30884084 31030822 31148102 
1161.919 31284820 31488088 31787764 32186232 32653504 33129464 33538186 
1165.294 33798020 33847376 33659296 33247098 32661006 31975150 31274668 
1168.669 30631602 30098632 29706156 29462300 29361252 29389296 29530284 
1172.044 29767080 30082688 30463102 30896392 31376164 31901792 32478326 
1175.420 33113480 33814996 34588544 35437168 36361264 37361316 38438392 
1178.795 39594320 40829804 42143328 43529100 44978248 46479932 48023872 
1182.170 49600392 51201188 52817032 54435720 56043764 57625924 59170504 
1185.545 60672584 62135724 63570784 64990008 66399872 67791280 69134208 
1188.921 70370824 71421736 72194928 72589464 72520312 71928408 70790808 
1192.296 69129120 67008444 64533844 61827580 59022708 56245456 53592184 
1195.671 51134088 48912240 46941988 45225020 43754524 42520788 41511752 
1199.046 40712608 40106440 39673816 39396656 39261384 39259032 39385516 
1202.422 39638712 40015676 40511564 41119976 41834848 42653424 43575840 
1205.797 44603604 45736176 46966576 48278232 49647564 51042924 52428572 
1209.172 53770164 55032296 56181532 57188160 58024324 58668064 59107324 
1212.547 59341024 59381556 59253324 58992232 58638672 58235692 57829752 
1215.923 57464660 57184836 57033820 57047576 57254460 57670608 58299388 
1219.298 59133524 60159352 61361748 62726020 64238472 65885732 67650632 
1222.673 69511616 71443488 73415976 75398168 77360392 79272136 81105264 
1226.048 82833352 84431608 85881504 87173528 88311184 89312376 90210192 
1229.424 91050128 91880224 92750304 93705008 94778104 95994824 97368792 
1232.799 98902080 100583880 102389768 104284968 106221296 108143728 
1235.692 109995608 111715104 113241624 114515216 115468984 116035392 
1238.585 116143968 115722664 114712328 113069848 110776592 107843120 
1241.478 104309184 100241712 95724728 90863504 85777176 80584272 75408768 
1244.853 70362136 65530328 60979452 56748232 52853108 49297376 46074292 
1248.229 43170668 40566748 38237524 36153436 34282304 32595958 31071680 
1251.604 29693204 28449898 27331966 26327540 25423260 24604168 23858020 
1254.979 23178018 22562872 22014192 21533466 21118528 20762926 20458390 
1258.354 20197110 19975048 19792390 19651060 19551750 19491690 19464174 
1261.729 19461714 19479040 19515670 19575736 19665726 19790276 19949896 
1265.105 20140222 20355144 20589734 20843152 21118980 21422654 21758556 
1268.480 22128050 22529090 22958550 23415886 23904824 24433714 25012626 
1271.855 25650164 26351830 27119594 27954544 28860398 29844976 30920480 
1275.230 32101136 33399076 34822624 36375712 38059392 39873496 41817484 
1278.606 43889108 46080632 48375296 50747428 53159512 55567560 57926780 
1281.981 60190024 62313648 64257072 65978056 67436296 68592880 69410368 
1285.356 69860208 69923720 69594256 68876928 67786672 66345780 64579664 
1288.731 62519304 60202056 57670004 54974796 52173568 49321616 46474920 
1292.107 43683032 40986972 38424672 36027344 33819692 31819568 30034326 
1295.482 28460618 27086020 25893646 24865728 23986370 23243310 22624894 
1298.857 22118182 21708326 21379040 21115188 20907226 20751178 20648940 
1302.232 20604188 20620030 20696684 20832098 21024792 21277140 21596006 
1305.608 21992860 22478384 23057526 23724882 24462210 25238506 26009086 
1308.983 26723738 27328438 27769596 28006564 28014516 27793826 27371912 
1312.358 26803908 26164922 25530248 24969806 24531448 24236416 24085300 
1315.733 24065406 24161342 24359970 24653892 25038388 25507442 26051832 
1319.109 26659154 27316158 28012890 28742744 29500918 30281166 31071894 
1322.484 31853904 32604460 33298538 33913828 34434572 34849444 35150012 
1325.859 35329220 35379436 35295328 35077592 34736296 34291696 33770768 
1329.234 33204604 32620714 32040636 31481676 30957696 30482720 30072282 
1332.610 29740182 29496274 29343880 29279722 29297302 29391246 29561422 
1335.985 29814240 30160250 30610304 31172202 31848624 32636214 33526302 
1339.360 34502800 35541620 36604988 37644552 38606068 39435296 40094236 
1342.735 40569800 40880984 41076524 41227876 41418284 41719096 42186080 
1346.111 42853048 43734844 44836640 46161180 47712780 49498744 51527768 
1349.486 53808268 56349564 59161620 62253604 65628596 69274208 73152696 
1352.861 77185376 81254568 85210152 88872640 92074040 94676280 96591128 
1356.236 97795264 98321416 98242424 97640984 96596848 95172256 93404000 
1359.612 91310784 88896472 86158184 83098472 79738560 76128776 72358040 
1362.987 68543320 64805828 61253532 57953968 54931892 52181300 49679960 
1366.362 47406936 45351532 43513896 41898664 40506508 39329508 38350252 
1369.737 37547148 36901148 36396180 36018924 35755740 35589628 35501200 
1373.113 35475276 35504260 35592756 35753292 36000236 36339756 36767524 
1376.488 37270832 37837372 38463296 39157816 39942144 40844584 41895636 
1379.863 43122252 44553084 46223940 48177224 50459948 53105780 56113512 
1383.238 59422928 62900088 66352576 69514608 72086288 73786960 74387032 
1386.614 73797640 72106472 69583520 66595272 63503852 60611664 58098824 
1389.989 56044632 54457692 53300864 52517820 52046548 51833916 51835968 
1393.364 52020928 52369472 52866616 53495816 54235768 55057196 55926988 
1396.739 56813900 57687560 58522756 59300800 60008672 60642296 61204892 
1400.115 61705616 62152620 62548736 62887640 63154996 63330344 63391768 
1403.490 63323408 63119976 62789880 62351400 61829224 61246856 60620504 
1406.865 59960436 59272236 58561848 57840504 57126816 56444752 55823020 
1410.240 55287708 54856544 54537928 54330268 54225556 54213240 54283744 
1413.615 54429184 54641928 54915236 55242364 55618020 56041500 56519656 
1416.991 57068208 57712196 58484808 59421140 60545840 61871020 63392496 
1420.366 65096036 66971952 69020152 71252224 73685696 76336616 79207992 
1423.741 82276000 85488752 88770400 92029640 95181664 98151080 100871264 
1427.116 103289424 105360616 107053760 108359400 109291592 109883880 
1430.010 110174408 110202552 110003936 109613536 109075928 108441272 
1432.903 107752328 107032848 106268480 105405512 104358312 103045544 
1435.796 101434928 99587656 97658072 95842664 94304232 93113136 92258840 
1439.171 91683832 91324160 91129896 91073624 91145424 91342600 91660552 
1442.546 92090584 92621384 93245608 93964464 94787960 95732576 96816832 
1445.921 98060336 99482232 101101504 102938864 105011624 107331664 109901208 
1449.297 112707224 115716648 118864560 122055376 125149160 127973128 
1452.190 130366744 132196512 133389744 133930456 133831512 133104008 
1455.083 131735024 129711656 127060384 123894464 120425120 116885344 
1457.976 113438712 110135216 106955112 103870168 100885936 98044424 95408408 
1461.351 93039120 90963224 89179600 87667584 86405696 85388072 84630184 
1464.726 84157432 83986856 84114120 84516456 85164312 86032752 87106832 
1468.102 88373600 89817544 91419880 93155800 95008720 96977944 99076704 
1471.477 101323872 103722848 106240592 108800344 111302696 113653544 
1474.370 115788328 117671952 119292712 120655904 121778320 122691008 
1477.263 123436440 124070648 124654888 125245664 125896216 126647784 
1480.156 127527936 128551720 129720632 131025192 132448376 133967984 
1483.049 135554256 137162112 138730176 140172384 141375872 142220416 
1485.942 142581648 142345712 141425792 139756928 137298176 134037720 
1488.835 130006688 125306456 120120312 114712280 109370568 104329152 
1491.728 99726616 95575520 91791880 88238880 84772296 81277352 77693032 
1495.104 74021384 70322392 66691340 63221140 59974284 56972580 54212944 
1498.479 51680684 49362148 47246764 45321188 43567380 41965120 40499672 
1501.854 39165612 37964028 36898300 35959920 35120124 34325332 33506472 
1505.229 32600102 31579654 30487980 29430210 28520624 27817000 27300562 
1508.604 26904930 26564250 26235418 25905604 25582680 25283248 25018698 
1511.980 24789562 24587406 24403534 24235786 24090482 23977580 23903356 
1515.355 23865232 23852944 23856972 23878078 23932484 24045338 24239430 
1518.730 24520826 24876430 25275240 25684576 26083778 26478066 26893084 
1522.105 27359102 27884726 28449544 29012798 29533190 29988488 30382820 
1525.481 30749448 31134932 31584892 32121900 32742780 33429958 34167688 
1528.856 34953140 35797008 36716320 37723152 38819348 40000016 41261908 
1532.231 42613544 44078856 45690196 47469288 49405808 51463156 53592932 
1535.606 55762212 57959684 60202092 62534192 65011552 67692720 70619824 
1538.982 73796384 77171328 80645864 84113432 87488896 90732176 93849992 
1542.357 96866608 99807168 102680240 105470000 108134336 110613224 112853152 
1545.732 114814904 116478792 117834512 118855240 119486200 119654896 
1548.625 119285560 118344920 116867168 114953048 112721008 110247008 
1551.518 107535096 104521232 101122792 97304032 93128448 88769176 84468120 
1554.894 80424744 76738376 73376160 70196464 66990852 63540944 59705304 
1558.269 55504412 51193952 47187884 43840764 41276156 39405796 38043336 
1561.644 37009488 36171440 35437776 34754996 34099336 33475228 32906592 
1565.019 32426052 32059006 31809334 31656984 31563192 31485416 31385854 
1568.395 31242482 31053992 30837764 30620578 30426068 30268236 30149596 
1571.770 30065430 30006594 29960406 29909928 29831488 29698740 29491130 
1575.145 29206888 28875058 28553496 28311276 28195434 28217248 28357962 
1578.520 28587182 28877678 29214648 29596678 30029638 30520860 31073210 
1581.896 31682220 32337342 33026200 33735888 34455736 35178148 35898560 
1585.271 36618216 37345720 38099072 38902908 39783756 40765888 41864692 
1588.646 43086208 44430184 45894688 47480116 49188636 51019448 52960968 
1592.021 54985100 57051616 59111348 61117652 63038328 64854376 66559352 
1595.396 68152328 69633616 71003016 72262864 73421232 74492864 75494472 
1598.772 76439720 77330936 78154352 78876416 79449896 79813328 79893064 
1602.147 79614920 78905344 77705672 75992456 73787544 71168136 68250760 
1605.522 65189816 62150976 59281240 56709984 54522900 52756456 51404708 
1608.897 50429988 49784400 49420548 49303128 49406108 49702104 50160648 
1612.273 50745828 51420560 52158324 52944012 53773352 54649180 55573096 
1615.648 56542340 57550940 58599008 59699032 60868856 62128268 63482104 
1619.023 64916432 66401108 67900672 69387976 70846808 72282464 73715616 
1622.398 75173320 76671832 78208936 79768144 81330728 82890496 84460384 
1625.774 86065304 87732416 89480296 91314544 93233288 95237816 97341472 
1629.149 99575240 101975608 104567768 107354920 110315008 113415264 
1632.042 116621144 119925184 123359928 126994816 130923096 135226112 
1634.935 139932320 144975536 150214832 155503376 160743504 165921872 
1637.828 171079664 176261136 181478896 186697104 191854256 196867584 
1640.721 201669984 206230592 210541008 214599440 218390368 221865200 
1643.614 224956272 227600864 229761920 231450816 232723760 233671824 
1646.507 234379168 234912480 235330544 235691312 236065008 236522608 
1649.400 237109456 237825952 238606944 239327344 239792560 239792160 
1652.293 239205264 238127520 236887264 235836528 235134608 234686528 
1655.187 234282528 233709888 232835216 231609136 230043840 228185584 
1658.080 226081280 223758176 221211280 218416048 215345888 211985280 
1660.973 208336048 204415264 200251424 195889120 191396480 186867200 
1663.866 182404048 178090320 173956752 169969504 166027808 161985248 
1666.759 157677024 152962176 147761248 142086256 136045104 129815344 
1669.652 123601608 117585632 111898128 106610264 101735440 97237792 93038920 
1673.027 89028504 85093168 81161016 77251048 73502424 70141352 67378136 
1676.402 65327244 63969420 63200220 62893116 62957196 63357180 64099432 
1679.778 65203636 66673144 68482024 70600016 73030336 75849480 79224536 
1683.153 83381216 88503656 94575504 101339264 108411032 115483384 122447984 
1686.528 129364416 136355824 143512048 150828032 158203696 165430560 
1689.421 172266464 178507536 184019856 188774096 192820944 196256496 
1692.314 199175344 201639872 203661888 205200304 206176336 206517376 
1695.207 206218384 205391040 204238384 202934944 201534016 199914336 
1698.100 197821872 194916480 190903584 185712992 179659072 173403824 
1700.993 167619456 162661456 158465584 154731296 151101744 147302064 
1703.886 143176816 138696240 133936136 129037976 124158000 119409640 
1706.780 114847840 110474752 106260728 102156000 98098088 94021696 89870392 
1710.155 85617024 81273192 76893584 72556216 68329088 64260872 60363004 
1713.530 56618772 53008284 49528492 46203632 43078376 40193956 37565792 
1716.905 35172252 32979154 30964812 29142146 27555528 26247244 25226954 
1720.281 24458426 23869468 23374482 22905768 22430514 21962816 21547082 
1723.656 21234760 21049798 20975688 20960494 20944568 20887198 20776828 
1727.031 20628126 20462350 20287090 20085804 19823914 19467986 19007240 
1730.406 18459986 17863188 17245450 16607352 15909864 15091590 14103305 
1733.781 12960168 11759362 10644339 9723644 9021689 8487714 8036608 7590860 
1737.639 7101142 6560372 5997194 5461083 4991725 4599786 4264444 3954003 
1741.496 3647193 3346175 3071560 2848010 2685816 2573076 2480893 2378900 
1745.354 2253417 2113086 1983486 1890429 1845272 1835989 1833560 1805876 
1749.211 1737341 1636554 1532100 1453767 1415969 1409819 1411448 1399182 
1753.069 1367106 1327221 1301398 1308178 1351052 1415471 1475011 1506963 
1756.926 1505300 1485817 1475277 1497454 1558136 1642973 1724035 1775799 
1760.783 1788209 1772938 1757601 1768746 1817488 1893357 1972801 2033384 
1764.641 2066575 2079626 2090213 2114119 2156040 2204626 2239828 2243392 
1768.498 2211353 2156040 2099302 2057619 2031619 2004157 1947838 1843010 
1772.356 1691003 1517636 1358098 1238060 1159415 1103305 1041424 953417 
1776.213 835183 700587 572137 468104 391389 327819 253615 149029 11331 
1780.553 -142751 -285952 -396532 -468858 -517344 -566123 -637726 -739154 
1784.410 -859904 -976917 -1069111 -1129527 -1168125 -1204209 -1254728 
1787.785 -1324895 -1405852 -1480487 -1534341 -1564947 -1584788 -1615424 
1791.161 -1674608 -1764938 -1869402 -1960252 -2014080 -2025029 -2005933 
1794.536 -1979284 -1963320 -1962693 -1968762 -1965925 -1941615 -1894343 
1797.911 -1835419 -1782526 -1749890 -1738834 -1736788 -1723257 -1683421 
1801.286 -1615027 -1531105 -1450205 -1386861 -1341676 -1302697 -1250862 
1804.662 -1172388 -1065971 -943559 -824321 -723078 -644442 -580451 -517311 
1808.519 -444298 -362302 -284759 -231677 -217867 -246381 -305984 -379152 
1812.376 -451018 -517311 -585315 -666972 -769584 -888639 -1008290 -1106723 
1816.234 -1168588 -1191653 -1188778 -1179724 -1181838 -1199814 -1225587 
1819.609 -1243693 -1242404 -1221225 -1191818 -1170901 -1171297 -1194858 
1822.984 -1231831 -1266291 -1285188 -1286278 -1278647 -1276202 -1287765 
1826.360 -1311319 -1335466 -1347225 -1340322 -1321163 -1306661 -1316571 
1829.735 -1361065 -1434056 -1514365 -1578384 -1612552 -1619451 -1614862 
1833.110 -1618428 -1643251 -1688768 -1741771 -1784077 -1803084 -1799289 
1836.485 -1785859 -1779589 -1792525 -1823772 -1860989 -1887118 -1891341 
1839.861 -1875473 -1853566 -1844064 -1859603 -1901667 -1959427 -2016026 
1843.236 -2057183 -2080168 -2093721 -2111494 -2140608 -2176249 -2204139 
1846.611 -2209842 -2187227 -2142356 -2090061 -2047290 -2023017 -2014278 
1849.986 -2007616 -1987826 -1948311 -1894244 -1841094 -1804634 -1793251 
1853.362 -1801962 -1815424 -1815721 -1793977 -1754048 -1711475 -1682893 
1856.737 -1677843 -1692695 -1713785 -1725402 -1719363 -1699858 -1681243 
1860.112 -1678503 -1697349 -1730584 -1760054 -1768403 -1747085 -1702993 
1863.487 -1653352 -1618263 -1608821 -1622026 -1643119 -1654540 -1646750 
1866.863 -1623940 -1601559 -1597531 -1621894 -1668469 -1719198 -1753091 
1870.238 -1760054 -1745699 -1727283 -1721970 -1739098 -1773914 -1811861 
1873.613 -1836310 -1838554 -1822617 -1802622 -1793647 -1801797 -1819747 
1876.988 -1830173 -1814698 -1763585 -1681540 -1583303 -1487388 -1404201 
1880.364 -1333055 -1264540 -1190166 -1110028 -1038404 -996753 -1006042 
1883.739 -1074961 -1194692 -1341973 -1489567 -1619055 -1726326 -1820374 
1887.114 -1914631 -2017609 -2126661 -2229226 -2309717 -2359712 -2382351 
1890.489 -2390952 -2399058 -2413523 -2430559 -2440147 -2432931 -2408383 
1893.865 -2376288 -2352594 -2350221 -2370356 -2400244 -2418565 -2408680 
1897.240 -2365578 -2300950 -2235456 -2190359 -2175425 -2186568 -2207831 
1900.615 -2223028 -2224973 -2218809 -2218446 -2236412 -2275967 -2327778 
1903.990 -2374443 -2399519 -2398234 -2380045 -2363568 -2365743 -2393423 
1907.365 -2439356 -2486931 -2519710 -2531207 -2528143 -2526035 -2539310 
1910.741 -2571756 -2614606 -2651196 -2668617 -2664006 -2648627 -2639735 
1914.116 -2652744 -2691141 -2744483 -2793934 -2823003 -2827513 -2817538 
1917.491 -2811415 -2825307 -2862011 -2909441 -2946992 -2958149 -2940443 
1920.866 -2906215 -2876494 -2868133 -2886368 -2919972 -2948934 -2955121 
1924.242 -2933861 -2895518 -2860167 -2844532 -2852860 -2874683 -2891174 
1927.617 -2886500 -2857764 -2816452 -2783366 -2776090 -2798247 -2837586 
1930.992 -2872313 -2883669 -2866454 -2830541 -2794691 -2775662 -2776913 
1934.367 -2786659 -2784782 -2754624 -2694368 -2618591 -2550345 -2509629 
1937.743 -2502612 -2519512 -2540298 -2546755 -2533677 -2510025 -2492861 
1941.118 -2494837 -2515493 -2538651 -2542604 -2510848 -2445089 -2362118 
1944.493 -2286679 -2235588 -2208260 -2186304 -2143708 -2062856 -1942473 
1947.868 -1800312 -1661241 -1544147 -1449016 -1356474 -1237085 -1068516 
1951.244 -848065 -596003 -344722 -127149 36150 142764 199645 213866 182805 
1955.583 93978 -66461 -299825 -587433 -889565 -1162805 -1372791 -1512780 
1959.441 -1602318 -1677216 -1766753 -1878244 -1996435 -2092863 -2145488 
1962.816 -2150664 -2126233 -2100481 -2095732 -2115319 -2141598 -2147301 
1966.191 -2113110 -2039111 -1945837 -1860725 -1803084 -1770548 -1741573 
1969.566 -1688042 -1594527 -1469556 -1345375 -1261666 -1245080 -1298402 
1972.942 -1397034 -1504063 -1587991 -1638234 -1666456 -1693785 -1732960 
1976.317 -1777576 -1803084 -1782724 -1706425 -1590566 -1471241 -1389404 
1979.692 -1368299 -1403970 -1468467 -1526648 -1555339 -1552665 -1537478 
1983.067 -1533780 -1557617 -1604596 -1654177 -1678668 -1663056 -1611363 
1986.443 -1546161 -1494058 -1472132 -1478109 -1494058 -1496270 -1473090 
1989.818 -1430390 -1391122 -1381147 -1413646 -1480222 -1554613 -1607633 
1993.193 -1620738 -1598092 -1562603 -1543586 -1559466 -1610076 -1676556 
1996.568 -1735336 -1771175 -1785727 -1796187 -1824795 -1883291 -1966189 
1999.944 -2051676 -2114494 -2140674 -2134542 -2117132 -2111098 -2130255 
2003.319 -2166688 -2198930 -2200381 -2157753 -2078981 -1991224 -1925254 
2006.694 -1898632 -1907011 -1926672 -1929905 -1900578 -1844955 -1786816 
2010.069 -1754147 -1760648 -1798200 -1840203 -1857954 -1835617 -1780084 
2013.445 -1715865 -1673156 -1669426 -1699759 -1740616 -1762529 -1748966 
2016.820 -1703719 -1650315 -1616051 -1619088 -1655827 -1705798 -1742563 
2020.195 -1749791 -1729561 -1701013 -1685830 -1696854 -1730716 -1770350 
2023.570 -1797012 -1801896 -1791964 -1784935 -1797738 -1832582 -1875308 
2026.946 -1900974 -1889692 -1838191 -1765004 -1699660 -1669657 -1683784 
2030.321 -1728274 -1772561 -1789390 -1767611 -1719165 -1669855 -1645100 
2033.696 -1653748 -1683421 -1706359 -1696458 -1643581 -1559103 -1468929 
2037.071 -1395911 -1349240 -1318190 -1281323 -1217161 -1120670 -1006174 
2040.447 -900378 -827396 -796044 -792736 -791281 -764325 -696978 -594051 
2044.304 -474650 -359289 -258931 -168222 -70867 48974 196893 362637 525425 
2048.644 663186 764577 831432 876019 912242 946112 975334 992238 991872 
2052.983 977659 962018 959660 979784 1018707 1060821 1084338 1074207 1028969 
2057.323 962317 895774 848994 829142 829142 831830 820543 788908 741476 
2061.662 691793 651240 622836 597652 561089 500081 413013 310809 212242 
2066.002 134147 82279 49471 20709 -19151 -76764 -146394 -215781 -271879 
2070.342 -309759 -334624 -358163 -390540 -433574 -479913 -516418 -531476 
2074.199 -522540 -496263 -466309 -444861 -435428 -433011 -427417 -409740 
2078.056 -378854 -342437 -312176 -297806 -300653 -313401 -323764 -322771 
2081.914 -309328 -292143 -284461 -297210 -333432 -386733 -444530 -495534 
2085.771 -535910 -569598 -605830 -651952 -708424 -768228 -820286 -855208 
2089.629 -871312 -875611 -879844 -893434 -919423 -952023 -981248 -997645 
2093.486 -998009 -986802 -972950 -963660 -960586 -958900 -950204 -929309 
2097.344 -897369 -862020 -833184 -817574 -814234 -815722 -812051 -797069 
2101.201 -772263 -746828 -731182 -732108 -747721 -768691 -782847 -781657 
2105.058 -765615 -742958 -725790 -721986 -731447 -746067 -754336 -747357 
2108.916 -724467 -692611 -663201 -644740 -638553 -639082 -637196 -627039 
2112.773 -608676 -588856 -575686 -574296 -582767 -592959 -595341 -585150 
2116.631 -565329 -546996 -541668 -557321 -592132 -636435 -676236 -701212 
2120.488 -709052 -705843 -701708 -703792 -711963 -719307 -716032 -695886 
2124.345 -661150 -621348 -590146 -576613 -581510 -596400 -608610 -607849 
2128.203 -591768 -567149 -545275 -536142 -542330 -558314 -573734 -580286 
2132.060 -575058 -562516 -549875 -541403 -534586 -521250 -491232 -440624 
2135.918 -375809 -311911 -265190 -246381 -253401 -274528 -292673 -295422 
2139.775 -281084 -259825 -246248 -251845 -279163 -320188 -362004 -394877 
2143.633 -417122 -434666 -457472 -489809 -527537 -558678 -569730 -554839 
2147.490 -520257 -482196 -458962 -463066 -492887 -536175 -575752 -600205 
2151.347 -610132 -617345 -636700 -678651 -741866 -814994 -882125 -933210 
2155.205 -966801 -991133 -1012554 -1028421 -1022934 -971132 -855109 -675938 
2159.062 -459557 -247705 -82926 12591 42446 33334 17395 19052 44865 85162 
2163.884 123044 146112 153769 156420 167292 193545 230442 263926 279144 
2168.224 268369 236177 196429 166663 156918 166795 186220 203523 212805 
2172.563 217480 229215 259052 311770 380280 450226 506351 541615 560824 
2176.903 577711 605183 649846 705964 760594 800228 819149 822568 825257 
2181.242 841558 877181 925856 973109 1002898 1007581 991241 967729 953052 
2185.582 956007 974736 999145 1016714 1020135 1010238 995459 984168 979684 
2189.922 977625 967929 941596 896803 841458 788775 751301 734971 735767 
2194.261 743600 747517 743136 734904 732946 746455 778585 823398 869810 
2198.601 906100 927151 935917 940799 949930 966003 983836 994330 990145 
2202.940 969988 941629 916360 905237 912408 934224 961486 986525 1006153 
2207.280 1024784 1049362 1084969 1129084 1173169 1204633 1214402 1202042 
2211.137 1176658 1152604 1142106 1150445 1173036 1200048 1221413 1232378 
2214.995 1235933 1239721 1250022 1267834 1287208 1298640 1295416 1276241 
2218.852 1248427 1222243 1207092 1204832 1210680 1215000 1210215 1194533 
2222.710 1174000 1157056 1151475 1157720 1169548 1176691 1170844 1150046 
2226.567 1120380 1092111 1073310 1067630 1071450 1076997 1077662 1072048 
2230.425 1064807 1063545 1073975 1095898 1123569 1148285 1163734 1169481 
2234.282 1171209 1177787 1195529 1224868 1259327 1289567 1308876 1315922 
2238.139 1316885 1321272 1337292 1367438 1408357 1451407 1489873 1520662 
2241.997 1545866 1570374 1598275 1629104 1659437 1683086 1697123 1703510 
2245.854 1709232 1722138 1747122 1782753 1821880 1855255 1875554 1882009 
2249.712 1879148 1875188 1876752 1885204 1896918 1905671 1906603 1899547 
2253.569 1889397 1882941 1885138 1895920 1910530 1921645 1924441 1918384 
2257.427 1908200 1900013 1897351 1898682 1897850 1887101 1860512 1818919 
2261.284 1769079 1720741 1682754 1659437 1649226 1647098 1647230 1646665 
2265.141 1645335 1645534 1647696 1651022 1651355 1644969 1630268 1610280 
2268.999 1590293 1576426 1572036 1575462 1581414 1583975 1579386 1568744 
2272.856 1557371 1551020 1553847 1565352 1581348 1596346 1606689 1613140 
2276.714 1619759 1631499 1650523 1675137 1699718 1718147 1726363 1725731 
2280.571 1721107 1719810 1727195 1744294 1768380 1794597 1818620 1838983 
2284.428 1857285 1875886 1896619 1918417 1938186 1952531 1960053 1962749 
2288.286 1964879 1971137 1984285 2003225 2024030 2041573 2052426 2056021 
2292.143 2054690 2051760 2049130 2046500 2041040 2029855 2011680 1988379 
2296.001 1964713 1945741 1934758 1931730 1933560 1935391 1933260 1925706 
2299.858 1913259 1898116 1881876 1864506 1844540 1820949 1794065 1766783 
2303.716 1743196 1726862 1718812 1717115 1716916 1712758 1701747 1683818 
2307.573 1662065 1640579 1622286 1607387 1593752 1577989 1558269 1534860 
2311.430 1510687 1489274 1472983 1462145 1454798 1448049 1440336 1431693 
2315.288 1424080 1419759 1419559 1422252 1425144 1425543 1422551 1418130 
2319.145 1415736 1419593 1431992 1452038 1476308 1500479 1520495 1533663 
2323.003 1539016 1535591 1522258 1496888 1457989 1405697 1343308 1276640 
2326.860 1212940 1158086 1114567 1080983 1053115 1026179 997618 968161 
2330.718 941429 921805 912010 911778 919082 931136 946610 966268 992304 
2335.057 1026279 1066767 1110049 1149880 1181110 1201643 1213272 1221180 
2338.915 1230816 1246367 1268066 1293356 1318913 1342277 1363483 1384058 
2342.772 1405797 1429200 1453534 1477372 1501443 1529606 1567879 1622752 
2346.629 1697389 1790106 1893258 1996534 2089447 2162866 2212319 2236498 
2350.487 2237230 2217181 2179250 2125406 2057220 1977062 1888765 1797558 
2354.344 1708999 1626843 1552317 1484021 1419792 1358364 1300966 1250089 
2358.202 1209019 1178651 1156757 1138718 1119350 1094901 1065272 1033187 
2362.059 1002267 976231 956439 942924 935618 935652 945149 967364 1004127 
2366.399 1054278 1113935 1177488 1240220 1300135 1358464 1418629 1484287 
2370.256 1557172 1636321 1719078 1802649 1886402 1971603 2061148 2157538 
2374.114 2261544 2371671 2484992 2598175 2709855 2819862 2929597 3040427 
2377.971 3152387 3264143 3373790 3479824 3582275 3682479 3782806 3884961 
2381.828 3989013 4093191 4194817 4291749 4383381 4471449 4558699 4648512 
2385.686 4742597 4840656 4940782 5040428 5137381 5230633 5320149 5406294 
2389.543 5489303 5568770 5644290 5715694 5784020 5850779 5917178 5983723 
2393.401 6048966 6110389 6165603 6213732 6256320 6297164 6341139 6391776 
2397.258 6450523 6515837 6584457 6652585 6717559 6778740 6836732 6892274 
2401.115 6945769 6996308 7042711 7084269 7122092 7158638 7197242 7240837 
2404.973 7290534 7345662 7404370 7464671 7526294 7590354 7659212 7735097 
2408.830 7819799 7913057 8014601 8123801 8241165 8367985 8506196 8656856 
2412.688 8819875 8994017 9177468 9369291 9569938 9781555 10007280 10250457 
2416.545 10513118 10797136 11103432 11432668 11785883 12163101 12562918 
2419.920 12981436 13412148 13846570 14275984 14692969 15091761 15467399 
2423.296 15815940 16131988 16409105 16641401 16824184 16957154 17044226 
2426.671 17093886 17116770 17122698 17119874 17113462 17106224 17100400 
2430.046 17098712 17104468 17121390 17151340 17194534 17248382 17309100 
2433.421 17373066 17437492 17501272 17564162 17625478 17683452 17735256 
2436.797 17777816 17809124 17829182 17839918 17844856 17847548 17850724 
2440.172 17856386 17866364 17883524 17912112 17958246 18028872 18130738 
2443.547 18269292 18449304 18674634 18949468 19278024 19665172 20114990 
2446.922 20629656 21209952 21855204 22564164 23335952 24170204 25066504 
2450.298 26023158 27035802 28098180 29201892 30338510 31500734 32682688 
2453.673 33879188 35084524 36289792 37483064 38648512 39767200 40819792 
2457.048 41786512 42648120 43387412 43987144 44431176 44706796 44804500 
2460.423 44720532 44457748 44026672 43442228 42722548 41886952 40953112 
2463.799 39936080 38849712 37705264 36512824 35281672 34019276 32732702 
2467.174 31428844 30115182 28801054 27498126 26218594 24974756 23777692 
2470.549 22634496 21550878 20530398 19576220 18691792 17880106 17143344 
2473.924 16480718 15888486 15360801 14889713 14468428 14091017 13752441 
2477.300 13448509 13174333 12924120 12692269 12474148 12267452 12072572 
2480.675 11891675 11727600 11581521 11452365 11337530 11233607 11138173 
2484.050 11050305 10970679 10900479 10840005 10788201 10742789 10701084 
2487.425 10661487 10622778 10585226 10549000 10513322 10476662 10437290 
2490.801 10394121 10348105 10302230 10260601 10226675 10201946 10185562 
2494.176 10174742 10166262 10157986 10149540 10142622 10138959 10139840 
2497.551 10145776 10156052 10170231 10188784 10213107 10245639 10288252 
2500.926 10341454 10404607 10476153 10554670 10640672 10735725 10841839 
2504.302 10960586 11091161 11230683 11375080 11520171 11663336 11803620 
2507.677 11941771 12077785 12210911 12338896 12457713 12563259 12652900 
2511.052 12724886 12778524 12813503 12828587 12822649 12794597 12745051 
2514.427 12677292 12596481 12508351 12418228 12328090 12237936 12145553 
2517.802 12049305 11948617 11845364 11742852 11644106 11550964 11463285 
2521.178 11379263 11297706 11218272 11142524 11072976 11011424 10957800 
2524.553 10909788 10863514 10815207 10762353 10705431 10646309 10587806 
2527.928 10531959 10479751 10430978 10385704 10344847 10310644 10285673 
2531.303 10271525 10267420 10270236 10275426 10278276 10275358 10266063 
2534.679 10251305 10232511 10210732 10185766 10156324 10121796 10082830 
2538.054 10041730 10002363 9967781 9940388 9920217 9905946 9895674 9888624 
2541.911 9885302 9887301 9895945 9912183 9934929 9962729 9994226 10029150 
2545.769 10068994 10116540 10173860 10242382 10321672 10409630 10504292 
2549.144 10604273 10709235 10820064 10937378 11060604 11187809 11315390 
2552.519 11439369 11556000 11662349 11756333 11836171 11900597 11948412 
2555.895 11979680 11995688 11999844 11997630 11994938 11996983 12007304 
2559.270 12026924 12055267 12090459 12130901 12174823 12220760 12266906 
2562.645 12310740 12348475 12376770 12392180 12392760 12377214 12345305 
2566.020 12296389 12230507 12147665 12049100 11937787 11819351 11699790 
2569.396 11585912 11482507 11392223 11314778 11248840 11192806 11145754 
2572.771 11107884 11079740 11061352 11051257 11046975 11045717 11045275 
2576.146 11045207 11046804 11052345 11063901 11083037 11109856 11144089 
2579.521 11185055 11232757 11287708 11350114 11419537 11493564 11568727 
2582.896 11640907 11706837 11764094 11812269 11851460 11882583 11906353 
2586.272 11923279 11934619 11942521 11950525 11962683 11982881 12013775 
2589.647 12055675 12107051 12164873 12225804 12286914 12345782 12400090 
2593.022 12447789 12486322 12512920 12526392 12526733 12515649 12496484 
2596.397 12473091 12448335 12424366 12402409 12383180 12368145 12359248 
2599.773 12358668 12368009 12387339 12415227 12448676 12485025 12522572 
2603.148 12561485 12603370 12650308 12703869 12764432 12830805 12901455 
2606.523 12975667 13053237 13135568 13223825 13318865 13420007 13525412 
2609.898 13632381 13739035 13844107 13947597 14050152 14152288 14253830 
2613.274 14354095 14452088 14547294 14639676 14730261 14819767 14908573 
2616.649 14996676 15083802 15169676 15255670 15344015 15437219 15537861 
2620.024 15647216 15764605 15887937 16014637 16142476 16270008 16396787 
2623.399 16522605 16646668 16767494 16882776 16990022 17087854 17176574 
2626.775 17257828 17334100 17408142 17482024 17556814 17633690 17713442 
2630.150 17797870 17888876 17988602 18098402 18218288 18347260 18483670 
2633.525 18625590 18772050 18922506 19076858 19235214 19397160 19562114 
2636.900 19729244 19897862 20067726 20238244 20409040 20578200 20743288 
2640.276 20900514 21046180 21176726 21290050 21384922 21461156 21519470 
2643.651 21560696 21586116 21597782 21597886 21589564 21576052 21560802 
2647.026 21546282 21534512 21526644 21523788 21527130 21537646 21556588 
2650.401 21584688 21621882 21667052 21719054 21776846 21840186 21910122 
2653.777 21988644 22078090 22180804 22298160 22430548 22577948 22739856 
2657.152 22915724 23104908 23306864 23520456 23744304 23976704 24216026 
2660.527 24460738 24710114 24963280 25219580 25478208 25738188 25998042 
2663.902 26257242 26515608 26773390 27031112 27289060 27546384 27801422 
2667.278 28051520 28293700 28525222 28743806 28947836 29136122 29307546 
2670.653 29460918 29594906 29708816 29802564 29876988 29934492 29977590 
2674.028 30010218 30036066 30059002 30082972 30111808 30149026 30197650 
2677.403 30259530 30335242 30424186 30524700 30635300 30754392 30881094 
2680.779 31015520 31158034 31309958 31472698 31648182 31838640 32046736 
2684.154 32274914 32525212 32798414 33093884 33410202 33744660 34094244 
2687.529 34456564 34829624 35212244 35603076 36001316 36405580 36815124 
2690.904 37229388 37647768 38070244 38496784 38927044 39359836 39794000 
2694.280 40227908 40660576 41091932 41522360 41953732 42387756 42826204 
2697.655 43270224 43721032 44179132 44645684 45121672 45608668 46107820 
2701.030 46620240 47146556 47687300 48242648 48813196 49399500 50002352 
2704.405 50622132 51259532 51915200 52589732 53284644 54001608 54743020 
2707.781 55511040 56306936 57130972 57981912 58857512 59754728 60670184 
2711.156 61600828 62542952 63493000 64446628 65398536 66343084 67274672 
2714.531 68187840 69078456 69943336 70780744 71589944 72370832 73123928 
2717.906 73849488 74547736 75218192 75859192 76467272 77036904 77560984 
2721.281 78031000 78439448 78781184 79054808 79264344 79418664 79531032 
2724.657 79615760 79687520 79757992 79834400 79919344 80010240 80101200 
2728.032 80182968 80245464 80279464 80276712 80231232 80139976 80001992 
2731.407 79818472 79592520 79328168 79030128 78703176 78352176 77980800 
2734.782 77592240 77187992 76768064 76331120 75875088 75397584 74896224 
2738.158 74368936 73814216 73230232 72615120 71966608 71282480 70561384 
2741.533 69802888 69009080 68184272 67334648 66469444 65599688 64737864 
2744.908 63899012 63097940 62350100 61669448 61066704 60548772 60117796 
2748.283 59771916 59504656 59307256 59170124 59082424 59033984 59015876 
2751.659 59019828 59038804 59067692 59101328 59135532 59165456 59185236 
2755.034 59187664 59165756 59112528 59022556 58892840 58723140 58515324 
2758.409 58272332 57997096 57691532 57356164 56990484 56594200 56167316 
2761.784 55711208 55228744 54724304 54203596 53673124 53140604 52614304 
2765.160 52102208 51612020 51149072 50715960 50311740 49931576 49567560 
2768.535 49208232 48841672 48455120 48036752 47577748 47072732 46521572 
2771.910 45929600 45308608 44675944 44051864 43459844 42923016 42461812 
2775.285 42093968 41832332 41684304 41651772 41730440 41910672 42176880 
2778.661 42510012 42888780 43290468 43694172 44081016 44434368 44741096 
2782.036 44991592 45178360 45297172 45346784 45329056 45247820 45109208 
2785.411 44920744 44689828 44424424 44132476 43821848 43501668 43181868 
2788.786 42872576 42585548 42331688 42121020 41962452 41862796 41826676 
2792.162 41856336 41951212 42108240 42321496 42582916 42882160 43207560 
2795.537 43547196 43888228 44217908 44525180 44799208 45031284 45215424 
2798.912 45347592 45427052 45455156 45435360 45372016 45269960 45134468 
2802.287 44970020 44781464 44573496 44350616 44116996 43876868 43633464 
2805.663 43389756 43148380 42911348 42680508 42457464 42242572 42035560 
2809.038 41835104 41639044 41444460 41248172 41047096 40837704 40616700 
2812.413 40380820 40126900 39852360 39555664 39236324 38895008 38533388 
2815.788 38153584 37757524 37347128 36924564 36492280 36054024 35614588 
2819.164 35179656 34755640 34348676 33964488 33608132 33284694 32999064 
2822.539 32756180 32560814 32417200 32328844 32297936 32325882 32413020 
2825.914 32559100 32762430 33018872 33321504 33658972 34014972 34370840 
2829.289 34704816 34995736 35226440 35384108 35462552 35462048 35389496 
2832.665 35256516 35077412 34868904 34647756 34428688 34224832 34045900 
2836.040 33897708 33783232 33702404 33653136 33631728 33633872 33655212 
2839.415 33690228 33734380 33783084 33831512 33876464 33914080 33941560 
2842.790 33955744 33953348 33930344 33882772 33806116 33696244 33549496 
2846.166 33362650 33132896 32858770 32539460 32175314 31768158 31321782 
2849.541 30841252 30332896 29804376 29263380 28717750 28175422 27643656 
2852.916 27130316 26643404 26190366 25778902 25416092 25107964 24859414 
2856.291 24673708 24551362 24490396 24485312 24527100 24603640 24700784 
2859.667 24804296 24899832 24976124 25024806 25040704 25022804 24973212 
2863.042 24897062 24801734 24696364 24590562 24494076 24414540 24357622 
2866.417 24326188 24320722 24339434 24379806 24438374 24511500 24595190 
2869.792 24685002 24775776 24862078 24938082 24997884 25036844 25050288 
2873.167 25034632 24987566 24907554 24794474 24649580 24476232 24278040 
2876.543 24059802 23825608 23578736 23320918 23053506 22777076 22492516 
2879.918 22201796 21906880 21610144 21314064 21020096 20729664 20444500 
2883.293 20166426 19898348 19643540 19404680 19183888 18981936 18798380 
2886.668 18632262 18483394 18351616 18238158 18144488 18071528 18019408 
2890.044 17987324 17973406 17975858 17992608 18022378 18063274 18113258 
2893.419 18169086 18226614 18280972 18327214 18361122 18380062 18382482 
2896.794 18368586 18339726 18298666 18248870 18194620 18140998 18092496 
2900.169 18053430 18027146 18015264 18018684 18037404 18070942 18119200 
2903.545 18181732 18257714 18345912 18444154 18549644 18659172 18769940 
2906.920 18879282 18985224 19086276 19180806 19267494 19345330 19413478 
2910.295 19471658 19520314 19559618 19589774 19610710 19622116 19623918 
2913.670 19617366 19605336 19592096 19582632 19581974 19593690 19619930 
2917.046 19661324 19717768 19789998 19879548 19989240 20122764 20283688 
2920.421 20474298 20695746 20948078 21230062 21540640 21878236 22241098 
2923.796 22626640 23031846 23452324 23883472 24320650 24759920 25198266 
2927.171 25633364 26063548 26487292 26903308 27310160 27707256 28094538 
2930.547 28472786 28843366 29207738 29566884 29920720 30268590 30608528 
2933.922 30938126 31254694 31555816 31839210 32103776 32349050 32575816 
2937.297 32785658 32981332 33165906 33342828 33515386 33686648 33859196 
2940.672 34035184 34216084 34402364 34593248 34786512 34978640 35164816 
2944.048 35340112 35499692 35639296 35756208 35848068 35914032 35953624 
2947.423 35967624 35957944 35927708 35881752 35826116 35766856 35709652 
2950.798 35659188 35618292 35589016 35572796 35571864 35588944 35628544 
2954.173 35695156 35793336 35926844 36097804 36306796 36553188 36835072 
2957.549 37149328 37492636 37860548 38247692 38648800 39057712 39467556 
2960.924 39871716 40262260 40630592 40967856 41264348 41510364 41697652 
2964.299 41819272 41870568 41849404 41755828 41591892 41361284 41069456 
2967.674 40722804 40329116 39897796 39438308 38961036 38476184 37992776 
2971.050 37519256 37063072 36629680 36223948 35849076 35506664 35197476 
2974.425 34921360 34677468 34465420 34285280 34136932 34020348 33934428 
2977.800 33876536 33842220 33825884 33820264 33817472 33809552 33787960 
2981.175 33743692 33668208 33552398 33388912 33173562 32906484 32594028 
2984.551 32248326 31887778 31534258 31208302 30927844 30701688 30527578 
2987.926 30389536 30260240 30104350 29881746 29558054 29109122 28525824 
2991.301 27816364 27004456 26126636 25222036 24330708 23486950 22713950 
2994.676 22026288 21429236 20920750 20494514 20141854 19854158 19623086 
2998.052 19442168 19306844 19213428 19158538 19138074 19145034 19170002 
3001.427 19200858 19222848 19221984 19185030 19101648 18965910 18776202 
3004.802 18535260 18249422 17928342 17583762 17227662 16872406 16528318 
3008.177 16202901 15900617 15622760 15368593 15136189 14923593 14729849 
3011.552 14555414 14401393 14270060 14164235 14086670 14041152 14031637 
3014.928 14062028 14136267 14257220 14425850 14640601 14896571 15185597 
3018.303 15495521 15810750 16114071 16386362 16609589 16769217 16854666 
3021.678 16861556 16790466 16646840 16438011 16171433 15853981 15490954 
3025.053 15086649 14646461 14177209 13687808 13189839 12695033 12215307 
3028.429 11761201 11340727 10959737 10621726 10328119 10078082 9869032 
3031.804 9696774 9556288 9442326 9350907 9279039 9225492 9189888 9172426 
3035.661 9172121 9187384 9215068 9250708 9289159 9324095 9349180 9357712 
3039.519 9343256 9300737 9226880 9121497 8986711 8827923 8652022 8466022 
3043.376 8276421 8088860 7906611 7732871 7569584 7418830 7282211 7160929 
3047.234 7055407 6964859 6887662 6821450 6763460 6711199 6662745 6615946 
3051.091 6570430 6525557 6481396 6438652 6398030 6359866 6324328 6290575 
3054.948 6257329 6223345 6187584 6149741 6110759 6072318 6036165 6003946 
3058.806 5976937 5955337 5939280 5928666 5923291 5923056 5927793 5937164 
3062.663 5950567 5967631 5987485 6009960 6034519 6060054 6084918 6106525 
3066.521 6121613 6127494 6122554 6106827 6082701 6053838 6024238 5997832 
3070.378 5977205 5963164 5955975 5955337 5960610 5971696 5988963 6012715 
3074.236 6043322 6081256 6127191 6181399 6244488 6316125 6395810 6481867 
3078.093 6572448 6665471 6759994 6855682 6953513 7054531 7158941 7265600 
3081.950 7371814 7473098 7564998 7643834 7707676 7756583 7792879 7820070 
3085.808 7842336 7864063 7888964 7919872 7958646 8005590 8059695 8118568 
3089.665 8179035 8238295 8294252 8346705 8396563 8445954 8497309 8552523 
3093.523 8612511 8677779 8748703 8826130 8911622 9007108 9114730 9235308 
3097.380 9368919 9513544 9667128 9827071 9991243 10159173 10330664 10506126 
3101.238 10686379 10871667 11062032 11257239 11456856 11660000 11866102 
3104.613 12074106 12283096 12491846 12698956 12902786 13101486 13292318 
3107.988 13472468 13638912 13788627 13919814 14031501 14124081 14198639 
3111.363 14256090 14296940 14320260 14324198 14306186 14264137 14196722 
3114.739 14103750 13985475 13842979 13677345 13488907 13278414 13046715 
3118.114 12795109 12525403 12239436 11938706 11624094 11296142 10955489 
3121.489 10603526 10242959 9877675 9512054 9149685 8793738 8445075 8104186 
3125.346 7770885 7445828 7130512 6826970 6537229 6262236 6001595 5753902 
3129.204 5517088 5289559 5070296 4859889 4659196 4469374 4291448 4125804 
3133.061 3972595 3832076 3704501 3590394 3489610 3401773 3325574 3259068 
3136.919 3200551 3148182 3100859 3057879 3018306 2981305 2945943 2911317 
3140.776 2876761 2842774 2810257 2780678 2754868 2733261 2714989 2698985 
3144.634 2683682 2668313 2652878 2638077 2624809 2614108 2606175 2600742 
3148.491 2597475 2595909 2595342 2595208 2594809 2592642 2587776 2579142 
3152.348 2566510 2550812 2533681 2517184 2502854 2491590 2483159 2476794 
3156.206 2471729 2467497 2464431 2463465 2464798 2468396 2473861 2479793 
3160.063 2485458 2490623 2495889 2502320 2511252 2523083 2537713 2553878 
3163.921 2570543 2586409 2601208 2615009 2628142 2641177 2654245 2667013 
3167.778 2680015 2693084 2707221 2722791 2740597 2760336 2781811 2803854 
3171.635 2825798 2847343 2868789 2890870 2914219 2939271 2965959 2993550 
3175.493 3021175 3048169 3074162 3099290 3123619 3147448 3170778 3193374 
3179.350 3215038 3235433 3254495 3271554 3286244 3297361 3304105 3305441 
3183.208 3300833 3290016 3273223 3250890 3223383 3191405 3155592 3117144 
3187.065 3077366 3038058 3000522 2965792 2933900 2903812 2874726 2845776 
3190.923 2816727 2788114 2760803 2735228 2711722 2689217 2666546 2643043 
3194.780 2618742 2594709 2572210 2552978 2537114 2524016 2511818 2498188 
3198.637 2481992 2462732 2441506 2419981 2400023 2382332 2367173 2353947 
3202.495 2341488 2329362 2316804 2303546 2289023 2272602 2253450 2231202 
3206.352 2206358 2179949 2153976 2130600 2110856 2095340 2083587 2074099 
3210.210 2066042 2058551 2051660 2045568 2040641 2036846 2033750 2031187 
3214.067 2028890 2027358 2026826 2027991 2030621 2034183 2037179 2038511 
3217.925 2037678 2034982 2031487 2028757 2027891 2029323 2032885 2037845 
3221.782 2043504 2049397 2055722 2062646 2070137 2077828 2084919 2090646 
3225.639 2094441 2096339 2096772 2096639 2096572 2097504 2099835 2104530 
3229.497 2112421 2124341 2140756 2160735 2182780 2203860 2220878 2231235 
3233.354 2234000 2229670 2220611 2209255 2197865 2187708 2178984 2171424 
3237.212 2165064 2160402 2158637 2160902 2168094 2179583 2194169 2210021 
3241.069 2225507 2239662 2252817 2265641 2279264 2294252 2310375 2327064 
3244.927 2343120 2357379 2368972 2377201 2381332 2380899 2375635 2365641 
3248.784 2351649 2335525 2318802 2303180 2289623 2278064 2268239 2259346 
3252.641 2251119 2243825 2238229 2234333 2232168 2230636 2228171 2223209 
3256.499 2214916 2203394 2189873 2176120 2163699 2153576 2146217 2141455 
3260.356 2139091 2139025 2140956 2144652 2149547 2154275 2157772 2159403 
3264.214 2158904 2157339 2156340 2157705 2162666 2171591 2183879 2198365 
3268.071 2213718 2228738 2242293 2253384 2260977 2263442 2260178 2250952 
3271.928 2236265 2218114 2198531 2179416 2161534 2145318 2129701 2114219 
3275.786 2098903 2084819 2073533 2066808 2065543 2069471 2077461 2087982 
3279.643 2099236 2111022 2123108 2135961 2149480 2163199 2176253 2187742 
3283.501 2197666 2206957 2217048 2229670 2245890 2265674 2288057 2311940 
3287.358 2336358 2361943 2389861 2421813 2458833 2500188 2543613 2585176 
3291.216 2620675 2646911 2662312 2666880 2662579 2651744 2637010 2620442 
3295.073 2603475 2586809 2570676 2555345 2540580 2526515 2513385 2501687 
3298.930 2492356 2486991 2486624 2492723 2505686 2525116 2550078 2578909 
3302.788 2609775 2641177 2671347 2698752 2721191 2736729 2743197 2739363 
3306.645 2724958 2700986 2669413 2633076 2594175 2554911 2516417 2479593 
3310.503 2444771 2413117 2385264 2362376 2344753 2332260 2324332 2319968 
3314.360 2318736 2320301 2325365 2334226 2347551 2364941 2385164 2406920 
3318.218 2428477 2448936 2467597 2484792 2501321 2518184 2536047 2555811 
3322.075 2577876 2602842 2630242 2659779 2689850 2718190 2742797 2761437 
3325.932 2773008 2777943 2777977 2775742 2774042 2775642 2782245 2794750 
3329.790 2813092 2837004 2865487 2897040 2930464 2963690 2994817 3022643 
3333.647 3046300 3066254 3083906 3101460 3120649 3142675 3167240 3192874 
3337.505 3217040 3237570 3252325 3260604 3262741 3259636 3253093 3244714 
3341.362 3235567 3226020 3216006 3205391 3193575 3180524 3166138 3150819 
3345.219 3135233 3119814 3105264 3091815 3079769 3069157 3060047 3051939 
3349.077 3044298 3035789 3025146 3010298 2990380 2964658 2933733 2899642 
3352.934 2865087 2832969 2805788 2784879 2770140 2760370 2753934 2749199 
3356.792 2745131 2741030 2736895 2732227 2726459 2718624 2707587 2692684 
3360.649 2673781 2652111 2629409 2607842 2589509 2575709 2567343 2564277 
3364.507 2565844 2571043 2578643 2587142 2594842 2600008 2600642 2595475 
3368.364 2583709 2565577 2541946 2514551 2485691 2456934 2429877 2405287 
3372.221 2383032 2362176 2341655 2320435 2297950 2274900 2252384 2232268 
3376.079 2216615 2206691 2202594 2203727 2208156 2213618 2217881 2219712 
3379.936 2218447 2214384 2208123 2200596 2192437 2184412 2176985 2170892 
3383.794 2166729 2165064 2166263 2170558 2177685 2188141 2202661 2222310 
3387.651 2248288 2281362 2320668 2363609 2405687 2441572 2465897 2475128 
3391.509 2467463 2444805 2411085 2371571 2332027 2297384 2270803 2254283 
3395.366 2247988 2251552 2263775 2283360 2308309 2336891 2366540 2394426 
3399.223 2417282 2431909 2435575 2426645 2405021 2372504 2332560 2289956 
3403.081 2249753 2216349 2192337 2178617 2173922 2176186 2182547 2190772 
3406.938 2199397 2207856 2215849 2223575 2230736 2237397 2243192 2248321 
3410.796 2252817 2257347 2261844 2266273 2269637 2270803 2268438 2262143 
3414.653 2251885 2238862 2224708 2211453 2200563 2193136 2189673 2189940 
3418.510 2193003 2197899 2203360 2208189 2211520 2213118 2213451 2213484 
3422.368 2214717 2218613 2225807 2236564 2249720 2263775 2276899 2287391 
3426.225 2294885 2299349 2301414 2302280 2302780 2303346 2303979 2304479 
3430.083 2304046 2302447 2299649 2295652 2291488 2287890 2285759 2285625 
3433.940 2287291 2290122 2293220 2295285 2295418 2293420 2289723 2285026 
3437.798 2280363 2276432 2272802 2269005 2263909 2256848 2247755 2237497 
3441.655 2227505 2219646 2215616 2215583 2219246 2224941 2230869 2234899 
3445.512 2235598 2232135 2224908 2214816 2203793 2193969 2187342 2185211 
3449.370 2188274 2195867 2206158 2216848 2225740 2230603 2230370 2225374 
3453.227 2216515 2204926 2192504 2180182 2169127 2159736 2152610 2147915 
3457.085 2145384 2144485 2144019 2142687 2139424 2133797 2126804 2119912 
3460.942 2115251 2114418 2118214 2126039 2136161 2146517 2155574 2162467 
3464.800 2167328 2171058 2174321 2177285 2179416 2179650 2176985 2170991 
3468.657 2162000 2151445 2140956 2131832 2124907 2120212 2116816 2113952 
3472.514 2110523 2106794 2102831 2099535 2097637 2097671 2099602 2102499 
3476.372 2105096 2106161 2104430 2099535 2091944 2082655 2073000 2064378 
3480.229 2057686 2052959 2049630 2046766 2043204 2038644 2032785 2026626 
3484.087 2020568 2014909 2009782 2004656 1999097 1992573 1985383 1977661 
3487.944 1969972 1963282 1957757 1953996 1951999 1952398 1955094 1960286 
3491.802 1967342 1975431 1982654 1987447 1988346 1984884 1977561 1967609 
3495.659 1956692 1945741 1935257 1925206 1914923 1904240 1893524 1883474 
3499.516 1875387 1870196 1868133 1868898 1871394 1874622 1877883 1880612 
3503.374 1882975 1885138 1887101 1888532 1889231 1889031 1887767 1885570 
3507.231 1882442 1877850 1871094 1861411 1848633 1833493 1817721 1803547 
3511.089 1793033 1787045 1785181 1785880 1786246 1784416 1779326 1771541 
3514.946 1762691 1754973 1750083 1748718 1750315 1754041 1758533 1762991 
3518.803 1766850 1770044 1771840 1771341 1767316 1758732 1744959 1726596 
3522.661 1705273 1683119 1662564 1645468 1632630 1623783 1618229 1614770 
3526.518 1612176 1609682 1606489 1602465 1597876 1592987 1589229 1587134 
3530.376 1587832 1591557 1597876 1605292 1612309 1616932 1617597 1613440 
3534.233 1604194 1590260 1572535 1552450 1531601 1511950 1495791 1484520 
3538.091 1478935 1478901 1483024 1489075 1494860 1498983 1501044 1501543 
3541.948 1501676 1502773 1505234 1507993 1509224 1506663 1497853 1481993 
3545.805 1459818 1433688 1407360 1384556 1368668 1361289 1362718 1370895 
3549.663 1382429 1393232 1399282 1397487 1387382 1370762 1350852 1332439 
3553.520 1319212 1312565 1311834 1313795 1314991 1312000 1303525 1290598 
3557.378 1275776 1262550 1253777 1250488 1252681 1258330 1265773 1273450 
3561.235 1281525 1290631 1301797 1315888 1331808 1347662 1359926 1364148 
3565.093 1356636 1334400 1297111 1246965 1189582 1132539 1083707 1049562 
3568.950 1033519 1035745 1052883 1079555 1109683 1137123 1157421 1168451 
3572.807 1170079 1164465 1154531 1143668 1134067 1126924 1122008 1117889 
3576.665 1113603 1107890 1100349 1091480 1082777 1075768 1071882 1072513 
3580.522 1078027 1088225 1102707 1120579 1140777 1162372 1183834 1203138 
3584.380 1217326 1222841 1215432 1192572 1153468 1101379 1042919 987157 
3588.237 943854 919481 916426 932032 960590 994031 1024452 1045974 1054145 
3592.577 1047967 1028438 999610 966169 933859 907229 889067 880401 879538 
3596.916 883755 889332 892487 891125 884253 873097 860215 848662 841558 
3601.256 841060 847799 861245 880202 903045 928214 954380 979817 1002101 
3605.595 1018707 1026312 1022493 1006153 978921 944949 911080 884087 869379 
3609.935 868681 879372 896172 912043 920377 917256 902481 879272 853509 
3614.275 831698 818585 816128 823000 834851 845840 849326 839831 814800 
3618.614 775797 728831 683230 650211 637768 650908 688739 745758 814004 
3622.954 884651 950993 1009208 1058696 1100914 1137555 1168219 1187854 
3626.811 1188319 1158684 1092211 989880 866191 744530 650776 600804 596391 
3631.151 627315 678087 732382 778153 808626 823963 828710 829540 832461 
3635.490 840296 852745 867055 880302 890495 897500 902481 906664 910981 
3639.830 915397 919381 922868 927052 934589 948967 973010 1008477 1053846 
3644.170 1105830 1158319 1204766 1238525 1254176 1247696 1218057 1165993 
3648.027 1094968 1010337 919581 831830 756777 703972 680609 689270 728200 
3652.367 790203 865693 941861 1006418 1048698 1060821 1041125 995127 934954 
3656.706 875155 828544 802286 796676 806734 824992 844877 861577 873031 
3661.046 879704 883921 888370 895242 905635 920012 937677 957834 979253 
3665.385 1000905 1021662 1039697 1052883 1057467 1048964 1023024 977161 
3669.243 913504 841192 776693 736332 733544 771349 841923 928181 1006950 
3673.583 1055474 1053514 992204 879638 743468 619385 536274 505422 519122 
3677.922 559895 608137 650145 679845 698530 711871 726507 746919 774104 
3682.262 806767 842919 882360 926487 976862 1032955 1090483 1140910 1173435 
3686.601 1177023 1145329 1079156 988750 890295 800825 731619 686350 661660 
3690.941 651605 652003 661162 680078 709515 748546 793024 837839 876749 
3695.281 905834 924229 934489 941429 949432 961520 977592 994761 1008079 
3699.620 1013293 1006551 986957 956074 917987 879073 845342 822568 814634 
3703.960 822967 847035 883257 927118 973209 1016349 1053215 1082079 1102874 
3708.299 1116394 1123170 1122373 1111942 1089055 1052252 1003230 948469 
3712.157 896670 858057 839798 844114 868482 906166 949167 990112 1023223 
3716.496 1046240 1059160 1064541 1064807 1062482 1058264 1051289 1039996 
3720.354 1023356 1001636 977127 953815 935220 923565 918717 918086 916924 
3724.693 910914 897666 877944 856331 839732 835449 848297 878774 922901 
3729.033 973176 1020367 1055607 1073377 1072048 1054677 1027707 998249 
3732.890 970187 942625 909586 864565 804410 732681 660797 604055 576683 
3737.230 584778 625789 690598 768428 850654 932530 1013725 1094370 1172173 
3741.570 1239655 1282622 1281990 1221313 1095366 921274 738622 598216 535909 
3745.909 558136 645931 767631 891424 989381 1045044 1052352 1016481 950628 
3750.249 871205 792427 723321 670056 637701 631131 653530 703840 775763 
3754.588 858124 937810 1003629 1048133 1069424 1071417 1061253 1045642 
3758.446 1029235 1013260 997252 981710 969722 966401 976629 1002267 1040262 
3762.785 1082976 1120712 1144797 1151142 1141375 1122340 1103571 1092609 
3766.643 1091546 1096861 1101080 1096396 1077263 1043251 998581 952056 
3770.500 912475 886643 877612 885049 905436 934257 967132 999843 1029501 
3774.840 1054809 1075270 1091812 1104601 1113470 1116460 1111411 1095931 
3778.697 1070055 1036608 1002101 974238 960158 962483 979983 1007315 1037173 
3783.037 1062781 1079721 1086331 1084139 1075735 1064674 1053082 1042753 
3786.894 1034649 1029966 1029733 1034350 1043018 1053846 1063346 1069158 
3790.752 1070288 1068926 1068926 1075270 1091015 1115430 1143867 1168917 
3794.609 1183170 1181841 1165528 1140877 1118918 1109783 1119782 1147787 
3798.467 1186226 1222077 1240153 1227759 1178086 1095466 995293 902115 
3802.324 839831 822071 849890 911545 989415 1061851 1109451 1119649 1089321 
3806.664 1027773 954546 892918 858954 858423 886544 932630 985629 1037804 
3811.003 1086863 1134665 1184864 1238857 1294353 1343972 1377576 1385055 
3814.861 1361788 1311900 1250255 1197024 1169182 1174531 1208288 1256103 
3818.718 1298008 1315091 1292791 1226663 1125230 1009573 908158 842786 
3822.575 823564 845209 893217 949034 996754 1026711 1036575 1031360 1020998 
3826.915 1016415 1025216 1048598 1082212 1118520 1149614 1170079 1178452 
3830.772 1176857 1170511 1164996 1164830 1172206 1187522 1208454 1231547 
3834.630 1251850 1263713 1260257 1236299 1189150 1121310 1040129 958697 
3838.487 889864 843649 823498 826486 845674 872068 898596 920743 936947 
3842.827 948137 957335 967995 983271 1006252 1038302 1079588 1128917 1183236 
3847.167 1239555 1294984 1348360 1400911 1454964 1511751 1570374 1623184 
3851.024 1656011 1649492 1582778 1444525 1242479 1009906 794452 639560 
3854.881 567028 572336 634814 728797 833192 932198 1017411 1085700 1137455 
3859.221 1174565 1199450 1214468 1222542 1226330 1228091 1228822 1227061 
3863.078 1220183 1206162 1185196 1162604 1147222 1149050 1174565 1222542 
3866.936 1283519 1341181 1377643 1377775 1334899 1255705 1159182 1070919 
3870.793 1010304 984998 988883 1008411 1027641 1035977 1030563 1016382 
3874.651 1004160 1004459 1024120 1063479 1116925 1174598 1226563 1263481 
3878.508 1278634 1270093 1240054 1197091 1152272 1118819 1106428 1118719 
3882.365 1151973 1195662 1236133 1258396 1251617 1212906 1150345 1081415 
3886.223 1026777 1003529 1017511 1063479 1126791 1190114 1236930 1254874 
3890.080 1239721 1195529 1134499 1071683 1022194 995459 994031 1014920 
3893.938 1052185 1099220 1150312 1201012 1248527 1289866 1322369 1343474 
3897.795 1351118 1344205 1324396 1295416 1262317 1230617 1204201 1183801 
3901.653 1167687 1152006 1133004 1108886 1080751 1052019 1028238 1014555 
3905.510 1014057 1027010 1051222 1083541 1120347 1157953 1193569 1224802 
3909.367 1249756 1266903 1276042 1278135 1275942 1273682 1275809 1285147 
3913.225 1302628 1325792 1349390 1366973 1373355 1365743 1345169 1316586 
3917.082 1286510 1261387 1245603 1239455 1241682 1248926 1258263 1267933 
3920.940 1277371 1286709 1295848 1304190 1310205 1312831 1311402 1306716 
3924.797 1300734 1296014 1294885 1298274 1306084 1316320 1328351 1340017 
3928.655 1350520 1359029 1364613 1365544 1360558 1348227 1329116 1305685 
3932.512 1282555 1265042 1257765 1262683 1278435 1301498 1326058 1347429 
3936.369 1362286 1370430 1373521 1375183 1378806 1386318 1397454 1410252 
3940.227 1421354 1427704 1426673 1417897 1402539 1383127 1363549 1347462 
3944.084 1338023 1336926 1344205 1357965 1375283 1392035 1404434 1410152 
3947.942 1408190 1400213 1389010 1378507 1370895 1367638 1368601 1372324 
3951.799 1376845 1381232 1385022 1389110 1394396 1401442 1410318 1420357 
3955.656 1430596 1439838 1447949 1454765 1461081 1467564 1474346 1481295 
3959.514 1487745 1492898 1496090 1497587 1497088 1495326 1492533 1488610 
3963.371 1483689 1477671 1470556 1462843 1455064 1448382 1443894 1442630 
3967.229 1445124 1451241 1460184 1470490 1480431 1488211 1492832 1494029 
3971.086 1492433 1489507 1486914 1486016 1487047 1489740 1492865 1495093 
3974.944 1495924 1495558 1495159 1496024 1499149 1504702 1512017 1519265 
3978.801 1524951 1527977 1528209 1526314 1523687 1521759 1521094 1521792 
3982.658 1523089 1523787 1523421 1521925 1519997 1519066 1520429 1525483 
3986.516 1534627 1547096 1561628 1576293 1588597 1597044 1600569 1599838 
3990.373 1596113 1591757 1588664 1588697 1592089 1597643 1603862 1608784 
3994.231 1610779 1609715 1606256 1601667 1597543 1594949 1594118 1594849 
3998.088 1596446 1598075 1599439 1599871 1599106 1596944 
##END=
