##TITLE=1706e_3_a
##JCAMP-DX=5.01  $$ Nicolet v. 1
##DATATYPE=INFRARED SPECTRUM
##ORIGIN=UniL
##OWNER=Nicolet
##LONGDATE=2011/09/29
##TIME=12:50:20
##SPECTROMETER/DATA SYSTEM=Nicolet iS5
##DATA PROCESSING=
Ratio against background
%Transmittance->Absorbance
Truncated
ElementMultiply or ElementDivide
##COMMENTS=
Number of sample scans: 32
Collection length: 51.21 sec
Sample gain: 2.0
Background collected on: Jeu Sep 29 12:48:18 2011 (GMT+02:00);
Number of background scans: 32
Background gain: 2.0
Sample spacing:  1.000
Number of scan points: 12415
Resolution points: 8192
Number of FFT points: 65536
Apodization: N-B fort;
Phase correction: Mertz;
Laser frequency: 15798.0 cm-1
Number of rejected sample scans: 0
Number of rejected background scans: 0
Bench serial number: ASB1000141;
##RESOLUTION=4.000
##XUNITS=1/CM
##YUNITS=ABSORBANCE
##FIRSTX=649.893372
##LASTX=4000.122314
##FIRSTY=0.030806
##MAXX=4000.122314
##MINX=649.893372
##MAXY=0.298302
##MINY=-0.002271
##XFACTOR=1.000000
##YFACTOR=1.000000E-009
##NPOINTS=6950
##DELTAX=0.482117
##ZPD=6100
##XYDATA=(X++(Y..Y))
649.893 30805752 30088618 29548690 29165780 28922122 28799212 28767948 
653.268 28787564 28811922 28800912 28736902 28629050 28510680 28418696 
656.643 28380104 28398532 28456512 28526284 28585520 28628236 28664586 
660.018 28712902 28786890 28889364 29011804 29143740 29280218 29427232 
663.393 29598488 29806896 30053960 30327068 30598856 30836842 31011856 
666.767 31111438 31151306 31177970 31250990 31405158 31638988 31922936 
670.142 32223310 32513212 32776438 33005822 33198666 33355314 33479556 
673.517 33579456 33667168 33756656 33862136 33992616 34150088 34329852 
676.892 34523032 34722044 34921216 35119116 35314988 35506664 35688864 
680.267 35855048 36002040 36133124 36260328 36401440 36573628 36789232 
683.642 37051960 37357708 37699300 38071616 38475172 38916280 39403512 
687.016 39945524 40549684 41223944 41979424 42834692 43813640 44944368 
690.391 46258584 47787860 49571424 51664712 54138360 57089520 60637648 
693.766 64908392 70040624 76176424 83449144 91983120 101851088 113020024 
697.141 125241544 137961776 150295904 160952144 168499984 171679136 
700.034 169684480 162510576 150940080 136389680 120457648 104663848 90228256 
703.408 77855720 67840512 60119280 54404096 50299352 47399696 45369516 
706.783 43925000 42846612 41973804 41176876 40370496 39516544 38619756 
710.158 37720516 36873952 36133632 35531188 35074644 34754600 34555572 
713.533 34465456 34476864 34584780 34780124 35045192 35359088 35701956 
716.908 36064032 36449468 36873920 37356152 37909172 38535272 39227512 
720.282 39976184 40777100 41637584 42573264 43603716 44740728 45981720 
723.657 47306984 48685080 50079912 51457748 52797352 54090504 55343560 
727.032 56573668 57810032 59092368 60466960 61989552 63718936 65706104 
730.407 67993928 70609376 73565456 76868984 80528584 84563672 89009400 
733.782 93914408 99332728 105316024 111900400 119100880 126906888 135286368 
737.156 144186496 153530576 163229056 173170976 183233888 193315136 
740.049 203353360 213369168 223468160 233821840 244578208 255745504 
742.942 267065168 277936192 287483936 294608224 298301504 297909440 
745.835 293245568 284619840 272649440 258069392 241523696 223531072 
748.727 204533184 184941600 165222176 145916688 127552240 110638872 95599848 
752.102 82700208 72107528 63895404 58074656 54641552 53565608 54760236 
755.477 58009516 62911808 68874520 75067320 80583152 84583320 86393808 
758.852 85690232 82506608 77204256 70335016 62540048 54457504 46600576 
762.227 39379496 33082336 27857026 23741574 20660858 18458882 16920738 
765.601 15826009 15002541 14333615 13772722 13319411 12987376 12777092 
768.976 12665727 12612273 12578471 12544535 12514558 12508351 12544706 
772.351 12626804 12737920 12848040 12929616 12972765 12987956 13000316 
775.726 13032887 13096126 13182017 13271513 13346130 13399708 13442596 
779.101 13495025 13574979 13686782 13819239 13951395 14064629 14151979 
782.475 14221715 14290502 14374061 14475998 14587177 14690192 14771807 
785.850 14829950 14876855 14930623 15006965 15108743 15225573 15339347 
789.225 15435056 15510148 15575329 15649140 15746532 15871989 16016975 
792.600 16166687 16309328 16444927 16586594 16756646 16975588 17256138 
795.975 17601668 18009980 18479556 19011844 19606584 20252026 20912510 
799.350 21530370 22026636 22323204 22368448 22149388 21700384 21089516 
802.724 20405810 19730700 19121836 18613518 18217286 17933280 17757898 
806.099 17687316 17714030 17823486 17993782 18197902 18408062 18604042 
809.474 18772224 18904198 18992944 19028530 18999658 18900046 18733682 
812.849 18518868 18284220 18062962 17880278 17745784 17653602 17587970 
816.224 17533700 17482886 17438698 17410832 17408072 17431146 17472192 
819.598 17517314 17555884 17585556 17613744 17652462 17712200 17794314 
822.973 17891120 17989430 18077712 18153402 18223056 18298666 18390088 
826.348 18500370 18623444 18749044 18868726 18981658 19095660 19223714 
829.723 19376200 19556672 19760660 19979696 20207522 20445020 20700402 
833.098 20985042 21305536 21658100 22026252 22384426 22706932 22972628 
836.473 23170398 23299488 23366896 23383714 23362840 23320708 23276064 
839.847 23248624 23257398 23313332 23416480 23554772 23710638 23867682 
843.222 24019076 24171676 24343500 24556690 24827416 25161924 25555902 
846.597 26001348 26493068 27034710 27637654 28315732 29076458 29914862 
849.972 30811762 31739640 32670542 33582644 34464988 35316032 36138888 
853.347 36936180 37707796 38450444 39161300 39838920 40484104 41096848 
856.721 41672852 42200760 42664536 43044940 43326376 43500312 43565912 
860.096 43527820 43392244 43164188 42847236 42446360 41972128 41442160 
863.471 40880296 40313664 39764948 39249452 38774496 38341636 37951300 
866.846 37606040 37310224 37067984 36878712 36735216 36623952 36528972 
870.221 36437864 36343324 36244084 36141480 36034980 35919288 35784880 
873.596 35621024 35419804 35179836 34905560 34604012 34281156 33939336 
876.970 33577668 33195376 32796874 32392778 32000792 31641376 31331364 
880.345 31082428 30898740 30779396 30720356 30715592 30755850 30824674 
883.720 30895468 30934960 30903152 30765488 30500706 30104848 29592706 
887.095 28992818 28341762 27674378 27021064 26408340 25856472 25383352 
890.470 25002692 24720072 24530678 24417202 24354434 24311400 24259192 
893.844 24177140 24052588 23881160 23663856 23405114 23111792 22793628 
897.219 22465474 22144924 21850082 21596144 21390736 21232532 21114004 
900.594 21025452 20959972 20915498 20894568 20901244 20936640 20998152 
903.969 21079014 21172936 21277246 21395364 21535974 21709372 21925002 
907.344 22188860 22504242 22875592 23311480 23825816 24436866 25159924 
910.719 26001066 26948784 27971118 29014602 30004642 30861494 31504762 
914.093 31867522 31913914 31644654 31104142 30371272 29556492 28780696 
917.468 28149296 27747980 27624412 27788034 28217108 28867868 29686678 
920.843 30610234 31573738 32510676 33349090 34024148 34481812 34687696 
924.218 34635444 34346308 33864752 33243664 32537640 31792436 31038298 
927.593 30294880 29573588 28880902 28221208 27596306 27004844 26443202 
930.967 25907608 25397122 24917168 24478302 24093494 23774120 23524830 
934.342 23342596 23218072 23140308 23100120 23092120 23114168 23164108 
937.717 23237404 23326966 23424104 23522626 23621416 23724846 23840134 
941.092 23973134 24124948 24291216 24463788 24634816 24800226 24961454 
944.467 25123200 25290484 25465210 25645066 25825210 26001876 26174988 
947.841 26348978 26531774 26730258 26947692 27182730 27430498 27687232 
951.216 27951542 28227008 28519384 28834264 29174002 29537128 29919974 
954.591 30320284 30739774 31185126 31665504 32189660 32763432 33388234 
957.966 34063892 34791428 35575888 36427416 37359224 38382900 39506960 
961.341 40735104 42068780 43510676 45068960 46758000 48598548 50613084 
964.716 52821408 55238976 57873668 60726008 63787512 67039220 70449264 
968.090 73965832 77519944 81025952 84380064 87478880 90221816 92517728 
971.465 94298840 95516808 96143920 96172080 95609088 94478704 92817952 
974.840 90680640 88134184 85250912 82109888 78786664 75346976 71853224 
978.215 68360704 64918012 61572572 58364344 55325116 52480020 49846420 
981.590 47439092 45274520 43370640 41745944 40413184 39370028 38592740 
984.964 38029736 37609940 37242420 36832944 36304780 35604876 34719352 
988.339 33674048 32530748 31372462 30282304 29334912 28576496 28021480 
991.714 27655980 27447580 27357690 27350986 27404804 27507162 27653438 
995.089 27841482 28066684 28321852 28599640 28895348 29209438 29547128 
998.464 29916282 30323694 30771782 31258292 31776748 32318924 32875172 
1001.839 33436220 33993616 34539356 35068288 35580276 36082356 36588332 
1005.213 37116736 37687340 38313768 39001996 39748972 40546920 41387488 
1008.588 42267988 43192776 44173996 45227888 46370348 47617492 48984852 
1011.963 50488904 52152496 54003184 56071544 58389512 60983268 63869612 
1015.338 67051828 70517072 74231960 78135752 82144440 86146880 90009056 
1018.713 93601248 96805032 99535192 101756968 103484280 104775256 105707464 
1022.087 106365952 106819752 107108408 107246824 107227872 107034504 
1024.980 106646136 106042888 105203872 104099096 102689096 100927104 
1027.873 98764584 96170632 93144384 89726768 85997648 82072224 78087600 
1031.249 74172528 70444856 66994412 63872488 61099920 58668256 56551096 
1034.624 54712540 53117908 51740440 50561188 49568528 48755400 48114660 
1037.999 47639196 47322800 47161992 47159076 47322800 47668700 48216096 
1041.374 48985816 49996368 51255804 52752376 54440828 56238100 58007852 
1044.750 59569868 60734964 61317408 61187880 60306848 58736948 56637496 
1048.125 54223640 51745328 49422516 47415328 45823064 44676568 43962432 
1051.500 43643024 43679260 44040568 44708704 45679632 46959596 48565048 
1054.875 50519240 52850336 55582096 58719268 62228788 66018476 69935400 
1058.250 73744000 77153520 79864144 81583776 82107128 81354904 79391936 
1061.626 76419304 72732112 68688656 64619884 60800436 57425176 54583952 
1065.001 52285856 50479672 49088608 48029272 47229032 46635508 46207060 
1068.376 45909712 45714932 45595792 45531648 45511152 45530988 45593508 
1071.751 45701644 45855580 46051416 46285124 46556832 46875692 47260288 
1075.127 47738484 48339444 49091132 50017224 51132968 52443788 53937412 
1078.502 55577804 57289884 58953252 60418140 61504348 62040388 61904112 
1081.877 61038288 59475172 57324176 54760576 51981932 49172052 46491660 
1085.252 44049848 41908808 40092888 38594660 37385728 36423852 35664224 
1088.628 35063044 34583488 34201672 33903692 33683820 33539366 33467070 
1092.003 33461128 33515778 33627964 33800852 34044360 34373172 34802020 
1095.378 35341908 35999624 36777620 37676568 38695052 39826280 41051612 
1098.753 42330448 43600416 44775148 45751416 46434396 46746044 46643920 
1102.129 46130112 45249804 44084172 42729680 41294592 39881304 38572712 
1105.504 37437084 36518516 35838568 35402408 35203264 35230500 35472976 
1108.879 35920404 36557408 37352544 38253264 39180116 40028028 40690812 
1112.254 41070840 41101436 40762576 40081660 39127432 37987568 36760492 
1115.630 35534928 34376972 33335458 32437190 31691130 31092822 30627192 
1119.005 30274238 30011070 29817896 29680362 29589018 29538298 29523190 
1122.380 29536490 29569296 29611718 29655848 29698138 29739330 29782834 
1125.755 29830920 29882738 29933606 29977128 30007378 30022290 30024030 
1129.131 30017142 30005532 29990406 29969318 29938220 29894026 29836990 
1132.506 29770910 29701330 29632896 29566566 29500530 29431204 29356892 
1135.881 29279508 29204796 29139240 29087616 29049744 29021510 28996006 
1139.256 28968202 28937104 28906150 28880864 28865958 28862132 28866100 
1142.632 28872792 28878174 28882034 28888478 28903530 28931862 28974470 
1146.007 29028240 29088184 29150120 29213408 29280928 29356678 29443544 
1149.382 29540072 29641694 29742488 29839084 29933108 30031024 30141498 
1152.757 30272852 30430404 30616916 30835488 31093320 31402736 31781208 
1156.133 32244436 32800198 33441480 34144532 34869980 35567256 36189736 
1159.508 36699588 37078592 37332936 37493864 37613192 37748636 37957408 
1162.883 38277544 38715372 39239412 39781944 40255568 40563944 40632448 
1166.258 40425696 39954896 39275276 38471440 37642892 36875180 36232232 
1169.634 35751852 35445004 35305176 35315456 35455864 35704976 36042860 
1173.009 36453040 36922724 37444924 38019500 38651480 39348876 40118944 
1176.384 40966328 41892280 42895620 43975228 45131376 46365740 47680164 
1179.759 49074212 50543804 52081516 53677696 55322972 57008204 58725036 
1183.135 60463840 62211276 63952372 65670452 67352824 68994552 70600760 
1186.510 72184528 73760496 75336208 76900944 78419688 79825472 81026752 
1189.885 81918152 82384696 82330344 81689144 80436112 78596744 76244784 
1193.260 73498504 70494504 67381536 64300412 61358584 58635604 56177496 
1196.635 54001644 52109832 50494304 49143888 48044484 47178796 46527140 
1200.011 46066632 45776192 45639736 45646688 45792392 46074844 46491256 
1203.386 47036580 47703796 48485536 49377928 50380312 51494044 52718780 
1206.761 54047836 55464352 56943492 58450804 59946816 61393196 62750332 
1210.136 63981088 65053352 65937444 66610956 67061952 67290928 67312632 
1213.512 67154344 66855684 66460600 66015428 65569476 65169028 64860688 
1216.887 64690216 64695716 64907588 65344036 66009180 66896380 67991376 
1220.262 69278176 70740416 72362464 74128944 76020440 78012880 80078488 
1223.637 82184632 84298224 86387864 88421568 90369968 92204968 93899720 
1227.013 95433504 96794552 97984760 99022056 99940944 100790520 101623304 
1230.388 102494432 103453744 104538768 105777760 107185712 108764800 
1233.281 110503088 112374560 114342336 116355760 118358152 120291128 
1236.174 122091536 123697584 125046848 126068400 126688864 126830072 
1239.067 126410704 125362800 123635568 121205472 118081656 114305952 
1241.960 109950576 105106960 99889520 94427392 88848936 83287688 77863288 
1245.335 72667872 67772224 63217884 59022824 55191608 51718044 48589432 
1248.711 45785912 43281608 41045384 39042740 37242964 35620988 34158404 
1252.086 32842688 31662688 30605006 29654996 28796734 28017060 27309066 
1255.461 26671416 26105876 25613856 25192542 24834398 24529870 24270228 
1258.836 24050908 23872198 23736850 23646466 23598886 23587866 23605638 
1262.212 23646570 23709590 23798062 23917848 24073042 24263466 24484646 
1265.587 24730280 24996340 25283178 25595718 25940740 26323314 26744494 
1268.962 27201532 27689988 28208196 28759524 29352496 29997790 30705030 
1272.337 31480320 32326098 33243664 34236880 35313728 36486840 37770860 
1275.713 39178268 40717524 42392620 44204408 46152888 48237612 50456672 
1279.088 52802028 55255988 57790952 60366428 62934288 65446144 67850776 
1282.463 70100896 72153384 73963512 75489152 76689544 77526120 77969224 
1285.838 77999840 77611456 76809624 75610640 74037968 72118952 69887064 
1289.214 67382664 64651340 61748812 58736300 55672444 52616440 49620448 
1292.589 46727560 43978344 41406840 39040168 36898700 34991136 33314600 
1295.964 31855792 30596260 29516522 28598862 27829258 27194758 26680434 
1299.339 26269878 25944820 25688830 25491384 25348822 25263650 25240720 
1302.715 25283984 25394242 25569606 25809106 26115658 26497612 26968422 
1306.090 27540452 28219972 29000966 29862898 30769934 31670100 32505036 
1309.465 33211078 33725748 34000964 34008092 33747632 33251818 32584886 
1312.840 31834186 31087092 30424576 29902084 29544398 29352354 29311374 
1316.216 29403654 29613846 29932896 30354676 30871276 31471022 32138672 
1319.591 32857768 33616188 34406128 35222700 36060036 36906780 37743284 
1322.966 38545808 39287864 39945452 40501996 40945208 41266352 41457616 
1326.341 41510584 41419088 41183248 40813896 40332936 39770396 39160896 
1329.717 38535344 37918284 37329072 36782780 36294260 35878980 35550428 
1333.092 35317612 35182388 35140276 35184036 35308340 35514540 35811076 
1336.467 36211020 36726848 37367384 38134992 39025920 40030608 41132104 
1339.842 42304732 43507672 44686924 45780940 46726268 47476940 48014732 
1343.218 48357888 48559380 48699832 48873784 49163964 49635348 50328260 
1346.593 51260316 52438144 53864380 55543348 57482020 59688424 62170208 
1349.968 64935596 67993856 71354176 75019984 78978696 83189872 87567448 
1353.343 91981192 96263680 100213672 103642712 106396648 108378792 109566672 
1356.719 110002440 109773840 108979168 107712800 106048520 104029032 
1359.612 101675520 98990416 95967416 92605640 88925656 84981776 80872528 
1362.987 76728128 72683304 68856392 65319160 62094436 59170464 56517808 
1366.362 54109308 51931148 49983208 48271456 46798888 45558988 44534652 
1369.737 43703296 43044356 42539644 42173520 41929680 41787384 41723984 
1373.113 41722272 41775128 41890420 42086080 42381548 42785912 43294016 
1376.488 43889440 44554772 45282680 46081444 46974736 47996264 49183256 
1379.863 50568520 52185712 54075384 56285056 58868024 61863876 65273828 
1383.238 69032312 72988112 76920088 80519096 83433848 85335032 85954392 
1386.614 85191808 83156288 80170176 76664832 73061736 69707720 66805364 
1389.989 64440324 62617048 61288828 60387336 59837092 59572760 59539468 
1393.364 59697472 60025376 60510684 61143020 61906172 62772080 63702748 
1396.739 64657376 65593756 66477092 67284736 68006520 68647320 69221864 
1400.115 69748536 70238840 70692072 71092888 71416504 71632304 71710616 
1403.490 71632616 71394360 71009688 70504408 69911696 69261696 68575064 
1406.865 67863288 67131056 66381416 65622656 64871000 64150052 63490584 
1410.240 62922224 62467384 62138440 61935748 61851724 61874724 61993720 
1413.615 62199880 62485328 62843144 63265024 63741968 64267248 64838640 
1416.991 65463020 66158832 66959232 67908536 69048896 70414584 72019096 
1420.366 73854312 75905864 78160536 80615264 83274000 86144728 89229152 
1423.741 92507560 95935600 99443616 102941040 106336360 109540584 112469080 
1427.116 115053352 117237144 118986472 120298520 121201392 121747048 
1430.010 121990120 121983184 121770952 121393368 120897656 120332784 
1432.903 119735304 119114256 118433176 117610696 116530736 115090456 
1435.796 113256368 111117184 108878248 106791272 105057032 103755080 
1438.689 102860632 102290544 101957424 101793792 101764176 101858712 
1441.582 102079456 102427648 102898672 103483352 104174768 104974032 
1444.475 105890352 106939000 108135912 109496832 111038616 112781368 
1447.368 114752672 116982488 119496496 122308368 125407640 128754064 
1450.261 132267040 135832272 139290176 142451456 145144464 147228384 
1453.154 148622992 149301280 149255632 148467904 146892848 144494224 
1456.047 141304752 137485824 133335192 129171920 125208568 121497888 
1458.940 117993520 114636560 111411496 108352384 105522304 102983888 
1461.833 100761104 98844824 97203472 95807720 94652336 93764216 93187248 
1465.208 92958056 93083944 93543672 94300696 95320624 96579624 98057384 
1468.584 99731120 101573776 103547608 105622144 107783240 110036592 
1471.477 112405040 114907888 117537680 120238160 122916536 125467616 
1474.370 127804192 129865912 131622640 133073984 134243488 135177536 
1477.263 135935072 136584544 137191024 137808704 138484880 139257072 
1480.156 140154480 141200080 142407248 143778960 145307088 146971568 
1483.049 148738192 150550848 152333824 153983888 155368512 156349200 
1485.942 156783440 156542256 155526976 153664368 150908880 147248288 
1488.835 142721072 137447584 131642640 125613872 119693616 114148712 
1491.728 109132664 104652040 100601304 96813064 93112688 89360120 85478992 
1495.104 81469960 77404264 73398944 69569048 65994328 62703976 59694352 
1498.479 56946248 54441276 52166352 50106872 48243868 46555800 45025440 
1501.854 43645112 42413408 41330596 40383876 39537556 38727544 37871176 
1505.229 36892568 35759948 34525724 33319786 32287478 31506076 30959296 
1508.604 30568886 30253242 29954728 29651344 29347994 29062250 28809056 
1511.980 28592456 28406350 28242282 28096870 27974616 27883418 27828410 
1515.355 27806614 27808594 27827350 27867908 27950552 28103692 28349544 
1518.730 28690636 29106536 29557520 30004180 30424576 30831114 31262956 
1522.105 31764164 32350298 32997742 33655568 34269504 34807836 35269884 
1525.481 35691416 36126680 36631052 37234192 37935316 38715120 39554940 
1528.856 40450392 41412852 42460680 43606572 44848176 46173156 47568356 
1532.231 49033924 50593392 52290268 54168084 56238668 58479800 60843124 
1535.606 63284196 65772564 68304000 70904616 73612400 76473192 79522992 
1538.982 82770040 86179800 89677480 93184296 96633848 99992784 103262568 
1542.357 106453664 109573800 112613816 115546448 118325856 120899016 
1545.250 123225600 125280288 127049152 128514928 129631208 130317136 
1548.143 130476888 130022336 128927024 127249288 125124272 122697384 
1551.036 120052632 117181808 113995968 110388104 106309992 101833952 
1553.929 97160872 92569392 88286224 84418656 80918872 77614024 74252680 
1557.304 70572616 66403112 61767528 56972088 52512100 48814976 46031708 
1560.680 44058100 42671660 41657572 40856160 40156924 39495532 38845036 
1564.055 38212416 37630428 37142288 36782956 36559896 36449900 36405188 
1567.430 36371788 36300996 36164132 35960320 35714836 35467800 35255404 
1570.805 35100688 35008556 34971492 34974328 34996452 35012288 34987656 
1574.181 34885632 34676928 34356460 33960296 33563564 33258830 33111334 
1577.556 33139944 33322044 33617404 33987672 34409212 34875724 35392304 
1580.931 35967732 36607008 37306760 38056064 38840688 39645720 40459152 
1584.306 41273348 42084656 42895324 43714804 44561492 45460416 46438928 
1587.682 47523624 48732420 50074632 51552468 53165392 54913616 56797472 
1591.057 58813764 60947044 63164004 65418756 67654688 69818960 71874448 
1594.432 73800152 75591672 77252624 78790600 80212624 81526120 82742664 
1597.807 83877920 84949224 85971392 86949024 87870928 88704880 89400984 
1601.183 89890320 90085904 89897288 89233064 88019456 86224096 83867672 
1604.558 81034056 77852352 74494008 71144016 67967776 65112860 62679552 
1607.933 60712900 59209196 58127040 57411144 57006276 56872932 56984404 
1611.308 57316312 57840616 58521088 59314320 60182796 61096260 62032972 
1614.684 62981212 63933252 64887768 65853260 66857152 67943800 69154096 
1618.059 70517384 72032664 73670376 75378896 77100136 78787344 80407280 
1621.434 81956120 83456016 84947048 86466864 88036376 89656912 91314424 
1624.809 92996424 94701536 96439888 98226472 100073632 101988056 103975352 
1628.185 106050120 108240392 110592320 113155016 115960480 119013624 
1631.078 122285488 125730080 129289880 132927808 136643744 140473328 
1633.971 144485760 148758304 153348864 158252144 163405168 168726496 
1636.864 174142000 179621184 185160688 190756432 196377584 201959808 
1639.757 207431344 212716208 217767216 222575968 227150720 231490464 
1642.650 235562032 239280336 242529792 245197248 247201088 248531760 
1645.543 249260144 249543376 249571424 249535360 249601344 249878448 
1648.436 250428640 251264448 252348992 253581408 254780240 255698560 
1651.329 256010208 255410016 253790944 251451136 249063136 247266512 
1654.222 246313024 246005488 245962064 245810688 245314624 244374496 
1657.115 242989920 241222016 239143840 236809024 234227344 231375376 
1660.008 228216000 224718752 220873360 216695072 212224704 207534096 
1662.901 202727408 197930336 193267760 188826704 184626016 180607552 
1665.794 176640224 172547184 168134512 163240336 157776032 151759984 
1668.688 145322320 138674304 132058712 125688168 119710984 114200736 
1671.581 109160360 104534424 100218632 96077616 91975176 87827728 83660528 
1674.956 79639840 76033432 73088320 70939304 69564424 68841552 68622680 
1678.331 68801336 69337296 70241760 71543144 73250584 75333416 77745424 
1681.706 80465616 83543560 87128696 91449536 96723760 102989472 110045640 
1685.082 117535512 125136344 132699576 140237584 147836448 155556000 
1687.975 163370896 171169680 178739904 185845584 192298176 197988192 
1690.868 202912208 207140288 210774176 213895328 216532976 218646944 
1693.761 220139968 220889248 220820464 219987904 218620528 217046896 
1696.654 215504992 214026784 212396032 210236320 207082160 202558368 
1699.547 196602656 189651696 182563216 176168256 170874896 166562144 
1702.440 162826592 159209136 155364816 151104832 146399200 141350128 
1705.333 136139488 130962520 125955776 121180200 116631720 112270792 
1708.226 108038720 103865784 99681512 95423600 91059040 86595544 82086552 
1711.601 77612128 73244032 69034912 64997972 61116012 57366488 53744292 
1714.977 50272528 46996852 43959868 41178476 38631740 36287308 34127540 
1718.352 32172638 30475434 29084676 28011476 27215536 26615962 26115798 
1721.727 25637968 25143352 24645512 24193640 23847204 23637298 23550366 
1725.102 23533050 23521296 23469706 23363330 23216326 23050956 22875872 
1728.478 22674012 22409126 22045528 21570866 21003614 20381710 19733058 
1731.853 19054702 18299912 17398278 16295051 15010704 13660419 12411512 
1735.228 11391134 10627938 10063806 9599746 9144304 8636744 8064219 7455434 
1739.085 6864872 6339626 5895918 5515309 5165144 4822095 4487184 4181669 
1742.943 3932403 3751021 3625341 3523714 3412527 3275527 3120782 2975834 
1746.800 2869156 2814426 2799285 2792382 2757602 2676181 2556078 2427711 
1750.658 2325265 2266707 2245357 2236931 2217980 2180782 2136993 2109091 
1754.515 2116816 2163599 2233800 2298150 2331661 2326597 2300048 2281329 
1758.373 2297117 2354314 2437907 2517051 2562811 2563177 2530748 2496189 
1762.230 2490590 2528748 2600875 2681715 2745731 2781978 2796451 2807156 
1766.087 2831001 2873559 2923292 2958987 2960855 2924493 2862986 2800319 
1769.945 2754668 2727559 2700019 2641677 2529848 2364508 2173222 1995036 
1773.802 1859847 1771674 1711028 1647330 1557305 1434552 1292824 1155362 
1777.660 1042155 956804 884485 799530 680078 522904 345493 178198 45594 
1781.999 -44927 -107672 -168884 -253302 -369486 -506754 -640108 -746431 
1785.857 -817243 -862351 -902957 -957908 -1034008 -1122983 -1206885 -1270387 
1789.714 -1310493 -1340057 -1381775 -1454003 -1559103 -1677645 -1778962 
1793.089 -1837168 -1846142 -1820473 -1785727 -1762826 -1757909 -1762166 
1796.465 -1758239 -1732135 -1681771 -1619055 -1563329 -1530775 -1522785 
1799.840 -1525426 -1514992 -1473453 -1396935 -1298931 -1200211 -1118224 
1803.215 -1055989 -1001910 -936517 -844494 -723640 -585878 -451051 -335087 
1807.073 -242804 -166002 -89518 -2219 94641 186021 249405 267739 237271 
1811.412 170607 87913 6759 -67389 -141889 -230684 -343166 -476206 -613440 
1815.752 -731017 -811224 -849520 -857688 -855737 -861888 -881828 -907454 
1819.609 -923258 -917472 -890293 -855142 -830935 -831861 -860003 -904246 
1823.467 -946204 -970272 -973149 -964388 -959991 -970504 -995166 -1021711 
1827.324 -1035594 -1028884 -1007100 -987860 -992720 -1033545 -1104905 
1830.699 -1185209 -1248913 -1281422 -1285155 -1277556 -1280232 -1308412 
1834.074 -1362221 -1427550 -1483789 -1516148 -1523544 -1519219 -1520870 
1837.450 -1541968 -1581553 -1626218 -1656784 -1660910 -1640148 -1609350 
1840.825 -1589443 -1595220 -1629684 -1682068 -1734412 -1771175 -1788466 
1844.200 -1795395 -1806746 -1830206 -1860791 -1882599 -1879893 -1845713 
1847.575 -1786816 -1720188 -1665267 -1633447 -1621729 -1615060 -1595716 
1850.951 -1554316 -1494983 -1433891 -1388744 -1369752 -1372956 -1382237 
1854.326 -1378241 -1350660 -1303423 -1253406 -1220036 -1214617 -1234441 
1857.701 -1264342 -1286014 -1288095 -1273724 -1257007 -1255256 -1276070 
1861.076 -1313499 -1348877 -1363377 -1346201 -1302498 -1249210 -1207447 
1864.452 -1189339 -1193106 -1204242 -1204969 -1185672 -1150776 -1117134 
1867.827 -1104509 -1123743 -1168984 -1220300 -1254794 -1260773 -1243593 
1871.202 -1221589 -1213692 -1230212 -1266522 -1306760 -1332493 -1333451 
1874.577 -1313796 -1288756 -1275145 -1280133 -1296090 -1303456 -1281389 
1877.953 -1217789 -1117134 -995794 -875512 -770213 -681363 -600238 -517245 
1881.810 -431455 -355846 -312010 -321281 -393023 -518635 -674383 -832125 
1885.667 -973347 -1094362 -1205530 -1320964 -1448917 -1584623 -1711871 
1889.043 -1810937 -1870722 -1894706 -1899094 -1901601 -1912883 -1930795 
1892.418 -1944815 -1942934 -1922186 -1890615 -1864123 -1857063 -1872074 
1895.793 -1897015 -1910178 -1893057 -1839247 -1759823 -1676457 -1612288 
1899.168 -1579473 -1575148 -1584293 -1590301 -1585614 -1575875 -1575445 
1902.544 -1597828 -1646387 -1710188 -1769426 -1804470 -1808561 -1789885 
1905.919 -1768304 -1762463 -1780975 -1817074 -1853962 -1874252 -1870689 
1909.294 -1850794 -1832153 -1832054 -1856238 -1897114 -1937063 -1961505 
1912.669 -1965299 -1957943 -1955733 -1973545 -2013948 -2065560 -2108065 
1916.045 -2125046 -2113011 -2084983 -2062955 -2066879 -2101107 -2152709 
1919.420 -2198370 -2217985 -2207205 -2177963 -2152709 -2150335 -2177304 
1922.795 -2221084 -2259453 -2270528 -2247026 -2198865 -2147499 -2112022 
1926.170 -2099294 -2100217 -2096359 -2071990 -2024930 -1968366 -1925682 
1929.546 -1916710 -1945837 -1999172 -2051017 -2078783 -2073210 -2042871 
1932.921 -2007055 -1984066 -1978954 -1980273 -1966816 -1920932 -1840566 
1936.296 -1741771 -1650546 -1589014 -1565079 -1567918 -1574983 -1565310 
1939.671 -1532063 -1485440 -1446176 -1430787 -1441949 -1462952 -1468731 
1943.047 -1437194 -1364699 -1265894 -1166208 -1085736 -1027297 -974967 
1946.422 -903056 -791810 -637660 -456545 -273336 -108599 35355 174883 337203 
1950.761 542577 792460 1065372 1328185 1548825 1709198 1810102 1863308 
1954.619 1878449 1854190 1775167 1623184 1392368 1098323 780875 486713 
1958.476 254809 95734 -8283 -94057 -193029 -314493 -443769 -551794 -614929 
1962.816 -628892 -612382 -595176 -600867 -632002 -668693 -679114 -640836 
1966.673 -552522 -436685 -323863 -237572 -176237 -117245 -28891 106439 
1970.531 279874 453775 581162 627183 584546 478254 350699 241780 170276 
1974.870 128811 96961 60175 22200 6361 38801 129971 261274 392849 477856 
1979.692 487542 424720 319330 212739 135804 97623 83340 69421 38039 -8846 
1984.514 -52182 -65898 -35352 34129 116879 183269 212872 206441 183071 
1988.854 169016 180286 213071 245460 250432 213468 142035 62495 6361 -6229 
1993.675 20808 64483 93182 87449 47052 -7918 -52481 -70205 -65368 -58875 
1998.497 -77129 -135364 -227372 -327605 -403319 -434103 -420764 -385475 
2002.354 -355780 -352535 -373624 -399379 -400902 -359620 -278634 -182298 
2006.212 -101709 -57715 -49797 -56887 -51719 -16666 43937 107268 145515 
2010.552 144223 110847 73000 61169 94011 166000 252720 321220 350699 342343 
2015.373 317175 303680 319065 361079 408900 437390 431553 398420 359984 
2019.713 343172 362372 410360 462532 492319 485253 447705 402135 375305 
2024.052 381507 414970 454472 476463 472151 451254 438219 455799 511526 
2028.392 589954 662025 698795 689204 646428 602264 587233 616100 678485 
2032.732 746986 792526 801389 782800 763416 772046 821938 905104 996920 
2037.071 1074108 1125596 1160146 1198885 1263248 1359461 1474114 1580483 
2040.929 1654115 1685947 1689007 1690371 1717781 1786046 1889763 2008850 
2044.786 2121643 2217414 2303746 2400023 2525349 2686816 2872791 3059013 
2048.644 3217775 3332719 3402475 3439110 3458080 3468635 3471574 3462122 
2052.501 3437941 3404779 3376762 3369883 3392991 3440012 3490545 3517969 
2056.358 3503405 3444287 3356960 3267748 3201319 3169176 3164269 3166773 
2060.216 3154924 3118246 3059513 2993216 2934167 2889068 2850912 2804788 
2064.073 2734761 2635376 2514751 2390561 2280662 2193570 2124873 2061914 
2067.931 1990742 1905904 1813562 1727261 1660535 1618162 1593120 1570473 
2071.788 1537088 1487845 1429067 1374485 1338090 1324928 1329947 1340084 
2075.646 1342676 1332938 1315124 1299703 1296147 1306782 1324829 1338954 
2079.503 1339552 1325693 1305287 1291561 1294054 1313628 1339884 1357666 
2083.360 1353412 1322801 1272619 1216861 1169016 1134133 1107591 1078027 
2087.218 1034350 972345 897035 819481 751599 698762 658607 623599 586570 
2091.557 546127 507910 480974 472881 483794 506483 529340 543439 547056 
2095.897 546757 553392 574493 610393 652833 690266 713763 722525 723786 
2100.237 729030 746554 776759 811514 839765 853044 850886 841060 834652 
2104.576 839931 856331 875454 885049 877380 853277 822701 799796 795414 
2108.916 811879 841558 871636 891291 897367 894910 893914 901916 920477 
2113.255 943588 961885 968028 961785 949499 941263 943521 955742 969357 
2117.595 974238 962317 934689 899526 869711 854937 857427 871039 885415 
2121.935 892752 891258 886643 887606 900123 923465 949897 969124 975068 
2126.274 969323 961154 962317 980116 1012562 1048964 1074872 1079555 1062316 
2130.614 1032955 1007315 998049 1010271 1039498 1075503 1109218 1138585 
2134.471 1169149 1210082 1266438 1335032 1404069 1459685 1493198 1506497 
2138.329 1510753 1520495 1545301 1584041 1624415 1650989 1653151 1630767 
2142.186 1595415 1562160 1542341 1536888 1538218 1533596 1516339 1490172 
2146.043 1468030 1464339 1486282 1527877 1572336 1600370 1599771 1573134 
2149.901 1535558 1506863 1499482 1511717 1527744 1528343 1498285 1436912 
2153.758 1356902 1277703 1215066 1174864 1152936 1144897 1154066 1196426 
2157.616 1297410 1473549 1721373 2010115 2291388 2515684 2655645 2713022 
2161.473 2716256 2701519 2697985 2716089 2748766 2779144 2794517 2793683 
2165.331 2786380 2785580 2798185 2818661 2832568 2825398 2790748 2736762 
2169.188 2681115 2644244 2637576 2658612 2692951 2723925 2741430 2747132 
2173.045 2753801 2775709 2820896 2884332 2952214 3007696 3042930 3061582 
2176.903 3078200 3107266 3156793 3221847 3287879 3339430 3368480 3378865 
2180.760 3385143 3402141 3437040 3483965 3527589 3551607 3547666 3520574 
2184.618 3485201 3459383 3452536 3462957 3479490 3488474 3482863 3464927 
2188.475 3445189 3434334 3436639 3446725 3452102 3440346 3407818 3361535 
2192.333 3315524 3283205 3271020 3273157 3276762 3268015 3241375 3202954 
2196.190 3167373 3149851 3158328 3189636 3232329 3271921 3299798 3316525 
2200.047 3329614 3347978 3374925 3406015 3431229 3441448 3433533 3414797 
2203.905 3396998 3392690 3406883 3435804 3468534 3494821 3510353 3519539 
2207.762 3531898 3556084 3593601 3637537 3674626 3693406 3689697 3669747 
2211.620 3646324 3631990 3633260 3646825 3663866 3674359 3673924 3666640 
2215.477 3661394 3666473 3683481 3705737 3721578 3721110 3700724 3666807 
2219.334 3631589 3607533 3600149 3606564 3616854 3620931 3612979 3595505 
2223.192 3575326 3560226 3553044 3550405 3544960 3530362 3506144 3478655 
2227.049 3457847 3451868 3462856 3485101 3508449 3523547 3527288 3523748 
2230.907 3521910 3529794 3549937 3578166 3606163 3626644 3636868 3641112 
2234.764 3647260 3661761 3686522 3716899 3745172 3765626 3777759 3787251 
2238.622 3802426 3829702 3869416 3915653 3958517 3990485 4009847 4021719 
2242.479 4034628 4055396 4085464 4120385 4151662 4172971 4183810 4189999 
2246.336 4200471 4222118 4255778 4295062 4330166 4351485 4355769 4346331 
2250.194 4331371 4319524 4314906 4316680 4320495 4322101 4321131 4321365 
2254.051 4328527 4346465 4373808 4404200 4428066 4438509 4433488 4417220 
2257.909 4397104 4379297 4365809 4353459 4336157 4309117 4271973 4229612 
2261.766 4189933 4159556 4141158 4132494 4128346 4123563 4116404 4108510 
2265.624 4103359 4102623 4105099 4105467 4098643 4081652 4057069 4030782 
2269.481 4010917 4002657 4005834 4015599 4024394 4027070 4022187 4013459 
2273.338 4006302 4005065 4009880 4016736 4019879 4015465 4003660 3989013 
2277.196 3978012 3974902 3980888 3992190 4003560 4010649 4013626 4015365 
2281.053 4021317 4035497 4058473 4087037 4116538 4143265 4165879 4186320 
2284.911 4207229 4230282 4254172 4275285 4289909 4296300 4296835 4296166 
2288.768 4299881 4311426 4330133 4351686 4370361 4381941 4384987 4382042 
2292.625 4376453 4370863 4365408 4357041 4342315 4319357 4289306 4256815 
2296.483 4227806 4206661 4194784 4190267 4188896 4186654 4181703 4173573 
2300.340 4163604 4152264 4138582 4120184 4095265 4063758 4028575 3994665 
2304.198 3966877 3947985 3937586 3931802 3925984 3917291 3905188 3892718 
2308.055 3883089 3879144 3880448 3884159 3886031 3882955 3874431 3862696 
2311.913 3850662 3840834 3833680 3827596 3820175 3810448 3799451 3790293 
2315.770 3786583 3790159 3800287 3813791 3826894 3837357 3845514 3854272 
2319.627 3867845 3888940 3917893 3951897 3986740 4017973 4041852 4055965 
2323.485 4058340 4047002 4019746 3975069 3914082 3840800 3762485 3687792 
2327.342 3623904 3574591 3539180 3513259 3491380 3469403 3446458 3424983 
2331.200 3408386 3399269 3398100 3403610 3413695 3427788 3447226 3474179 
2335.057 3510253 3554547 3603256 3650601 3691902 3724919 3751622 3776522 
2338.915 3804064 3837223 3874397 3912008 3945611 3972728 3993862 4012021 
2342.772 4029812 4048908 4068273 4085699 4100717 4116437 4139084 4176685 
2346.629 4235401 4316446 4415413 4523978 4632202 4730538 4812546 4874431 
2350.487 4914676 4933275 4930427 4906667 4863206 4803433 4732782 4657923 
2354.344 4585922 4521065 4464185 4412702 4363232 4313467 4263842 4216966 
2358.202 4176517 4144603 4120519 4100616 4080447 4056668 4028608 3998310 
2362.059 3968348 3941565 3918595 3899137 3883022 3871188 3866240 3871288 
2365.917 3888304 3916221 3951696 3990084 4028073 4065163 4103861 4147881 
2369.774 4200538 4262269 4330568 4401354 4471449 4540217 4610200 4685755 
2373.631 4770636 4866155 4970811 5080890 5191901 5301500 5409012 5515813 
2377.489 5623378 5732245 5841275 5948887 6053334 6154748 6254202 6354083 
2381.346 6456038 6560069 6664629 6767364 6866521 6962267 7056720 7153417 
2385.204 7255661 7364972 7479873 7597738 7714556 7827626 7935529 8038295 
2389.061 8136528 8230663 8320394 8405076 8484538 8559790 8632621 8704890 
2392.918 8777914 8851052 8922715 8990972 9054877 9115711 9176486 9240621 
2396.776 9310419 9385915 9464506 9542875 9617667 9687728 9753835 9818259 
2400.633 9882522 9946829 10009314 10067400 10119050 10164532 10206254 
2404.009 10248251 10294562 10347630 10407797 10474388 10546251 10623525 
2407.384 10707366 10799547 10901226 11011968 11130354 11254587 11383889 
2410.759 11519899 11665651 11824764 11999673 12190226 12394499 12609237 
2414.134 12832887 13066178 13312646 13577817 13867163 14183918 14529615 
2417.510 14903669 15304749 15732137 16184879 16661817 17159166 17670580 
2420.885 18186810 18697188 19191922 19662676 20103226 20508790 20874510 
2424.260 21194436 21462966 21675376 21830918 21933436 21991814 22017886 
2427.635 22023568 22019142 22011264 22003246 21997252 21995474 22000738 
2431.010 22017050 22046716 22091092 22148586 22215954 22289020 22364644 
2434.386 22440806 22516386 22590270 22660396 22723550 22776310 22816292 
2437.761 22843078 22858478 22866162 22870180 22874020 22880412 22892008 
2441.136 22912232 22946044 23000228 23082228 23199092 23356616 23559634 
2444.511 23812518 24120780 24490044 24927800 25440860 26033220 26706684 
2447.887 27459862 28289668 29192252 30164724 31204812 32309498 33474546 
2451.262 34693724 35958484 37259424 38588032 39936660 41298600 42667384 
2454.637 44033600 45385148 46705348 47972988 49166372 50261744 51235932 
2458.012 52068216 52738308 53228460 53524976 53617972 53504028 53187040 
2461.388 52678828 51996948 51161896 50196312 49120328 47951340 46704572 
2464.763 45392248 44024804 42611716 41160516 39678720 38173772 36653908 
2468.138 35130396 33617120 32128892 30681204 29287696 27957830 26698474 
2471.513 25513698 24406374 23379764 22436794 21579536 20807486 20116934 
2474.889 19501808 18953172 18463238 18024968 17632620 17281412 16966250 
2478.264 16681133 16419910 16176764 15948189 15732720 15531234 15345457 
2481.639 15176127 15022606 14883061 14755421 14638442 14532287 14438043 
2485.014 14356835 14288311 14230171 14178921 14131030 14084275 14038072 
2488.390 13993550 13951873 13912972 13875339 13836513 13794715 13749808 
2491.765 13704393 13662538 13628005 13602534 13584996 13571766 13558502 
2495.140 13541956 13521789 13500289 13481183 13468161 13464230 13470485 
2498.515 13487506 13515636 13555391 13607799 13672695 13748851 13833571 
2501.891 13923920 14017607 14115114 14219352 14334232 14463804 14609382 
2505.266 14769305 14939470 15114746 15290608 15464721 15636431 15805632 
2508.641 15971633 16132263 16283389 16420530 16539916 16638853 16715840 
2512.016 16769733 16799214 16802658 16778446 16727204 16651867 16558230 
2515.392 16453255 16344247 16235439 16128274 16021376 15912889 15800890 
2518.767 15685895 15569833 15455313 15344736 15238408 15136017 15036978 
2522.142 14941837 14852510 14771532 14700612 14639745 14586115 14535199 
2525.517 14481993 14423178 14357965 14288071 14216613 14146776 14080886 
2528.893 14020139 13965458 13918138 13879958 13852899 13837574 13832408 
2532.268 13833674 13836444 13835726 13828304 13813424 13792218 13766156 
2535.643 13736710 13703914 13666710 13625065 13580107 13534710 13492974 
2539.018 13458044 13431934 13414095 13402306 13393933 13388022 13385117 
2542.394 13387612 13397624 13416932 13445058 13480944 13522848 13570398 
2545.769 13625099 13689416 13765882 13855498 13957211 14068360 14185767 
2549.144 14306938 14431329 14559492 14692969 14831973 14975343 15120407 
2552.519 15263323 15400313 15527627 15642613 15742479 15824635 15886733 
2555.895 15927531 15947500 15949942 15940798 15927738 15918113 15917907 
2559.270 15930727 15957469 15997449 16048742 16108949 16174940 16242800 
2562.645 16307436 16362999 16403943 16425554 16425485 16403187 16359627 
2566.020 16296152 16214011 16114244 15998514 15869722 15733201 15595557 
2569.396 15463725 15343946 15239506 15150976 15076975 15015266 14964299 
2572.771 14923044 14891702 14869894 14856556 14849561 14846168 14844555 
2576.146 14843973 14845653 14851790 14864580 14885393 14914471 14951748 
2579.521 14996573 15049361 15110938 15181960 15262053 15348821 15437906 
2582.896 15524571 15604144 15673460 15731586 15778726 15816249 15845288 
2586.272 15866799 15881818 15892370 15901718 15914056 15933821 15964860 
2589.647 16008759 16065314 16132126 16205687 16282909 16359661 16432436 
2593.022 16497375 16550140 16586868 16605286 16605046 16588315 16559538 
2596.397 16524462 16487498 16452601 16422147 16397132 16379032 16369639 
2599.773 16370878 16384194 16409656 16445581 16488565 16535547 16584046 
2603.148 16633930 16686916 16745696 16812474 16887906 16971038 17059458 
2606.523 17151066 17244452 17339754 17438044 17540944 17649288 17762870 
2609.898 17880830 18001898 18125314 18250596 18377610 18505522 18632920 
2613.274 18757864 18878486 18993462 19102618 19206918 19307916 19406860 
2616.649 19504580 19601386 19697692 19794782 19894880 20000550 20114678 
2620.024 20238800 20372438 20513794 20659676 20807312 20954580 21100266 
2623.399 21243980 21384994 21522256 21653782 21777438 21891896 21996974 
2626.775 22093744 22184676 22272104 22358574 22445726 22535162 22628526 
2630.150 22727984 22835254 22952610 23080796 23219436 23367036 23521682 
2633.525 23681246 23844894 24012212 24183832 24360250 24541720 24728070 
2636.900 24918678 25112668 25309342 25507760 25706584 25903316 26094512 
2640.276 26276318 26444118 26594508 26725078 26834678 26922836 26990176 
2643.651 27037212 27064860 27074876 27069902 27053470 27029950 27004174 
2647.026 26979458 26958974 26943884 26935388 26933766 26939582 26953720 
2650.401 26976848 27009322 27050790 27100972 27159450 27226544 27303596 
2653.777 27392592 27495832 27615054 27751298 27904476 28074142 28259540 
2657.152 28459982 28675310 28904770 29147850 29403158 29668796 29942906 
2660.527 30223296 30508704 30797890 31090046 31384214 31679440 31974650 
2663.902 32269452 32563638 32857698 33152316 33447456 33742400 34035220 
2667.278 34322680 34601572 34868472 35120700 35356180 35573156 35770204 
2670.653 35945528 36097732 36226004 36330752 36413436 36477508 36526304 
2674.028 36564728 36596844 36626472 36657512 36693564 36738168 36794640 
2677.403 36865224 36951152 37052176 37166980 37293580 37430260 37575904 
2680.779 37730780 37895724 38072416 38262856 38469524 38694584 38940560 
2684.154 39209452 39502644 39820544 40162044 40525420 40907524 41305704 
2687.529 41717460 42141320 42576448 43022036 43477532 43941716 44413336 
2690.904 44891128 45373820 45860844 46351768 46846128 47342272 47838608 
2694.280 48333300 48824468 49311852 49796216 50280156 50766648 51258900 
2697.655 51759740 52270760 52793124 53327652 53874804 54435644 55010860 
2701.030 55601076 56206572 56827344 57462692 58112800 58778068 59459324 
2704.405 60157980 60875716 61614036 62374576 63158712 63968152 64804636 
2707.781 65669640 66564484 67489088 68442304 69421920 70424632 71446616 
2711.156 72484128 73533232 74589952 75649992 76707888 77757784 78793256 
2714.531 79807520 80795104 81751656 82674520 83562720 84416560 85237536 
2717.906 86026688 86785400 87513616 88209728 88869632 89486888 90052880 
2721.281 90557888 90992800 91352040 91634240 91843744 91991144 92091896 
2724.657 92162440 92219512 92276872 92343136 92421632 92509816 92601008 
2728.032 92684264 92747272 92778408 92767000 92705960 92591904 92425112 
2731.407 92208648 91947576 91647288 91312992 90948880 90558744 90145392 
2734.782 89711376 89258328 88787016 88296736 87785344 87249968 86687008 
2738.158 86093176 85466000 84803632 84104912 83368448 82592920 81777248 
2741.533 80920864 80024824 79092888 78131184 77149840 76161264 75180376 
2744.908 74224768 73311856 72459264 71683224 70996152 70406160 69916520 
2748.283 69524760 69224000 69003448 68850992 68753392 68697656 68673392 
2751.659 68671336 68684304 68707088 68735264 68764416 68789568 68803584 
2755.034 68798656 68766280 68698200 68588448 68434000 68234784 67993160 
2758.409 67712512 67396128 67045832 66662020 66244036 65791300 65303832 
2761.784 64783560 64233824 63659660 63067212 62463328 61855816 61253952 
2765.160 60666300 60102312 59568844 59070384 58606860 58174016 57762684 
2768.535 57360096 56952064 56523472 56060272 55551628 54990856 54377092 
2771.910 53715452 53018732 52306376 51600976 50929612 50319516 49794468 
2775.285 49375216 49076812 48907156 48868220 48954848 49156208 49454932 
2778.661 49830480 50259544 50717228 51180088 51626500 52036764 52395304 
2782.036 52689864 52911112 53054108 53117084 53102484 53014912 52861712 
2785.411 52651372 52392088 52092644 51761120 51406460 51038304 50668336 
2788.786 50308764 49973576 49676248 49429272 49243452 49126968 49084936 
2792.162 49119512 49229608 49410968 49656112 49955364 50296636 50666512 
2795.537 51051496 51437120 51809800 52157052 52467344 52730716 52940532 
2798.912 53092000 53183852 53217224 53195800 53123828 53006936 52850596 
2802.287 52660164 52441136 52199312 51940372 51669452 51391652 51110680 
2805.663 50829776 50551324 50277736 50010980 49753448 49506584 49270764 
2809.038 49044608 48825064 48607776 48387408 48159124 47918520 47662192 
2812.413 47387648 47093004 46776488 46436864 46073412 45686148 45275620 
2815.788 44843840 44392968 43925440 43444680 42953996 42457868 41961760 
2819.164 41471688 40994656 40537500 40106408 39707432 39345868 39026756 
2822.539 38755116 38535560 38372656 38270128 38231084 38257568 38350940 
2825.914 38511524 38738016 39026612 39369880 39755724 40165896 40578716 
2829.289 40969128 41311572 41584856 41772904 41867504 41868708 41784724 
2832.665 41629528 41420764 41178768 40923508 40672220 40440496 40239356 
2836.040 40075228 39951120 39866196 39817532 39800208 39809180 39839100 
2839.415 39884684 39941456 40004596 40069560 40132356 40188072 40232488 
2842.790 40261604 40271056 40256588 40214096 40139224 40027628 39875420 
2846.166 39678428 39433336 39137476 38789384 38388980 37938244 37441416 
2849.541 36904468 36334748 35740916 35131656 34515500 33901040 33296142 
2852.916 32709484 32150160 31626944 31149348 30726082 30364628 30070900 
2856.291 29848736 29698706 29618458 29601822 29639140 29717084 29820272 
2859.667 29932540 30037450 30121324 30173676 30187848 30161884 30098028 
2863.042 30002620 29884548 29754942 29625590 29507692 29410426 29340478 
2866.417 29301096 29292764 29313006 29358382 29424290 29506062 29598914 
2869.792 29697890 29797526 29892250 29975920 30042172 30085316 30099626 
2873.167 30080806 30025698 29932610 29801428 29633888 29433472 29204408 
2876.543 28951730 28680194 28393510 28094184 27783866 27463710 27134690 
2879.918 26798412 26456724 26111926 25766806 25423400 25084302 24752414 
2883.293 24430662 24122530 23831418 23559634 23308856 23079294 22870180 
2886.668 22680888 22511222 22361786 22234298 22130386 22051072 21996170 
2890.044 21964036 21952254 21958216 21979580 22014924 22062680 22121042 
2893.419 22187012 22256236 22323552 22383030 22429850 22460380 22472836 
2896.794 22467254 22445166 22409300 22363180 22310994 22257700 22207794 
2900.169 22166334 22137498 22124178 22128258 22150782 22191196 22249226 
2903.545 22323900 22414078 22518584 22635366 22761994 22895116 23031392 
2906.920 23167252 23299104 23424384 23540884 23647306 23743148 23828444 
2910.295 23903426 23968512 24023452 24067928 24101656 24124456 24137348 
2913.670 24142846 24144564 24147436 24155982 24173988 24203906 24247138 
2917.046 24304356 24376686 24466486 24577484 24713936 24880290 25079634 
2920.421 25313382 25581100 25881548 26212926 26573938 26963626 27380946 
2923.796 27824136 28289846 28773402 29268698 29769314 30269512 30764598 
2927.171 31251490 31728626 32195334 32651714 33098210 33535394 33963984 
2930.547 34384792 34798536 35205704 35606064 35998868 36382776 36755660 
2933.922 37115364 37459768 37786728 38094512 38382172 38649196 38895840 
2937.297 39123332 39333532 39529244 39713392 39889876 40062692 40235688 
2940.672 40412640 40596360 40788496 40988540 41194324 41401592 41604620 
2944.048 41797272 41973584 42127920 42256340 42355612 42423744 42459912 
2947.423 42464628 42440112 42390280 42320984 42239652 42153548 42069908 
2950.798 41994716 41931908 41884544 41854588 41844296 41856448 41894980 
2954.173 41963948 42067976 42210876 42395576 42623596 42895472 43209792 
2957.549 43563604 43953340 44373592 44817612 45278860 45749392 46220844 
2960.924 46685016 47132112 47551904 47934396 48268788 48545184 48755476 
2964.299 48893364 48954256 48936268 48838928 48663364 48412076 48089492 
2967.674 47701724 47257000 46765824 46239416 45690304 45130752 44571956 
2971.050 44024108 43495992 42994304 42524372 42089880 41692400 41332344 
2974.425 41009404 40722512 40471444 40256368 40077588 39935248 39828352 
2977.800 39754092 39707472 39682132 39669932 39662236 39650436 39625172 
2981.175 39576752 39495604 39371660 39196108 38963252 38672052 38327992 
2984.551 37943232 37537176 37134132 36758076 36431164 36166184 35963596 
2987.926 35807912 35669472 35507888 35275420 34929548 34439128 33789820 
2991.301 32988626 32061610 31050788 30002300 28964092 27977656 27071524 
2994.676 26264174 25562824 24966016 24466732 24055214 23721138 23454424 
2998.052 23247050 23093026 22987824 22927670 22907724 22920718 22956138 
3001.427 23000436 23036876 23049210 23022096 22942970 22804314 22602732 
3004.802 22339982 22021826 21657960 21261204 20845342 20425814 20016162 
3008.177 19627176 19266176 18936420 18637522 18367204 18122240 17900374 
3011.552 17700534 17522832 17369068 17242004 17145034 17083132 17062008 
3014.928 17087854 17166542 17302720 17498168 17751202 18055466 18400456 
3018.303 18771012 19148150 19511754 19839938 20112074 20311812 20426786 
3021.678 20451202 20384940 20233004 20002910 19702824 19340480 18922264 
3025.053 18453662 17941428 17393724 16821566 16238568 15658759 15096049 
3028.429 14562883 14068633 13619936 13220956 12873228 12576220 12327306 
3031.804 12122622 11956757 11823913 11719465 11639375 11581147 11543716 
3035.179 11526329 11527962 11547255 11581589 11627225 11679503 11731720 
3038.554 11776554 11804881 11807400 11775670 11703704 11589315 11434573 
3041.930 11245848 11032734 10805050 10572731 10343761 10123323 9915573 
3045.305 9722864 9547007 9389233 9249929 9128603 9023482 8932287 8852066 
3049.162 8780450 8715572 8656483 8602202 8552625 8506804 8463961 8423318 
3053.020 8384267 8346232 8308911 8271524 8232993 8192338 8148952 8102735 
3056.877 8054970 8007751 7963742 7925102 7893351 7868889 7851513 7840514 
3060.735 7835656 7837039 7845035 7859981 7881710 7909513 7941671 7976532 
3064.592 8011665 8044945 8074211 8097064 8111310 8115395 8108508 8091156 
3068.449 8065839 8035932 8005320 7977882 7956149 7941266 7933775 7933336 
3072.307 7939883 7953347 7974270 8003397 8041097 8087915 8143989 8209322 
3076.164 8283850 8367174 8458521 8556275 8658680 8763308 8869009 8975040 
3080.022 9081977 9191005 9302801 9416964 9531529 9642499 9745263 9835679 
3083.879 9910589 9969544 10013790 10047189 10073606 10098057 10124680 
3087.254 10156562 10195704 10242959 10297243 10356690 10418488 10479989 
3090.630 10539020 10595140 10649025 10702714 10758786 10819453 10886175 
3094.005 10959669 11040211 11128247 11224801 11331340 11449915 11581725 
3097.380 11727260 11885444 12054823 12232960 12417581 12607634 12802480 
3100.755 13002022 13206814 13416898 13632005 13851873 14075752 14302761 
3104.131 14532081 14762722 14993829 15224510 15453184 15678303 15897697 
3107.506 16108226 16306506 16489081 16652279 16793910 16912780 17009250 
3110.881 17084754 17141002 17179366 17199636 17200394 17179160 17132936 
3114.256 17059252 16956430 16824184 16662747 16473284 16256800 16014775 
3117.632 15748559 15459708 15150290 14822030 14476615 14115388 13739685 
3121.007 13351118 12951975 12545627 12136148 11727600 11323485 10926063 
3124.382 10535999 10153475 9778438 9411817 9055790 8713340 8386936 8078261 
3128.240 7787381 7512573 7251820 7002773 6764369 6536657 6320462 6116740 
3132.097 5926516 5750107 5587430 5438536 5303948 5183887 5078811 4988273 
3135.954 4910856 4844208 4785878 4733151 4684181 4637561 4592586 4548487 
3139.812 4504995 4461842 4419229 4378461 4341110 4309384 4284856 4267790 
3143.669 4256982 4250290 4244602 4237375 4227471 4214857 4200839 4187123 
3147.527 4175146 4165645 4158754 4154271 4151494 4150089 4149755 4149721 
3151.384 4149554 4148183 4144904 4139184 4131089 4121054 4110049 4099078 
3155.241 4089010 4080380 4073758 4069243 4067370 4068039 4071149 4075899 
3159.099 4081652 4087271 4092288 4096903 4101921 4108276 4117073 4128681 
3162.956 4143064 4159356 4177120 4195721 4214992 4235334 4257049 4280205 
3166.814 4304666 4329397 4354330 4378695 4402526 4426091 4450025 4474630 
3170.671 4500073 4526288 4553007 4580598 4608995 4638599 4669545 4701664 
3174.529 4734591 4767989 4801457 4834793 4868132 4901707 4935386 4968800 
3178.386 5001277 5032283 5061078 5087594 5111599 5132922 5151162 5165077 
3182.243 5173526 5175169 5169201 5155654 5135202 5108983 5078208 5044250 
3186.101 5007780 4969739 4930929 4892191 4854126 4817438 4781925 4746684 
3189.958 4711010 4674300 4636288 4598245 4561445 4527561 4497797 4472420 
3193.816 4450460 4431246 4413538 4396702 4380502 4365207 4350447 4335856 
3197.673 4320629 4303796 4284889 4263875 4241524 4218839 4196892 4176016 
3201.531 4156445 4138147 4120586 4104128 4088776 4074561 4060815 4046367 
3205.388 4029845 4010014 3986572 3960190 3932370 3905623 3881451 3861125 
3209.245 3845213 3832911 3823685 3816699 3811518 3807607 3804799 3802359 
3213.103 3799719 3796476 3792633 3789090 3786884 3787118 3790293 3796142 
3216.960 3803696 3811451 3818671 3824788 3830103 3835050 3840265 3845447 
3220.818 3850361 3854205 3856913 3858417 3859821 3862228 3866674 3873461 
3224.675 3882153 3891982 3901678 3910170 3917191 3922440 3926352 3929495 
3228.532 3933206 3938890 3948119 3962363 3982225 4006737 4034026 4060614 
3232.390 4083123 4098610 4105868 4105767 4100717 4093526 4086869 4082020 
3236.247 4079143 4077170 4075430 4073290 4071350 4070548 4072420 4077605 
3240.105 4086502 4098643 4113059 4129115 4145807 4162333 4178357 4193345 
3243.962 4206962 4219642 4231520 4243197 4254875 4266318 4276122 4282681 
3247.820 4284052 4278899 4267723 4252332 4235401 4219976 4208401 4201375 
3251.677 4198531 4198263 4199267 4200036 4200036 4198598 4195386 4190100 
3255.534 4181636 4169994 4155408 4139117 4122893 4108744 4097807 4090381 
3259.392 4085765 4082956 4080916 4079210 4078006 4077370 4077538 4077738 
3263.249 4077103 4075196 4071651 4067872 4065631 4067671 4075564 4090314 
3267.107 4110885 4135371 4160761 4184680 4204754 4219609 4228642 4231453 
3270.964 4228241 4219943 4207263 4192040 4175748 4159657 4144369 4130453 
3274.822 4117341 4105132 4094261 4085397 4079511 4077404 4078541 4082120 
3278.679 4086802 4091485 4095499 4100415 4107339 4118211 4133765 4153435 
3282.536 4175480 4197862 4218605 4237274 4254172 4270534 4287265 4305201 
3286.394 4324109 4343720 4364069 4385991 4411028 4440920 4476371 4516680 
3290.251 4559336 4600355 4635953 4663483 4681836 4691884 4695703 4695334 
3294.109 4692353 4687128 4679491 4668573 4653971 4636489 4616898 4597174 
3297.966 4579091 4564124 4553509 4548252 4548788 4555586 4569046 4589037 
3301.823 4614989 4645698 4679793 4715063 4749129 4779480 4803266 4817974 
3305.681 4821525 4812747 4792311 4761792 4724174 4683076 4641880 4603134 
3309.538 4568510 4538208 4511523 4488121 4467198 4448786 4433154 4420635 
3313.396 4411898 4407078 4406643 4410459 4418760 4431179 4447581 4466629 
3317.253 4487519 4508678 4528967 4547516 4563655 4577752 4590577 4602934 
3321.111 4616128 4631398 4649651 4671554 4697277 4726083 4756566 4786817 
3324.968 4814992 4839283 4858951 4873962 4885355 4894972 4904556 4915916 
3328.825 4930594 4949395 4972855 5000808 5032484 5066173 5099965 5131312 
3332.683 5157968 5178858 5193880 5204309 5212927 5222585 5235530 5253069 
3336.540 5274299 5296938 5318002 5334472 5343965 5346011 5341315 5331587 
3340.398 5319646 5307873 5297978 5290633 5285333 5280638 5274835 5266552 
3344.255 5254646 5239319 5221311 5202230 5183686 5167491 5154313 5144355 
3348.113 5137113 5131111 5124942 5116527 5104525 5087259 5064429 5036003 
3351.970 5003121 4968197 4933510 4901741 4874598 4852785 4835698 4822396 
3355.827 4811139 4801055 4791741 4783266 4776063 4770368 4765242 4759514 
3359.685 4751407 4739482 4722934 4702770 4680631 4658994 4639938 4625337 
3363.542 4615793 4611339 4611406 4615157 4622021 4631131 4641412 4651292 
3367.400 4658727 4661272 4656750 4643924 4622524 4593524 4559503 4522840 
3371.257 4486414 4452368 4421873 4394962 4371064 4349343 4329062 4310288 
3375.115 4293422 4279535 4269463 4263775 4262035 4263273 4265649 4267456 
3378.972 4267121 4264076 4258220 4250391 4241524 4232557 4224192 4216765 
3382.829 4210174 4204954 4201073 4199099 4199601 4203014 4209605 4220378 
3386.687 4235869 4256815 4283718 4316479 4353459 4392117 4428333 4457858 
3390.544 4476237 4480857 4470479 4446845 4413538 4375080 4336659 4302859 
3394.402 4276390 4259224 4251629 4253469 4263842 4281811 4306138 4335220 
3398.259 4366646 4397405 4423547 4441221 4447045 4438878 4416986 4383548 
3402.116 4342716 4299312 4258522 4224126 4198297 4180799 4170931 4166648 
3405.974 4166381 4168823 4173507 4180264 4188394 4196958 4205155 4211880 
3409.831 4216598 4219374 4220713 4221650 4222854 4224560 4226367 4227471 
3413.689 4227271 4225597 4222988 4219910 4217434 4216062 4215326 4214557 
3417.546 4212984 4209739 4204218 4196457 4186955 4176149 4165076 4154572 
3421.404 4145741 4139786 4137679 4139853 4146041 4155241 4165645 4175313 
3425.261 4182840 4186888 4187992 4186821 4184714 4182907 4182004 4182205 
3429.118 4183208 4184346 4185048 4184881 4183543 4180866 4177120 4172436 
3432.976 4167050 4161430 4155977 4150692 4145807 4141392 4137311 4133598 
3436.833 4130754 4128647 4127577 4126907 4125603 4121957 4114263 4101520 
3440.691 4083993 4063356 4042654 4025498 4015231 4013325 4019511 4031350 
3444.548 4045229 4056701 4062587 4060648 4050982 4035296 4016903 3999480 
3448.406 3986037 3978480 3977009 3980821 3987308 3994063 3998644 3999346 
3452.263 3995534 3988111 3978045 3966877 3955876 3945912 3937486 3930865 
3456.120 3925884 3922005 3918829 3915486 3910771 3903817 3894088 3881986 
3459.978 3868680 3856445 3846984 3841870 3841435 3844444 3849024 3853202 
3463.835 3855810 3856412 3855944 3855776 3857080 3860256 3864569 3868246 
3467.693 3869549 3866674 3858885 3846851 3831842 3815696 3800086 3786482 
3471.550 3775219 3766261 3758908 3752358 3745908 3738956 3731403 3724017 
3475.407 3717500 3712989 3711318 3712788 3716732 3722246 3727760 3731938 
3479.265 3733475 3732105 3727627 3720441 3711184 3700156 3687291 3673256 
3483.122 3657752 3641747 3625642 3609938 3595238 3581407 3568344 3556017 
3486.980 3544659 3534270 3525618 3519572 3516499 3516700 3519973 3525718 
3490.837 3532834 3540016 3546129 3549803 3550137 3546597 3539414 3529627 
3494.695 3518436 3507681 3498695 3491948 3486704 3482362 3477285 3470305 
3498.552 3461721 3451668 3441682 3432664 3425284 3419005 3412894 3405347 
3502.409 3395061 3381570 3365709 3348846 3333453 3321267 3314021 3311751 
3506.267 3313687 3318295 3323103 3325807 3324605 3318662 3308913 3296960 
3510.124 3285509 3277029 3272856 3272656 3275193 3278097 3279066 3276629 
3513.982 3270352 3261372 3251257 3241442 3232896 3225820 3220045 3215205 
3517.839 3211499 3209330 3209229 3211165 3213602 3214103 3210131 3199049 
3521.697 3180056 3154557 3125521 3096988 3072895 3055676 3045232 3039760 
3525.554 3036223 3031151 3022309 3009064 2991981 2972731 2953882 2937236 
3529.411 2924627 2916988 2914352 2916554 2922825 2931565 2941639 2951214 
3533.269 2958620 2962323 2961555 2955817 2945242 2931098 2914753 2898275 
3537.126 2883632 2872124 2864587 2861218 2861084 2862485 2863619 2863019 
3540.984 2859550 2853146 2844008 2833002 2820996 2808223 2794183 2778410 
3544.841 2759403 2736962 2711055 2683616 2657145 2635343 2620842 2615609 
3548.698 2619675 2630809 2645210 2658545 2666646 2666746 2658178 2643144 
3552.556 2624542 2606675 2592875 2584142 2579809 2577576 2574543 2568177 
3556.413 2557611 2543379 2527415 2512318 2500354 2492756 2489990 2490890 
3560.271 2494156 2498821 2504220 2510552 2518284 2528082 2539013 2549779 
3564.128 2557011 2556178 2543013 2513918 2467697 2407253 2339256 2273168 
3567.986 2218647 2183413 2170725 2180182 2207124 2245124 2287224 2326864 
3571.843 2358944 2381066 2392294 2394093 2388429 2378567 2366574 2354547 
3575.700 2343020 2331694 2319902 2306611 2291388 2274734 2258546 2244458 
3579.558 2234932 2231335 2234433 2243825 2258646 2277965 2300648 2326164 
3583.415 2353248 2380000 2402855 2417116 2416882 2397624 2357345 2298649 
3587.273 2229104 2159503 2101699 2063911 2050229 2058185 2082189 2113886 
3591.130 2145085 2169460 2182680 2182647 2170026 2147349 2118314 2087316 
3594.988 2058785 2035714 2020335 2012845 2012179 2016373 2022265 2027492 
3598.845 2030121 2029556 2026360 2021966 2018870 2019070 2024462 2036047 
3602.702 2054057 2077794 2106560 2138092 2169693 2197532 2217481 2224908 
3606.560 2217015 2192637 2154608 2108858 2063778 2028224 2008318 2005521 
3610.417 2016407 2034383 2051427 2060682 2058818 2046733 2029123 2012612 
3614.275 2003791 2006087 2019769 2041274 2064378 2082123 2087316 2074465 
3618.132 2042006 1992373 1933493 1875986 1833060 1813762 1823877 1862043 
3621.990 1921912 1994104 2068240 2136893 2196400 2247289 2292587 2335225 
3625.847 2374569 2404388 2412851 2384930 2310075 2188374 2037412 1887101 
3629.704 1771474 1712092 1711793 1757934 1830299 1907368 1971969 2015308 
3633.562 2036147 2040342 2036746 2033983 2036979 2046533 2059950 2073999 
3637.419 2086118 2095939 2104163 2112154 2120245 2127570 2132998 2135828 
3641.277 2136860 2139324 2147815 2166929 2199530 2245423 2300848 2359511 
3645.134 2412784 2452568 2471662 2464997 2430843 2370138 2286791 2186510 
3648.991 2077228 1968907 1872858 1801418 1765087 1769145 1813362 1890529 
3652.849 1988146 2089913 2178451 2239295 2261444 2242526 2190073 2120645 
3656.706 2053791 2006054 1985716 1992306 2017971 2052060 2085685 2112454 
3660.564 2129502 2137726 2139657 2138492 2136794 2136860 2140190 2147948 
3664.421 2161434 2181381 2207656 2239195 2272668 2303546 2324599 2327797 
3668.279 2305345 2252484 2171491 2074598 1983719 1922378 1909332 1950501 
3672.136 2036480 2145518 2247922 2313706 2315771 2241760 2101300 1929300 
3675.993 1772239 1667653 1630568 1651754 1708100 1773903 1830831 1870129 
3679.851 1893224 1907401 1921546 1941847 1969739 2003624 2041074 2081989 
3683.708 2128936 2185277 2252251 2326364 2398057 2453801 2478160 2459633 
3687.566 2395392 2293886 2172690 2052759 1951533 1877317 1830698 1807240 
3691.423 1803015 1815226 1843143 1885237 1938253 1996068 2051560 2097704 
3695.281 2130833 2150912 2162600 2172057 2185044 2204493 2229104 2254150 
3699.138 2272702 2278064 2265940 2235365 2189873 2135828 2082655 2038877 
3702.995 2011713 2005422 2020934 2056021 2105628 2163399 2222643 2276699 
3706.853 2321834 2355879 2378601 2391227 2394459 2387629 2368639 2334792 
3710.710 2284826 2220678 2149913 2082622 2031020 2004257 2005788 2033450 
3714.568 2080258 2136461 2193037 2242226 2279530 2304179 2318403 2325165 
3718.425 2328363 2329829 2329362 2325365 2315904 2300215 2279763 2258313 
3722.282 2240294 2229170 2226073 2228804 2232568 2231535 2221810 2202828 
3726.140 2178984 2158537 2151378 2165430 2203394 2262310 2333160 2404688 
3729.997 2464031 2502654 2516451 2508186 2485891 2459899 2437341 2418115 
3733.855 2395292 2358145 2298516 2215682 2119546 2027991 1960519 1929999 
3737.712 1938685 1980823 2046200 2126205 2215749 2313939 2420381 2531448 
3741.570 2636876 2717557 2746965 2700853 2567510 2363675 2135795 1948903 
3745.427 1852659 1861444 1956392 2100401 2253683 2380333 2457333 2474528 
3749.284 2435841 2356146 2254649 2148947 2050761 1968741 1910829 1885171 
3753.142 1898216 1950201 2034216 2135895 2237131 2322400 2380366 2407620 
3756.999 2408486 2392527 2369072 2344719 2321134 2297217 2273301 2252817 
3760.857 2242692 2250353 2279497 2326997 2383365 2435241 2470363 2481493 
3764.714 2469896 2444038 2417282 2400956 2399024 2407520 2416549 2414850 
3768.572 2393860 2351582 2293286 2230436 2175387 2137526 2121211 2125639 
3772.429 2146250 2176553 2211453 2246323 2278797 2308176 2334792 2358978 
3776.286 2380233 2396192 2402022 2393226 2366107 2321001 2263476 2204826 
3780.144 2157805 2132865 2134130 2158071 2195934 2235265 2265940 2281662 
3784.001 2282061 2271503 2256914 2244757 2238696 2238829 2243225 2249753 
3787.859 2256781 2263742 2270470 2276599 2280796 2281995 2279963 2276899 
3791.716 2276599 2283793 2301547 2328962 2360910 2389095 2404521 2401589 
3795.573 2380733 2350050 2323000 2312773 2327663 2366807 2420614 2472095 
3799.431 2500754 2489157 2427311 2319935 2187275 2062314 1977827 1952564 
3803.288 1988911 2071369 2176619 2275666 2342787 2361243 2326764 2251752 
3807.146 2161934 2087516 2049197 2053658 2093575 2154142 2220278 2281462 
3811.003 2335225 2384764 2436108 2492256 2550678 2601808 2631876 2627242 
3814.861 2581376 2500254 2404888 2323932 2281462 2289123 2340988 2417882 
3818.718 2492323 2538280 2534614 2472562 2360410 2224042 2100135 2019203 
3822.575 1997766 2032718 2107060 2197000 2279497 2338523 2366174 2364975 
3826.433 2345652 2323433 2311740 2317403 2339722 2371604 2403655 2426911 
3830.290 2436274 2431676 2417749 2401389 2389995 2389495 2402622 2429177 
3834.148 2465831 2506786 2544079 2568010 2569977 2544146 2490124 2414750 
3838.005 2331261 2255515 2200130 2171724 2169060 2185411 2210620 2235931 
3841.863 2254982 2264841 2266207 2262476 2258147 2258213 2267173 2287691 
3845.720 2320801 2365874 2419748 2479626 2542246 2606708 2673681 2744998 
3849.577 2821163 2899309 2969295 3013034 3007462 2928062 2762037 2519683 
3853.435 2241560 1984318 1799322 1711660 1715219 1785880 1893690 2014776 
3857.292 2131832 2235765 2323300 2394426 2450136 2491423 2519750 2537380 
3861.150 2547279 2552711 2555745 2554945 2547012 2527649 2496022 2457400 
3865.007 2423480 2408053 2422313 2467630 2534581 2603475 2651744 2658345 
3868.865 2613075 2522016 2408353 2304146 2235232 2212485 2229237 2267739 
3872.722 2306544 2330029 2332394 2318036 2299515 2290788 2302247 2336491 
3876.579 2388829 2448903 2505253 2546412 2563944 2553678 2517384 2463631 
3880.437 2405421 2358778 2337224 2346785 2384797 2439773 2495056 2531548 
3884.294 2534447 2497855 2429677 2349783 2283161 2251552 2264142 2315838 
3888.152 2390395 2467530 2527582 2554845 2543446 2496655 2427378 2352781 
3892.009 2290156 2251185 2240028 2254816 2290289 2339889 2398091 2459732 
3895.866 2521283 2578643 2627009 2662346 2680148 2677915 2656778 2620942 
3899.724 2577609 2534814 2499221 2472862 2453868 2436674 2415150 2384964 
3903.581 2346352 2303413 2264741 2239162 2232334 2246056 2277698 2321900 
3907.439 2372171 2422613 2468996 2508519 2539813 2562577 2577176 2584976 
3911.296 2588142 2590509 2595408 2605742 2622376 2643444 2664113 2678181 
3915.154 2680215 2667646 2641077 2605609 2568177 2535581 2512351 2499055 
3919.011 2494422 2495389 2499455 2505653 2514018 2524982 2538214 2552078 
3922.868 2563910 2571276 2572610 2568877 2562944 2558811 2560144 2568243 
3926.726 2582642 2600442 2618809 2634510 2645244 2650211 2648811 2640543 
3930.583 2625209 2602809 2574776 2544346 2516184 2495922 2487891 2493722 
3934.441 2511918 2537947 2565644 2589609 2606308 2615309 2619175 2621976 
3938.298 2627976 2639777 2657012 2677115 2695451 2707487 2709021 2698919 
3942.156 2678915 2652945 2627109 2607575 2598875 2603342 2620042 2645044 
3946.013 2672914 2697152 2712589 2716423 2708588 2692084 2671580 2652111 
3949.870 2636876 2627509 2623842 2624009 2626176 2629509 2633843 2640277 
3953.728 2649711 2662379 2677948 2694585 2710922 2725259 2737196 2746532 
3957.585 2754068 2760603 2766405 2771207 2774175 2774775 2771874 2766039 
3961.443 2757302 2746798 2735595 2724825 2715589 2708754 2704854 2704053 
3965.300 2706320 2710555 2716190 2722358 2728326 2733794 2738963 2744364 
3969.157 2750433 2757035 2763904 2770440 2775942 2780011 2782745 2784446 
3973.015 2785880 2787514 2789715 2792382 2795751 2799619 2804188 2809457 
3976.872 2815393 2821329 2826465 2829367 2829333 2826098 2820529 2813992 
3980.730 2808523 2805522 2805889 2809223 2813892 2818061 2820462 2820195 
3984.587 2817994 2815326 2814759 2818094 2826932 2840973 2859350 2879596 
3988.445 2898875 2914853 2925794 2930965 2931265 2927962 2922592 2916854 
3992.302 2910950 2905046 2898441 2890670 2881597 2872324 2864086 2858483 
3996.159 2856949 2859517 2865754 2874192 2883031 2890469 2895773 2898341 
4000.017 2898174 2895673 
##END=
