##TITLE=1706e_2_b
##JCAMP-DX=5.01  $$ Nicolet v. 1
##DATATYPE=INFRARED SPECTRUM
##ORIGIN=UniL
##OWNER=Nicolet
##LONGDATE=2011/09/29
##TIME=12:46:28
##SPECTROMETER/DATA SYSTEM=Nicolet iS5
##DATA PROCESSING=
Ratio against background
%Transmittance->Absorbance
Truncated
ElementMultiply or ElementDivide
##COMMENTS=
Number of sample scans: 32
Collection length: 51.21 sec
Sample gain: 2.0
Background collected on: Jeu Sep 29 12:42:38 2011 (GMT+02:00);
Number of background scans: 32
Background gain: 2.0
Sample spacing:  1.000
Number of scan points: 12415
Resolution points: 8192
Number of FFT points: 65536
Apodization: N-B fort;
Phase correction: Mertz;
Laser frequency: 15798.0 cm-1
Number of rejected sample scans: 0
Number of rejected background scans: 0
Bench serial number: ASB1000141;
##RESOLUTION=4.000
##XUNITS=1/CM
##YUNITS=ABSORBANCE
##FIRSTX=649.893372
##LASTX=4000.122314
##FIRSTY=0.026646
##MAXX=4000.122314
##MINX=649.893372
##MAXY=0.301707
##MINY=0.000450
##XFACTOR=1.000000
##YFACTOR=1.000000E-009
##NPOINTS=6950
##DELTAX=0.482117
##ZPD=6100
##XYDATA=(X++(Y..Y))
649.893 26646258 26021294 25554954 25214066 24977178 24831906 24765042 
653.268 24757500 24782688 24813172 24832712 24839520 24845484 24864956 
656.643 24904850 24956016 24998130 25007326 24969668 24888604 24784862 
660.018 24685666 24612862 24576010 24572540 24596382 24649334 24747152 
663.393 24918046 25196720 25611782 26179702 26898970 27748156 28676796 
666.767 29587704 30349596 30827094 30948978 30752720 30363028 29922884 
670.142 29534254 29255974 29105544 29071036 29122232 29219930 29327894 
673.517 29419290 29485102 29529928 29567134 29609768 29665356 29736882 
676.892 29825278 29933640 30068058 30235232 30434456 30655140 30876860 
680.267 31074706 31229736 31337842 31412176 31478078 31562872 31687208 
683.642 31859248 32076452 32331842 32622606 32954022 33339072 33791896 
687.016 34322176 34932456 35620128 36383996 37230184 38174496 39241368 
690.391 40461844 41869076 43503792 45421200 47692036 50412424 53701920 
693.766 57687108 62510812 68323736 75274464 83513760 93152472 104204296 
697.141 116474368 129454896 142284240 153654224 162066416 166148704 
700.034 164958176 158377056 147132000 132650016 116590936 100558568 85853600 
703.408 73236112 63031660 55185248 49402132 45273488 42379760 40375656 
706.783 38969920 37938064 37115728 36369012 35608760 34794120 33928912 
710.158 33054266 32226380 31499058 30902228 30440816 30101260 29865454 
713.533 29720596 29662908 29692460 29807356 29997186 30245356 30534794 
716.908 30855552 31209476 31607806 32064572 32587886 33176314 33820692 
720.282 34512556 35251448 36049740 36928600 37911124 39009100 40215912 
723.657 41504132 42833812 44161304 45448348 46674208 47835428 48945872 
727.032 50031204 51126856 52276852 53528500 54935728 56554380 58431848 
730.407 60607056 63103384 65930964 69094224 72601880 76476040 80758344 
733.782 85508000 90791832 96676392 103211504 110422928 118307024 126833928 
737.156 135947760 145563152 155578368 165867296 176290720 186733936 
740.049 197132080 207517792 218026032 228878080 240281968 252300384 
742.942 264705008 276875328 287856096 296392608 301285952 301707104 
745.835 297359136 288549056 275987136 260562384 243077344 224181456 
748.727 204403088 184189248 164005520 144372464 125789840 108741304 93626984 
752.102 80691544 70082008 61852488 55999772 52515616 51379420 52527840 
755.477 55780788 60772232 66934728 73440272 79354104 83783920 85983512 
758.852 85565528 82526200 77224560 70242848 62270848 53998156 45974756 
762.227 38630584 32255928 26988836 22852610 19758408 17542290 15986482 
765.601 14872088 14029448 13342747 12763545 12287936 11925016 11672696 
768.976 11508126 11392903 11292843 11191752 11096089 11026583 11001909 
772.351 11025528 11081881 11143850 11187401 11204706 11206644 11215314 
775.726 11249384 11313383 11394638 11472402 11528167 11558655 11576213 
779.101 11602553 11654623 11735124 11830077 11917795 11981178 12017012 
782.475 12038608 12067701 12122928 12208492 12312341 12413045 12492767 
785.850 12545456 12580859 12616093 12667228 12738363 12820942 12898348 
789.225 12957642 12997584 13030190 13074817 13146156 13248796 13373226 
792.600 13503946 13627629 13743139 13861998 14005083 14191347 14433009 
795.975 14733826 15092996 15511145 15992327 16538851 17140518 17762904 
799.350 18349230 18821734 19104246 19147528 18940504 18518524 17948336 
802.724 17315030 16693596 16134877 15665697 15291980 15010601 14817265 
806.099 14709421 14683578 14730672 14835024 14975857 15132140 15287725 
809.474 15431967 15556818 15653262 15708053 15706234 15637908 15504449 
812.849 15322253 15118658 14925616 14767282 14652596 14575287 14520878 
816.224 14475279 14432768 14398208 14381699 14391289 14426569 14477678 
819.598 14529717 14571860 14601466 14626173 14657599 14705342 14769956 
822.973 14843493 14913443 14970850 15015643 15057388 15109943 15183573 
826.348 15280414 15393103 15510217 15622691 15729664 15838895 15962763 
829.723 16110701 16284870 16480133 16688673 16906614 17137796 17393450 
833.098 17685902 18020236 18388980 18770598 19134682 19453120 19704002 
836.473 19878438 19978414 20014010 19998156 19945004 19871952 19799084 
839.847 19748592 19742802 19795546 19908476 20068836 20255846 20447554 
843.222 20630906 20807000 20989460 21198402 21450434 21753960 22108526 
846.597 22509966 22956872 23455928 24019952 24663116 25391888 26200116 
849.972 27067292 27965148 28866560 29750542 30607672 31437464 32243152 
853.347 33027132 33788604 34523784 35229708 35905356 36551784 37168496 
856.721 37749936 38282396 38747472 39124276 39396656 39557444 39608404 
860.096 39557152 39412616 39181532 38868372 38477672 38018848 37508780 
863.471 36969836 36427560 35903164 35410024 34953752 34534764 34153100 
866.846 33811632 33516064 33271816 33079546 32933074 32819246 32722234 
870.221 32629676 32533676 32432444 32326452 32214030 32089044 31941588 
873.596 31761348 31542492 31286244 30999970 30692832 30371768 30038302 
876.970 29689624 29322292 28937778 28544862 28159690 27802446 27489760 
880.345 27233212 27037108 26900170 26818960 26788122 26800808 26842962 
883.720 26892062 26917690 26883356 26756158 26514974 26154120 25685562 
887.095 25133838 24531692 23910778 23299838 22724702 22206610 21764060 
890.470 21411238 21153244 20984798 20887686 20836928 20802898 20759590 
893.844 20689526 20583376 20437968 20254490 20034344 19780566 19498758 
897.219 19199782 18899006 18613968 18361466 18151154 17984596 17857112 
900.594 17761074 17690422 17642730 17619162 17620956 17647632 17694738 
903.969 17755896 17826350 17905968 18001138 18122134 18279556 18480490 
907.344 18727526 19019978 19358878 19750986 20210230 20756636 21408174 
910.719 22174284 23046520 23996874 24975106 25910668 26727720 27348692 
914.093 27708140 27769490 27530604 27031112 26344684 25576002 24841274 
917.468 24241916 23860472 23742064 23894812 24296754 24905728 25671676 
920.843 26537024 27443766 28332072 29136300 29795042 30256014 30483396 
924.218 30467864 30226352 29798946 29234424 28583962 27890766 27183612 
927.593 26481694 25796094 25133240 24497442 23890402 23310746 22754834 
930.967 22219722 21706132 21221364 20778322 20391188 20071786 19823810 
934.342 19642360 19515948 19432052 19381430 19359950 19367504 19404576 
937.717 19468228 19551750 19645690 19741518 19836018 19931336 20033268 
941.092 20147128 20274592 20411852 20552284 20689318 20820938 20950132 
944.467 21083500 21227418 21383776 21549242 21716964 21880050 22035840 
947.841 22186942 22340364 22504206 22683750 22880062 23091104 23314346 
951.216 23549664 23800266 24071430 24367574 24690122 25036318 25401338 
954.591 25781750 26177732 26594580 27040706 27524744 28052934 28628058 
957.966 29251188 29924482 30653362 31447224 32317850 33275570 34327912 
961.341 35478872 36731392 38090788 39568224 41180116 42948216 44895168 
964.716 47039424 49395228 51969872 54764484 57772560 60978272 64353316 
968.090 67849880 71402096 74927408 78324120 81490032 84324816 86735840 
971.465 88652208 90020752 90807432 90997576 90593160 89612960 88091168 
974.840 86080536 83648720 80869216 77822864 74587040 71228880 67812504 
978.215 64393624 61021436 57743116 54598152 51617468 48825432 46238716 
981.590 43870560 41735768 39849852 38228296 36881204 35805464 34978996 
984.964 34355708 33872632 33449888 33004142 32466754 31788514 30953782 
988.339 29981176 28922122 27847842 26832000 25942146 25221686 24685702 
991.714 24323034 24104912 23996068 23963504 23985738 24051748 24157768 
995.089 24302814 24484296 24697066 24935450 25195632 25477822 25785724 
998.464 26125264 26501274 26914800 27363232 27841058 28341514 28856574 
1001.839 29378128 29897894 30406806 30897994 31369150 31824880 32277164 
1005.213 32743636 33243592 33791360 34393972 35050148 35753904 36499488 
1008.588 37286392 38121244 39017836 39993620 41064756 42246592 43552948 
1011.963 44998612 46603528 48393036 50396088 52643964 55163616 57973696 
1015.338 61080696 64474724 68125088 71971848 75930536 79888752 83711312 
1018.713 87268672 90445376 93161712 95389752 97150712 98507608 99539144 
1022.087 100327368 100934376 101391408 101703864 101856616 101826416 
1024.980 101588304 101120072 100399544 99397328 98075864 96391448 94300776 
1028.355 91778656 88829784 85499728 81870496 78056624 74191664 70398680 
1031.731 66788396 63443572 60409724 57703228 55313904 53215840 51375692 
1035.106 49762476 48353520 47133628 46093820 45228076 44529956 43992316 
1038.481 43608808 43376828 43299688 43387924 43659292 44134676 44836496 
1041.856 45783852 46985036 48427784 50065296 51812672 53532248 55043092 
1045.232 56157552 56693936 56529584 55632260 54071140 52009160 49660048 
1048.607 47267268 45040472 43127924 41617164 40530840 39850868 39539116 
1051.982 39558568 39881524 40492544 41388836 42577800 44077316 45913688 
1055.357 48121288 50732716 53762892 57189028 60926876 64827716 68655432 
1058.733 72113360 74893432 76692552 77295696 76617088 74719248 71805368 
1062.108 68175704 64194032 60195660 56455920 53167004 50413392 48197880 
1065.483 46463596 45130532 44115236 43347248 42777648 42367996 42086300 
1068.858 41904684 41795632 41737588 41718732 41735584 41790996 41888596 
1072.234 42028444 42206460 42418228 42663912 42953296 43306796 43753976 
1075.609 44325884 45051316 45953432 47045920 48331668 49795772 51400196 
1078.984 53069124 54683152 56095260 57130484 57624640 57463600 56598240 
1082.359 55066904 52981556 50516000 47861844 45193696 42661500 40363840 
1085.735 38354196 36650880 35243184 34102488 33188116 32457794 31871728 
1089.110 31397250 31013884 30711324 30485636 30335454 30256298 30240524 
1092.485 30280030 30369458 30510800 30713742 30994026 31368222 31848696 
1095.860 32443404 33155356 33985376 34932100 35989692 37141132 38348408 
1099.236 39552688 40671564 41606224 42265724 42575276 42494260 42024576 
1102.611 41209044 40124324 38860944 37520812 36199604 34975336 33912432 
1105.986 33053014 32418020 32012564 31830620 31862102 32097072 32526280 
1109.361 33136152 33897920 34762388 35654080 36472748 37116556 37492128 
1112.737 37535984 37229712 36600012 35712712 34651304 33507940 32365684 
1116.112 31285462 30312004 29470138 28768020 28201480 27756562 27414120 
1119.487 27152042 26951852 26800350 26689700 26616844 26579150 26572140 
1122.862 26588310 26618640 26654502 26690828 26726204 26761690 26798200 
1126.238 26834290 26865766 26887374 26895376 26889630 26873628 26853078 
1129.613 26831824 26810500 26785230 26750836 26702914 26641010 26568546 
1132.988 26490954 26413236 26337150 26260690 26180866 26095814 26007328 
1136.363 25921044 25843426 25779252 25728590 25687144 25648266 25606650 
1139.739 25560962 25514612 25473430 25442406 25423822 25415986 25415918 
1143.114 25421222 25432500 25453684 25489276 25541600 25608618 25684120 
1146.489 25760758 25832384 25897584 25958574 26020064 26085750 26155844 
1149.864 26227288 26296278 26361408 26425526 26496344 26582778 26693294 
1153.240 26833058 27004666 27211622 27460922 27764720 28139150 28598118 
1156.615 29146574 29774318 30455674 31150024 31808160 32386280 32850872 
1159.990 33188794 33410668 33550750 33661516 33798920 34016192 34345448 
1163.365 34787228 35304672 35827376 36268216 36535060 36560472 36317060 
1166.740 35823708 35140924 34354236 33560164 32838006 32244078 31807910 
1170.116 31534438 31413350 31426352 31554106 31777464 32079126 32445546 
1173.491 32866310 33336888 33858372 34437152 35081504 35798768 36593488 
1176.866 37466524 38416816 39443604 40547828 41731612 42997084 44343496 
1180.241 45766548 47258328 48809192 50410228 52053384 53731464 55435104 
1183.617 57151120 58863696 60554944 62210280 63823780 65399348 66949800 
1186.992 68489632 70027072 71552560 73032888 74404016 75577944 76452880 
1190.367 76918144 76880336 76275240 75078512 73314600 71055344 68416200 
1193.742 65530524 62543072 59589864 56774136 54170788 51822008 49742708 
1197.118 47932656 46383436 45084028 44020512 43176340 42532520 42067572 
1200.493 41762032 41601956 41579352 41691596 41938732 42318904 42827380 
1203.868 43456620 44198980 45049848 46008388 47076052 48252604 49531756 
1207.243 50897312 52324992 53781676 55229572 56632176 57951960 59153420 
1210.619 60205324 61077800 61748052 62202864 62441140 62476264 62334260 
1213.994 62053308 61676436 61249340 60820752 60436532 60142496 59983832 
1217.369 59997604 60212788 60646372 61301912 62172580 63245020 64505012 
1220.744 65938404 67531552 69270912 71138000 73109256 75157728 77251120 
1224.120 79357328 81445936 83485896 85448568 87306432 89033152 90608752 
1227.495 92022720 93278832 94396384 95411384 96373248 97333760 98346968 
1230.870 99461112 100712504 102128544 103724152 105500760 107445296 
1233.763 109530048 111715008 113946352 116163144 118303152 120299176 
1236.656 122085784 123597072 124758968 125495480 125725744 125366952 
1239.549 124350328 122625488 120170992 117000016 113159440 108728832 
1242.442 103807088 98516632 92993640 87371664 81787208 76360280 71181056 
1245.818 66316912 61804928 57659220 53880320 50459240 47381180 44624460 
1249.193 42162020 39961980 37989304 36213144 34608640 33157538 31847804 
1252.568 30668190 29605654 28645296 27771502 26971418 26238798 25572524 
1255.943 24975316 24448470 23989486 23590978 23243590 22939162 22674290 
1259.319 22450260 22270674 22137882 22049328 21998298 21976130 21976060 
1262.694 21996346 22040126 22112848 22218850 22358156 22526402 22717824 
1266.069 22928822 23160298 23417808 23708188 24036478 24403184 24804856 
1269.444 25236962 25697900 26191388 26726592 27314676 27964828 28682460 
1272.820 29468612 30323374 31249960 32256606 33356998 34567628 35902480 
1276.195 37371464 38979308 40727352 42615628 44644472 46812652 49113912 
1279.570 51532136 54041492 56602656 59168872 61691864 64120628 66407516 
1282.945 68508832 70378616 71973568 73251528 74172336 74705040 74828672 
1286.321 74534592 73826312 72717104 71228256 69384832 67219240 64771904 
1289.696 62089464 59229744 56256544 53231044 50214280 47259772 44411504 
1293.071 41709436 39186500 36868036 34772008 32903980 31258754 29820840 
1296.446 28570976 27490078 26561926 25774718 25117336 24576538 24136576 
1299.822 23779372 23488244 23252468 23068568 22939756 22871540 22868364 
1303.197 22930570 23055568 23240934 23487964 23804468 24203064 24697066 
1306.572 25293610 25988684 26763698 27585220 28404334 29166172 29810940 
1309.947 30279852 30527934 30527970 30280242 29814062 29189346 28486974 
1313.323 27788034 27167492 26676100 26336058 26147680 26097782 26170834 
1316.698 26354682 26643018 27032276 27515952 28082836 28717468 29403016 
1320.073 30126510 30880206 31659514 32459260 33269346 34071560 34843592 
1323.448 35559924 36197836 36740624 37175964 37494336 37686908 37744116 
1326.823 37658576 37430040 37068488 36595724 36040776 35437348 34815120 
1330.199 34196940 33601476 33043650 32538530 32103494 31753614 31499382 
1333.574 31343400 31280868 31302944 31402238 31577804 31836144 32188694 
1336.949 32647714 33222202 33915512 34725344 35644044 36657080 37741548 
1340.324 38859784 39960524 40985260 41872612 42577764 43082624 43404368 
1343.700 43593420 43726528 43893584 44172568 44624388 45286468 46175252 
1347.075 47297748 48658472 50264012 52124252 54249884 56650820 59337492 
1350.450 62321220 65613448 69220304 73131800 77311016 81675296 86098832 
1353.825 90417704 94434352 97962296 100847320 102989520 104361936 104998840 
1357.201 104979848 104394928 103331288 101856240 100008760 97807632 95255432 
1360.576 92347400 89085904 85494520 81630000 77591728 73509216 69515776 
1363.951 65728000 62217312 59007488 56088664 53434844 51021944 48839116 
1367.326 46887396 45172736 43696188 42448148 41408516 40552156 39857408 
1370.702 39307272 38888048 38586800 38386084 38265748 38209520 38209192 
1374.077 38270128 38407044 38636488 38966332 39391140 39895868 40464864 
1377.452 41091932 41786032 42571076 43479768 44548712 45810104 47297044 
1380.827 49049840 51115560 53547500 56385968 59634636 63233256 67039720 
1384.203 70845096 74355800 77236640 79169896 79892024 79294008 77465368 
1387.578 74700280 71403696 67978784 64763284 61960088 59659876 57874120 
1390.953 56562832 55663292 55105644 54829776 54785760 54938244 55267652 
1394.328 55760364 56402156 57172548 58040420 58968204 59918936 60856164 
1397.704 61750264 62580152 63333452 64008960 64614348 65162248 65663168 
1401.079 66119248 66521420 66850772 67081636 67186712 67146760 66955328 
1404.454 66622504 66170564 65629364 65026724 64381524 63704132 62998868 
1407.829 62269324 61524544 60781492 60063420 59398840 58813844 58326976 
1411.205 57947532 57675528 57505696 57431000 57445524 57544736 57723208 
1414.580 57974640 58290672 58663060 59087776 59567248 60114104 60750780 
1417.955 61510492 62431384 63544428 64870916 66415660 68169816 70125352 
1421.330 72280120 74641656 77223856 80040480 83095144 86366848 89808088 
1424.706 93345376 96886192 100340184 103621760 106651008 109363232 111702160 
1428.081 113629136 115132088 116225840 116947408 117338504 117441920 
1430.974 117296000 116938904 116419568 115793000 115104832 114377608 
1433.867 113590784 112679176 111543248 110091712 108293408 106226792 
1436.760 104075512 102067008 100383688 99099096 98193328 97593816 97224072 
1440.135 97026328 96970240 97047288 97257192 97597136 98058632 98629256 
1443.510 99300664 100073304 100957752 101970912 103131544 104458856 
1446.404 105972552 107695008 109654400 111879176 114392480 117206376 
1449.297 120311024 123669224 127204776 130805536 134310016 137521104 
1452.190 140255888 142362224 143754928 144411328 144340128 143547632 
1455.083 142015664 139729088 136723712 133138936 129226920 125261544 
1457.976 121431096 117790440 114313152 110963280 107743200 104695264 
1460.869 101884016 99370088 97174424 95286704 93675200 92310312 91183968 
1464.244 90317752 89747712 89503584 89589872 89986344 90661208 91585632 
1467.619 92740136 94107896 95670088 97403328 99277544 101271696 103382192 
1470.995 105623280 108019640 110582616 113286216 116054960 118782184 
1473.888 121360816 123712528 125791520 127580824 129086856 130332608 
1476.781 131358520 132216680 132970648 133685352 134418112 135220416 
1479.674 136131680 137179120 138379328 139737552 141249936 142904560 
1482.567 144681888 146551744 148463376 150345824 152099840 153595088 
1485.460 154694544 155255216 155145904 154264224 152531360 149896016 
1488.353 146341216 141903424 136703232 130957144 124974032 119086544 
1491.246 113559800 108546328 104053960 99980936 96167160 92447128 88689840 
1494.621 84826432 80860232 76859928 72933984 69187936 65692456 62472244 
1497.997 59523088 56826700 54366016 52127052 50093556 48245124 46559632 
1501.372 45021472 43625584 42373512 41268392 40299556 39433192 38607008 
1504.747 37741080 36762332 35639224 34420800 33227854 32194510 31390768 
1508.122 30799776 30348530 29962820 29592990 29222908 28860186 28522286 
1511.498 28221740 27959068 27725446 27511080 27313228 27138040 26995676 
1514.873 26891746 26822554 26776562 26743894 26726770 26744424 26825690 
1518.248 26995006 27257624 27596058 27972990 28350994 28707804 29053288 
1521.623 29422660 29855124 30363810 30925602 31492684 32015454 32466612 
1524.999 32848726 33198166 33566784 34005192 34538032 35161332 35854796 
1528.374 36600912 37397252 38257136 39199768 40238448 41372364 42592236 
1531.749 43889000 45268708 46757856 48398408 50225064 52237840 54403532 
1535.124 56669056 58993296 61355832 63767256 66269784 68919016 71775888 
1538.500 74885984 78256824 81842048 85546120 89266552 92919560 96463424 
1541.875 99901192 103250840 106531528 109746448 112877656 115881600 
1544.768 118698392 121273368 123564344 125545296 127197664 128482816 
1547.661 129333032 129664480 129392624 128482640 126974928 124983272 
1550.554 122638184 120021536 117133992 113902160 110234280 106094240 
1553.447 101558240 96825488 92169976 87814752 83868152 80288280 76911464 
1556.822 73499048 69801064 65654836 61080772 56366616 51979280 48321224 
1560.198 45534188 43519688 42068048 40977868 40099608 39330664 38611136 
1563.573 37914128 37243324 36624852 36094344 35680768 35389752 35200960 
1566.948 35072708 34958132 34814868 34617180 34363524 34074532 33784124 
1570.323 33523046 33310846 33152386 33041644 32965750 32907270 32844548 
1573.698 32749030 32590564 32346480 32015276 31629152 31251776 30958372 
1577.074 30799312 30786650 30899346 31104248 31372462 31688564 32051944 
1580.449 32470576 32953736 33505328 34120372 34786652 35488904 36211308 
1583.824 36940976 37669416 38392708 39114052 39844948 40606584 41426124 
1587.199 42331468 43347320 44487956 45758004 47155748 48678596 50327108 
1590.575 52104076 54009528 56031700 58141700 60297748 62449212 64549028 
1593.950 66565992 68483384 70296680 72006536 73612952 75113760 76507736 
1597.325 77799512 79000280 80124704 81185304 82183544 83106056 83919680 
1600.700 84576552 85013408 85151856 84909816 84202320 82958712 81145680 
1604.076 78781224 75946440 72769448 69421952 66089072 62934480 60101204 
1607.451 57682948 55718212 54198792 53082900 52318264 51853928 51653664 
1610.826 51691096 51939436 52367676 52938508 53611640 54356404 55151916 
1614.201 55986728 56856388 57755948 58679596 59625172 60604768 61647796 
1617.577 62786588 64048284 65435744 66927260 68480904 70049968 71599016 
1620.952 73106792 74577640 76035640 77513648 79034264 80601224 82200928 
1624.327 83814904 85434296 87067760 88735480 90459328 92254544 94126048 
1627.702 96075552 98113616 100265256 102573856 105085224 107828560 110805704 
1631.078 113988864 117337544 120807768 124383320 128089608 131990984 
1633.971 136180816 140748720 145745552 151137264 156818736 162670720 
1636.864 168602064 174589824 180656320 186827472 193100624 199430560 
1639.757 205752000 211980048 218044720 223909344 229552016 234949248 
1642.650 240059328 244799424 249068288 252774592 255861456 258336000 
1645.543 260266608 261775888 262987376 264009360 264937792 265851440 
1648.436 266827104 267927376 269177216 270541664 271902176 273068992 
1651.329 273771680 273742240 272865184 271352544 269729408 268502816 
1654.222 267868048 267651760 267531216 267195168 266453536 265237712 
1657.115 263565056 261501616 259115664 256450592 253506832 250256784 
1660.008 246667840 242719312 238412160 233767344 228822416 223637680 
1662.901 218303968 212942704 207684256 202631344 197820144 193206400 
1665.794 188664288 184014432 179055296 173616816 167604832 161037008 
1668.688 154046480 146849264 139691520 132787424 126286912 120266304 
1671.581 114733776 109640152 104887712 100344104 95874736 91394040 86923232 
1674.956 82623536 78757152 75567176 73184696 71584560 70640792 70201016 
1678.331 70154792 70458616 71121536 72172352 73622488 75445904 77602656 
1681.706 80080200 82939936 86345344 90538632 95745464 102001040 109090064 
1685.082 116641776 124333024 132033512 139789152 147722320 155927472 
1687.975 164400560 173033328 181591984 189798480 197411696 204263520 
1690.868 210301008 215560048 220125120 224078928 227469936 230291520 
1693.761 232485568 233962048 234654752 234585232 233913328 232891376 
1696.654 231714656 230420400 228834816 226634752 223404656 218800352 
1699.547 212761424 205699952 198437488 191783648 186149504 181436688 
1702.440 177268352 173207328 168921520 164226624 159091584 153613216 
1705.333 147966160 142340976 136873040 131625504 126597672 121752488 
1708.226 117032640 112368296 107689568 102936680 98082224 93141464 88176768 
1711.601 83275680 78514800 73948744 69589472 65417372 61407280 57551884 
1714.977 53873904 50419012 47229996 44323244 41674564 39247172 37017572 
1718.352 35000440 33245094 31798284 30671390 29825136 29180414 28642676 
1721.727 28136532 27624340 27119522 26669372 26329898 26127586 26045288 
1725.102 26027766 26010354 25949040 25830766 25670622 25490508 25297718 
1728.478 25073246 24779460 24381102 23867962 23262256 22605732 21929880 
1731.853 21234272 20473848 19579270 18494944 17238764 15920347 14700989 
1735.228 13702855 12953375 12396408 11936560 11487304 10992190 10441567 
1738.603 9864625 9312585 8826841 8417271 8060742 7723595 7384654 7049076 
1742.461 6742023 6492899 6314478 6194036 6098830 5994271 5864078 5716634 
1746.318 5580013 5482558 5437295 5430719 5430685 5401195 5324543 5210278 
1750.176 5090813 5001143 4958980 4955629 4964778 4960589 4933811 4895709 
1754.033 4868433 4871818 4910487 4970141 5023835 5048875 5039758 5014015 
1757.890 5000272 5022629 5084980 5169905 5245590 5283757 5274567 5233652 
1761.748 5194349 5189018 5231908 5311528 5400860 5472827 5515544 5535075 
1765.605 5549539 5575516 5618679 5667754 5702063 5702936 5667318 5609146 
1769.463 5551754 5512289 5489772 5463097 5400860 5280604 5105028 4904757 
1773.320 4721461 4585956 4501145 4446175 4388535 4303863 4185951 4048808 
1777.177 3916656 3809646 3731603 3667542 3591563 3482462 3337727 3175651 
1781.035 3026847 2915453 2847443 2806155 2764271 2695685 2591675 2463631 
1784.892 2337824 2238729 2175853 2139690 2109424 2065942 2002526 1927869 
1788.750 1859647 1813163 1790472 1777829 1751347 1691868 1596446 1484886 
1792.607 1387914 1332306 1324363 1349357 1381332 1399082 1396523 1383526 
1796.465 1379172 1399215 1448082 1514710 1579718 1625379 1647463 1656543 
1800.322 1673108 1713689 1782354 1867135 1950002 2015841 2063046 2103264 
1804.179 2154608 2230769 2332560 2447404 2556178 2644677 2710021 2762871 
1808.037 2819562 2892137 2979337 3065920 3129125 3151620 3129593 3074830 
1811.894 3007195 2943441 2888635 2835437 2770574 2685083 2581809 2475927 
1815.752 2388329 2333160 2311507 2309209 2306444 2287458 2250486 2208289 
1819.609 2180149 2179716 2206657 2245723 2275599 2279230 2252451 2205425 
1823.467 2156406 2121777 2106228 2102365 2095939 2077428 2047599 2017605 
1827.324 2000162 2001560 2014742 2022798 2005788 1954695 1878083 1799588 
1831.181 1744793 1726929 1741067 1767648 1783585 1773238 1736410 1687610 
1835.039 1647230 1628971 1632663 1643772 1643505 1619093 1572336 1518301 
1838.896 1477804 1464938 1478968 1505433 1523654 1518467 1486382 1437511 
1842.754 1388346 1353545 1335830 1325892 1309773 1281359 1247065 1223739 
1846.611 1227294 1264178 1326324 1396224 1454000 1488344 1502807 1512648 
1850.469 1535558 1580383 1641909 1702811 1744460 1756037 1741333 1716616 
1854.326 1701348 1706637 1729424 1754507 1764721 1750382 1716250 1677698 
1858.183 1652519 1649792 1664792 1681922 1683818 1663595 1628938 1599439 
1862.041 1594650 1624781 1682887 1750515 1805477 1834558 1839349 1834192 
1865.898 1836122 1853458 1880578 1899714 1891793 1848267 1778494 1705972 
1869.756 1656178 1640712 1653217 1673340 1680159 1662697 1626410 1588065 
1873.613 1567846 1576127 1608917 1648860 1676534 1681955 1670014 1658905 
1877.470 1668917 1712624 1787577 1878848 1967542 2041673 2101833 2158171 
1881.328 2220512 2290022 2353847 2390761 2380233 2314305 2202062 2067207 
1885.185 1936655 1826239 1736709 1654814 1564122 1455197 1333137 1214202 
1889.043 1118985 1058463 1029633 1016382 1001736 976696 945182 920377 915629 
1893.382 934988 969855 1002765 1016814 1007448 984035 966766 973873 1012264 
1897.722 1072314 1135130 1179748 1196759 1190844 1178252 1175129 1187456 
1901.579 1207723 1219220 1206959 1167123 1110647 1058031 1029202 1031161 
1905.437 1054677 1078857 1083840 1059758 1012961 960656 921838 905237 905834 
1909.776 908424 897733 869445 832129 802883 795746 813406 844711 870341 
1914.116 873197 849359 808460 770652 751732 756014 771216 776494 753093 
1918.456 698198 625789 560426 523137 519388 538065 557174 558004 533620 
1922.795 494143 459911 450127 470459 510398 549809 571540 571772 561919 
1927.135 561587 586702 639261 704503 758470 780411 765175 725213 684823 
1931.474 664647 672346 697633 721562 726673 709813 683695 670918 689005 
1935.814 740082 808394 869545 903410 905569 889565 878110 890163 928446 
1940.154 977592 1012430 1014190 981644 935320 906266 921075 985363 1083109 
1944.493 1184133 1262284 1310105 1340649 1380501 1453202 1568478 1716517 
1948.351 1876419 2029056 2169060 2307677 2464798 2654211 2872825 3098122 
1952.208 3299064 3448462 3535005 3566072 3559825 3530996 3480458 3394928 
1956.065 3255730 3055142 2805555 2541413 2303113 2123475 2009416 1941814 
1959.923 1886935 1818853 1732883 1647863 1591291 1583409 1621588 1681024 
1963.780 1727394 1735611 1704608 1657841 1630601 1647729 1711959 1800054 
1967.638 1880479 1929599 1948704 1960852 1997499 2076895 2189673 2300681 
1971.495 2365707 2356246 2272236 2144286 2018204 1933460 1901078 1905371 
1975.353 1914989 1906503 1879014 1855388 1864938 1924607 2023430 2127570 
1979.210 2195501 2202861 2153542 2078660 2018138 1999896 2028091 2082422 
1983.067 2133331 2157272 2151212 2131233 2121577 2137926 2176919 2216915 
1986.925 2233367 2211353 2157006 2093675 2050495 2044336 2070670 2104896 
1990.782 2116849 2089314 2026826 1953962 1900346 1884871 1902210 1928468 
1994.640 1931696 1891993 1811366 1711893 1623750 1567846 1546265 1542574 
1998.497 1533064 1501842 1451739 1401542 1374884 1383360 1419027 1455995 
2002.354 1466401 1434751 1369698 1298573 1258097 1270924 1335663 1427205 
2006.212 1511385 1563823 1581979 1584041 1596845 1638350 1705206 1775733 
2010.069 1823544 1833759 1813163 1787045 1783784 1819152 1885970 1959487 
2013.927 2008617 2015241 1983552 1937720 1907202 1909132 1939950 1976496 
2017.784 1993571 1976729 1933793 1889397 1873424 1900945 1964613 2038744 
2021.642 2093908 2113286 2101100 2078294 2069837 2087749 2124407 2154775 
2025.499 2153909 2110956 2037279 1960919 1910962 1902609 1928501 1963315 
2029.356 1979957 1965312 1927470 1891394 1882608 1911794 1967709 2024895 
2033.214 2056621 2052359 2023464 1996800 1999763 2042938 2115617 2191338 
2037.071 2245823 2268638 2270670 2276099 2309675 2380866 2478527 2576943 
2040.929 2651144 2690584 2705220 2719757 2759870 2839038 2951247 3077166 
2044.786 3194943 3295391 3385611 3485836 3614649 3780032 3969284 4158352 
2048.644 4319290 4434895 4504493 4540618 4560574 4575542 4587630 4592117 
2052.501 4584583 4567807 4551634 4550161 4572495 4615759 4664989 4699220 
2056.358 4702602 4672257 4620347 4567003 4530909 4519793 4526824 4534893 
2060.216 4526891 4494315 4440317 4376586 4314304 4257953 4201475 4134802 
2064.073 4049677 3947416 3839463 3743134 3670516 3622534 3587220 3546830 
2067.931 3487072 3405580 3312652 3226854 3164870 3132363 3121516 3116510 
2071.788 3102861 3074463 3037191 3003625 2985742 2986844 2999521 3009464 
2075.646 3004593 2981439 2947044 2915920 2899809 2903178 2919956 2937436 
2079.503 2943641 2934901 2916420 2899742 2894705 2903812 2920690 2934634 
2083.360 2935535 2921057 2896974 2873559 2858883 2852713 2846576 2827399 
2087.218 2785480 2719591 2638410 2555745 2484792 2430143 2387596 2346718 
2091.075 2298649 2241826 2183046 2134263 2106927 2104829 2124041 2154175 
2094.933 2185144 2212386 2237797 2266973 2303646 2345919 2385997 2414383 
2098.790 2425245 2419781 2406553 2396292 2395659 2403555 2411851 2410552 
2102.647 2394659 2367440 2339722 2324032 2328363 2350416 2379567 2401922 
2106.505 2408719 2400023 2385697 2378067 2386563 2410385 2440706 2463598 
2110.362 2469329 2456900 2435275 2417282 2412684 2423180 2441372 2455134 
2114.220 2454568 2437507 2409919 2383232 2366474 2362409 2366707 2371238 
2118.077 2369639 2361310 2351882 2349750 2359677 2379500 2400656 2412584 
2121.935 2409219 2392160 2371771 2359844 2365541 2388562 2420681 2448970 
2125.792 2464764 2466564 2461432 2459732 2468363 2485825 2502854 2505986 
2129.649 2486025 2442672 2386663 2334292 2299349 2288956 2300548 2326131 
2133.507 2357645 2393393 2437374 2495589 2569843 2653545 2731594 2788714 
2137.364 2815493 2813559 2794817 2775709 2768206 2774608 2787280 2793683 
2141.222 2785146 2761304 2730360 2702786 2684849 2674614 2662046 2636610 
2145.079 2593842 2540813 2493189 2467163 2470729 2498721 2535381 2563211 
2148.937 2571676 2563777 2552012 2551745 2569210 2596709 2614609 2602475 
2152.794 2546779 2451669 2333859 2217781 2122742 2055322 2011014 1981821 
2156.651 1965745 1974266 2025594 2134163 2298183 2493456 2682316 2827999 
2160.509 2912351 2941506 2940171 2936635 2948511 2977502 3010765 3032720 
2164.366 3035122 3023544 3014202 3023711 3057979 3109969 3161866 3196912 
2168.224 3207060 3200451 3193608 3205424 3245014 3307344 3375526 3432731 
2172.081 3469536 3489443 3506879 3537176 3588757 3657818 3730935 3792900 
2175.938 3836789 3867811 3899170 3944207 4007306 4080581 4147881 4192408 
2179.796 4206761 4196758 4177555 4164909 4165645 4174008 4175313 4155910 
2183.653 4110785 4048139 3986973 3946581 3937820 3958417 3995200 4032688 
2187.511 4060513 4077671 4089779 4104396 4122626 4138147 4140857 4122225 
2191.368 4084227 4038942 4004028 3993561 4012221 4050580 4091953 4118645 
2195.226 4122425 4106369 4082922 4065296 4060513 4066032 4072320 4069343 
2199.083 4053323 4028808 4006436 3995835 4000082 4012823 4023224 4022053 
2202.940 4007774 3988746 3977009 3984064 4012388 4054393 4096703 4127577 
2206.798 4143633 4151059 4162166 4187089 4228442 4278799 4325180 4355300 
2210.655 4366211 4364772 4365073 4378226 4408585 4449222 4486615 4506502 
2214.513 4503388 4481091 4451866 4429037 4419229 4420902 4425924 4425321 
2218.370 4414476 4397606 4382745 4378862 4389271 4408752 4426995 4434124 
2222.228 4425589 4403832 4376687 4352121 4333680 4318956 4301387 4275787 
2226.085 4242126 4206727 4178759 4166080 4169826 4184781 4201508 4211479 
2229.942 4211110 4204352 4198163 4198765 4207765 4222252 4236739 4247948 
2233.800 4257886 4273010 4301119 4346230 4404769 4466964 4519659 4554581 
2237.657 4570252 4573231 4573700 4581134 4598346 4622457 4646971 4667468 
2241.515 4684482 4704411 4735161 4781724 4842566 4909817 4972788 5023299 
2245.372 5059636 5086757 5112906 5144120 5180568 5216012 5241734 5251191 
2249.229 5243779 5225670 5206690 5195423 5195154 5203638 5215174 5225670 
2253.087 5234658 5246328 5265814 5295899 5333096 5369124 5393680 5400759 
2256.944 5390728 5371270 5351613 5339738 5336249 5335377 5327327 5304619 
2260.802 5264975 5213530 5160215 5113979 5080186 5058798 5045523 5035333 
2264.659 5026115 5018405 5014618 5016026 5020551 5023601 5020148 5008518 
2268.517 4991758 4977112 4972118 4981234 5002283 5027891 5047903 5055546 
2272.374 5048909 5032316 5013679 5000104 4995010 4997591 5002987 5007378 
2276.231 5009791 5011869 5016897 5026886 5041065 5055580 5065905 5069860 
2280.089 5068385 5066240 5069525 5081393 5102614 5129535 5158035 5185061 
2283.946 5211083 5238649 5271415 5310388 5353223 5394921 5429712 5454675 
2287.804 5471217 5483800 5498296 5519034 5546452 5576892 5605588 5628681 
2291.661 5645465 5658053 5669936 5683633 5699679 5715526 5728922 5738490 
2295.519 5745608 5754237 5768171 5789762 5817835 5848193 5876336 5898705 
2299.376 5915163 5928128 5941800 5958830 5979960 6003611 6027732 6051621 
2303.233 6077526 6108675 6149472 6201801 6264859 6334516 6406201 6476890 
2307.091 6545672 6614365 6684953 6758345 6832760 6904931 6971055 7029881 
2310.948 7083225 7135329 7191011 7252528 7319175 7387283 7452570 7512674 
2314.806 7569146 7627243 7693780 7773888 7869462 7978253 8095578 8216312 
2318.663 8337045 8457170 8577328 8698399 8819503 8937258 9046791 9143492 
2322.521 9223292 9284082 9325516 9348131 9353074 9342681 9321454 9295659 
2326.378 9273690 9264518 9274096 9304867 9353379 9412223 9471957 9524280 
2330.235 9564383 9591685 9608655 9618987 9626271 9633453 9642431 9656490 
2334.093 9679223 9714258 9764171 9828663 9904081 9984462 10064009 10138484 
2337.950 10206628 10269964 10330087 10388250 10443400 10493091 10534980 
2341.325 10567911 10592899 10610826 10620299 10615545 10585939 10519195 
2344.701 10404709 10240449 10034914 9808565 9587687 9399763 9268952 9210296 
2348.558 9230942 9330324 9501725 9732894 10006364 10303621 10603798 10888960 
2352.416 11147080 11372733 11567604 11737030 11887112 12021814 12141191 
2355.791 12243560 12327749 12394260 12446869 12489357 12524925 12553232 
2359.166 12570047 12569978 12548150 12503373 12438106 12357952 12268236 
2362.541 12172506 12071483 11964761 11851698 11733898 11614702 11497987 
2365.917 11386372 11279988 11175603 11069067 10957766 10841771 10723567 
2369.292 10607431 10496078 10389335 10284519 10177184 10063907 9944015 
2372.667 9819648 9694199 9570344 9449098 9328733 9206844 9081503 8952953 
2376.524 8824203 8699109 8580911 8471192 8368999 8272436 8179845 8091663 
2380.382 8010012 7938533 7880226 7836230 7805867 7786908 7777665 7777699 
2384.239 7788663 7812883 7852357 7907151 7974811 8051257 8132072 8213915 
2388.097 8294962 8374910 8453555 8530458 8603824 8671796 8733151 8787956 
2391.954 8838473 8887237 8936852 8988435 9041480 9094665 9147283 9199128 
2395.812 9251960 9307304 9366379 9428442 9491633 9553307 9611671 9666620 
2399.669 9719239 9770948 9822495 9872726 9918793 9957982 9989141 10013349 
2403.526 10034135 10056210 10083780 10119015 10162124 10212054 10268403 
2406.902 10331851 10404539 10488508 10584785 10691575 10805491 10922291 
2410.277 11038953 11155477 11274275 11399638 11535686 11685153 11848565 
2413.652 12025630 12216159 12421229 12643212 12885515 13150698 13439794 
2417.027 13752338 14087355 14444073 14823128 15225539 15651751 16099492 
2420.403 16563186 17034542 17502512 17957452 18390502 18795094 19166400 
2423.778 19499694 19790588 20034310 20228142 20372090 20469818 20529180 
2427.153 20559890 20571078 20571182 20565588 20557946 20551552 20550024 
2430.528 20556902 20575906 20608702 20654708 20710934 20773422 20838284 
2433.904 20902948 20966334 21028408 21088336 21144270 21193566 21233090 
2437.279 21261240 21278254 21286224 21288278 21286816 21284206 21281838 
2440.654 21282118 21288556 21307556 21346674 21414128 21516302 21658552 
2444.029 21843706 22074674 22355748 22691850 23089812 23556032 24094580 
2447.405 24707202 25393118 26150530 26977624 27873948 28839542 29873582 
2450.780 30973388 32133926 33347194 34604944 35899780 37225164 38575972 
2454.155 39946616 41328228 42709024 44071960 45395668 46657644 47832952 
2457.530 48895996 49823752 50592272 51180460 51571496 51753768 51723196 
2460.906 51484012 51049072 50436760 49668664 48767708 47754684 46647832 
2464.281 45464280 44218020 42921512 41585220 40217260 38823552 37408916 
2467.656 35978100 34538784 33101286 31678372 30284896 28935298 27640830 
2471.031 26411158 25253396 24172620 23173510 22258780 21428992 20681326 
2474.406 20009916 19406550 18862324 18370108 17924612 17522590 17161580 
2477.782 16838650 16548833 16286520 16046060 15823327 15616612 15426096 
2481.157 15252307 15095294 14953599 14824430 14704931 14593380 14489222 
2484.532 14393310 14305877 14226610 14153246 14083317 14014595 13946878 
2487.907 13881360 13820607 13765540 13716328 13669753 13622843 13572757 
2491.283 13519635 13466315 13418025 13378693 13350504 13332326 13320231 
2494.658 13309469 13296794 13281762 13266286 13253817 13247088 13247532 
2498.033 13255286 13269600 13290713 13319753 13358874 13409721 13472638 
2501.408 13546024 13627253 13714207 13806173 13904658 14012543 14132536 
2504.784 14265369 14409990 14562610 14719395 14877403 15035331 15192974 
2508.159 15350057 15505066 15654499 15793605 15917322 16022166 16106816 
2511.534 16171604 16217656 16245551 16254529 16243109 16210055 16155785 
2514.909 16082369 15993942 15894638 15787866 15675796 15559565 15439691 
2518.285 15317928 15196955 15079102 14966872 14860396 14758781 14660410 
2521.660 14564459 14471579 14384645 14306356 14239175 14182480 14133392 
2525.035 14087355 14039920 13989205 13935758 13882284 13831759 13786164 
2528.410 13745362 13707983 13672079 13636553 13602329 13570843 13543700 
2531.786 13520969 13500836 13480021 13456028 13427047 13393489 13357097 
2535.161 13320094 13282992 13245961 13207771 13168014 13127168 13087861 
2538.536 13053237 13026059 13007041 12995228 12987752 12982084 12976930 
2541.911 12973140 12973242 12979900 12994717 13018820 13050881 13090184 
2545.287 13136183 13189668 13251563 13322896 13402920 13489933 13582124 
2548.662 13677618 13776553 13880471 13992113 14112991 14243113 14379987 
2552.037 14518891 14654755 14782743 14898868 15000758 15086752 15155163 
2555.412 15205327 15237139 15252101 15254023 15248704 15242355 15240742 
2558.788 15248154 15266068 15294624 15332791 15379166 15432275 15489924 
2562.163 15548953 15604659 15651509 15684040 15698126 15691735 15664907 
2565.538 15619119 15556474 15478661 15387028 15283572 15170911 15053992 
2568.913 14937687 14827618 14727724 14639745 14563261 14496964 14439551 
2572.289 14390501 14350328 14319678 14298344 14284613 14276121 14270299 
2575.664 14265711 14263040 14264205 14272045 14288276 14313616 14346458 
2579.039 14385844 14430439 14480555 14537221 14601911 14674358 14752679 
2582.414 14832899 14910391 14981071 15042843 15094848 15137835 15172523 
2585.790 15199357 15218676 15231305 15239404 15247228 15259891 15282337 
2589.165 15317516 15365778 15424276 15488790 15554413 15617574 15675727 
2592.540 15727602 15771752 15806181 15828930 15837796 15832262 15814153 
2595.915 15786767 15754949 15722997 15694346 15670644 15652403 15640380 
2599.291 15635228 15637908 15649587 15670197 15698573 15732342 15769036 
2602.666 15806731 15845459 15886493 15932102 15984317 16044067 16111322 
2606.041 16184948 16263541 16346380 16433192 16523981 16618816 16717596 
2609.416 16819604 16924768 17033336 17145482 17261450 17380586 17500892 
2612.792 17619058 17732080 17837364 17934592 18025176 18112290 18199076 
2616.167 18287848 18379372 18473300 18568940 18666436 18767000 18872810 
2619.542 18985778 19106808 19234970 19367988 19502778 19636814 19768428 
2622.917 19897100 20022374 20144212 20260984 20371604 20474542 20569584 
2626.292 20657800 20741446 20823024 20904722 20987722 21072578 21159576 
2629.668 21249756 21344758 21446918 21558502 21680356 21812104 21952222 
2633.043 22098518 22249260 22403788 22562314 22725716 22894522 23068740 
2636.418 23247854 23430784 23617078 23805762 23996418 24187370 24375496 
2639.793 24556796 24726282 24879166 25012414 25124534 25215962 25288270 
2643.169 25343098 25381562 25404956 25414020 25410472 25397052 25377450 
2646.544 25355496 25334878 25317738 25305690 25298982 25297858 25302914 
2649.919 25314646 25333894 25361046 25396138 25439314 25490436 25550912 
2653.294 25622292 25706652 25806116 25921782 26053836 26201382 26363590 
2656.670 26539384 26728706 26931264 27147282 27375864 27615690 27864658 
2660.045 28120696 28381944 28647986 28918192 29192606 29470528 29750648 
2663.420 30031378 30311116 30588724 30864730 31139346 31413530 31687528 
2666.795 31960632 32230482 32494820 32750390 32994560 33224598 33438474 
2670.171 33633264 33807188 33957716 34083492 34184356 34262008 34319380 
2673.546 34360368 34389920 34412476 34432276 34453728 34480704 34517112 
2676.921 34566048 34629524 34708084 34800796 34905744 35020696 35144088 
2680.296 35275164 35414700 35564272 35725844 35901400 36093088 36302868 
2683.672 36532864 36785084 37060764 37360484 37683472 38027636 38389812 
2687.047 38767104 39156728 39557044 39967248 40387112 40816520 41255168 
2690.422 41702500 42157420 42619392 43087380 43560232 44036864 44515120 
2693.797 44992916 45467920 45939176 46406444 46871448 47336840 47805800 
2697.173 48281448 48766264 49261896 49769684 50290724 50826200 51377220 
2700.548 51944552 52528440 53128356 53743692 54373528 55017596 55676248 
2703.923 56350884 57043228 57755264 58488676 59245616 60027772 60837332 
2707.298 61676704 62547548 63450968 64386824 65353588 66348524 67368536 
2710.674 68410728 69471992 70550008 71641680 72743360 73849640 74953944 
2714.049 76048864 77126328 78180176 79205048 80197360 81156304 82081632 
2717.424 82974272 83835560 84666256 85466200 86233784 86964328 87651528 
2720.799 88286376 88858856 89359952 89783768 90128672 90399144 90605120 
2724.175 90761328 90883640 90988144 91087968 91191528 91301664 91416576 
2727.550 91529376 91630472 91707936 91750992 91749352 91696360 91588536 
2730.925 91426104 91212136 90951376 90649856 90313392 89947144 89555904 
2734.300 89143144 88711664 88262544 87795480 87308544 86797904 86260136 
2737.676 85691560 85089184 84451896 83779016 83070464 82325704 81543560 
2741.051 80722552 79861440 78960616 78022640 77053600 76063072 75063816 
2744.426 74071600 73104944 72182328 71322232 70541664 69852936 69263720 
2747.801 68776528 68388080 68090856 67873904 67725320 67632816 67584776 
2751.177 67571536 67584544 67616672 67662320 67715720 67771488 67823312 
2754.552 67863832 67884944 67878672 67837064 67754408 67627208 67454528 
2757.927 67237312 66977864 66678904 66342696 65970652 65563852 65123060 
2761.302 64649760 64145752 63613972 63058092 62482768 61893908 61299168 
2764.677 60707108 60126928 59568312 59038540 58542324 58080072 57647680 
2768.053 57236804 56835160 56428188 56000448 55536644 55024812 54457052 
2771.428 53832084 53155696 52441656 51711216 50988668 50302364 49679664 
2774.803 49144148 48715664 48408704 48230464 48182556 48259900 48451564 
2778.178 48740388 49105860 49524664 49971868 50424444 50860988 51262292 
2781.554 51613512 51902464 52120440 52262200 52326484 52314672 52231184 
2784.929 52082408 51875436 51618028 51318300 50985052 50627528 50257204 
2788.304 49886452 49528788 49198028 48906600 48665512 48484016 48368556 
2791.679 48324076 48353332 48456416 48631008 48871184 49168640 49511592 
2795.055 49886040 50277552 50670456 51049744 51402172 51715432 51979844 
2798.430 52188964 52338932 52429284 52461960 52441136 52372200 52260820 
2801.805 52112892 51934136 51729616 51504640 51263596 51010764 50749736 
2805.180 50483544 50214872 49946852 49682412 49425300 49178360 48943944 
2808.556 48721780 48509988 48304228 48099300 47889328 47669736 47436284 
2811.931 47186552 46918256 46629532 46318628 45984076 45625196 45242084 
2815.306 44836348 44409996 43965472 43505476 43032132 42548268 42057024 
2818.681 41563564 41073320 40593776 40132244 39695928 39290804 38923060 
2822.057 38597664 38319848 38095096 37928228 37823928 37785968 37816296 
2825.432 37915536 38082724 38314276 38604148 38943096 39317792 39710300 
2828.807 40100776 40466428 40784528 41036788 41208676 41292588 41288616 
2832.182 41203684 41050664 40846152 40609708 40361076 40117124 39893216 
2835.558 39699704 39542892 39424848 39344812 39299508 39284492 39295080 
2838.933 39326568 39374380 39434064 39501156 39571016 39639188 39700792 
2842.308 39750860 39784376 39796360 39782088 39737716 39659840 39545900 
2845.683 39393792 39201292 38966296 38686288 38358972 37983120 37558960 
2849.059 37089312 36578928 36034940 35465712 34880176 34286820 33694600 
2852.434 33111442 32546066 32007214 31503584 31043886 30636332 30287384 
2855.809 30002832 29786028 29638466 29558408 29540460 29575396 29650066 
2859.184 29748342 29853882 29949936 30023282 30064506 30068130 30033332 
2862.560 29962962 29862932 29741352 29608312 29475634 29353984 29253778 
2865.935 29183144 29146114 29143208 29171698 29226168 29300032 29386458 
2869.310 29479394 29573482 29663938 29746390 29816336 29869286 29900736 
2872.685 29906272 29882242 29825560 29734506 29608598 29448756 29257924 
2876.061 29039754 28798858 28539730 28265904 27980060 27683630 27377382 
2879.436 27062286 26739702 26411650 26080822 25749754 25421398 25098170 
2882.811 24782336 24476302 24182850 23904474 23643598 23402108 23180640 
2886.186 22979300 22797714 22635646 22493530 22372146 22272592 22195486 
2889.562 22140914 22107828 22094648 22099704 22121180 22157302 22206156 
2892.937 22264990 22329866 22396042 22457868 22509720 22547202 22567130 
2896.312 22568210 22551250 22518096 22472488 22418754 22362446 22308624 
2899.687 22262794 22229032 22210202 22207342 22220384 22248006 22289264 
2903.063 22343434 22410206 22489552 22581440 22684902 22798658 22919636 
2906.438 23044948 23170888 23293894 23410640 23518674 23615504 23700072 
2909.813 23771950 23831944 23881090 23920964 23952406 23976004 23991762 
2913.188 24000024 24001600 23999010 23996174 23997190 24006644 24028110 
2916.563 24063654 24114930 24182640 24268334 24374376 24503996 24660484 
2919.939 24846816 25064714 25314332 25594700 25904618 26242632 26607438 
2923.314 26997546 27410804 27843742 28292250 28751062 29214754 29679264 
2926.689 30140858 30597042 31046626 31488444 31921976 32346870 32763358 
2930.064 33171844 33573764 33970152 34361804 34748532 35129140 35501236 
2933.440 35862320 36209364 36539928 36852348 37145464 37419100 37673424 
2936.815 37909248 38127684 38330672 38520644 38700632 38873952 39044228 
2940.190 39214856 39388636 39567788 39753256 39944580 40139548 40334352 
2943.565 40523716 40701620 40861944 40998736 41107880 41186236 41232688 
2946.941 41247916 41234544 41196764 41140008 41070620 40995240 40919504 
2950.316 40848188 40784268 40729900 40686520 40656100 40641476 40647296 
2953.691 40678808 40741872 40841744 40982164 41165252 41391788 41660852 
2957.066 41971140 42320036 42704528 43119980 43560600 44019044 44486672 
2960.442 44953592 45410348 45846780 46253680 46622416 46945092 47214628 
2963.817 47425008 47570276 47645772 47647920 47574232 47424196 47199372 
2967.192 46903820 46544032 46129080 45670540 45180240 44670912 44154960 
2970.567 43643172 43145268 42669064 42220260 41803072 41419708 41071096 
2973.943 40756976 40476500 40229400 40015568 39835764 39690556 39580164 
2977.318 39502972 39455760 39432792 39427312 39431596 39437328 39436348 
2980.693 39419988 39378372 39301796 39179860 39003516 38767392 38471404 
2984.068 38123020 37736128 37332576 36937696 36575360 36265840 36018992 
2987.444 35831228 35683360 35543380 35370088 35117500 34747132 34232972 
2990.819 33566712 32760642 31844382 30861564 29857716 28877854 27958856 
2994.194 27124708 26388448 25752884 25213610 24761814 24386852 24079484 
2997.569 23830752 23634466 23486320 23383224 23322282 23299592 23307808 
3000.945 23336442 23371688 23396652 23394766 23351406 23254670 23098618 
3004.320 22881984 22609082 22287486 21928696 21546282 21153732 20764560 
3007.695 20390460 20039582 19716866 19423666 19158538 18918770 18701752 
3011.070 18505556 18330220 18176618 18047004 17943950 17870886 17831220 
3014.446 17829768 17871128 17960146 18100476 18293726 18537990 18827064 
3017.821 19151094 19495294 19841048 20169202 20458390 20689422 20847218 
3021.196 20921548 20908164 20809468 20632018 20384626 20076158 19714544 
3024.571 19305492 18853778 18365130 17846720 17308618 16763810 16225738 
3027.947 15707813 15221490 14774583 14372144 14016067 13706479 13441605 
3031.322 13218770 13034629 12884934 12765797 12673471 12605144 12558962 
3034.697 12533860 12528949 12542659 12572809 12615343 12665489 12716868 
3038.072 12762282 12794495 12805961 12789683 12740581 12655732 12535122 
3041.448 12381884 12202323 12004681 11797697 11589723 11387426 11195288 
3044.823 11016047 10850706 10699623 10562751 10440242 10331750 10237396 
3048.198 10156459 10087883 10029557 9979105 9933472 9890013 9846457 9802025 
3052.055 9756749 9711920 9669127 9629658 9593446 9559777 9526312 9491327 
3055.913 9453196 9411986 9369291 9327717 9289972 9257951 9232532 9213680 
3059.770 9200176 9191377 9186673 9186064 9189753 9197875 9210194 9226236 
3063.628 9245359 9267191 9290886 9315834 9340548 9362824 9379888 9389030 
3067.485 9388116 9376909 9356731 9330425 9301279 9272709 9246950 9225762 
3071.343 9210262 9201191 9199872 9207656 9225627 9254329 9293594 9342443 
3075.200 9399391 9463321 9533255 9608825 9689693 9774778 9863202 9953338 
3079.057 10044239 10135431 10227829 10322317 10419743 10519772 10620503 
3082.433 10718167 10808718 10888077 10953552 11004492 11042352 11070053 
3085.808 11091569 11111148 11132734 11159284 11193010 11234423 11283219 
3089.183 11337156 11393413 11449133 11502069 11551202 11597618 11643222 
3092.558 11690804 11742511 11799842 11863275 11933154 12009756 12094241 
3095.934 12188420 12294651 12414580 12549310 12698205 12859337 13029917 
3099.309 13207293 13389457 13574705 13762462 13952797 14145783 14341868 
3102.684 14541401 14745069 14953120 15165696 15382187 15601946 15823122 
3106.059 16043689 16261030 16472423 16674763 16865344 17041366 17200428 
3109.435 17340720 17461120 17561058 17640626 17700258 17740432 17760626 
3112.810 17760694 17739468 17696394 17630756 17542152 17430490 17295824 
3116.185 17137760 16955948 16750138 16520401 16267428 15992600 15697645 
3119.560 15384556 15055672 14712814 14358307 13995090 13626125 13255184 
3122.936 12885924 12521003 12162250 11810430 11465700 11128280 10799173 
3126.311 10479887 10172842 9879912 9602694 9341259 9095443 8863700 8645194 
3130.168 8438994 8244711 8062058 7890584 7729497 7577980 7435278 7301249 
3134.026 7176289 7061603 6957890 6865949 6785605 6715910 6655781 6603734 
3137.883 6557950 6516712 6478134 6439963 6400115 6357815 6312595 6266102 
3141.740 6220455 6178677 6142818 6114287 6092445 6075846 6062238 6049202 
3145.598 6035426 6020173 6003678 5986712 5970184 5955337 5943244 5935350 
3149.455 5932361 5934511 5940523 5948652 5955975 5959972 5959099 5953389 
3153.313 5943983 5933637 5924769 5919295 5917884 5920033 5924064 5928733 
3157.170 5932663 5935081 5935686 5934746 5932025 5928095 5923258 5918186 
3161.028 5913853 5911233 5910797 5912980 5917480 5923829 5931857 5941531 
3164.885 5953220 5967396 5984596 6004484 6026624 6050142 6074200 6098359 
3168.742 6122756 6147119 6171720 6196322 6220589 6244286 6267682 6291415 
3172.600 6316159 6343089 6372206 6402973 6434179 6463975 6491082 6514727 
3176.457 6535379 6553981 6572044 6590815 6611135 6633205 6656588 6680847 
3180.315 6705343 6728899 6750436 6768340 6780927 6786649 6784797 6774701 
3184.172 6756965 6732130 6701373 6665572 6626409 6585198 6543721 6503695 
3188.030 6466968 6434179 6405495 6379334 6353948 6327287 6297836 6265362 
3191.887 6230606 6194910 6159957 6126889 6096477 6068723 6043927 6022021 
3195.744 6003241 5987552 5974753 5963768 5953523 5942639 5930110 5915331 
3199.602 5898738 5880703 5861895 5842517 5822502 5801347 5778547 5754237 
3203.459 5728754 5702768 5677556 5653588 5632172 5613509 5598237 5586558 
3207.317 5578234 5572696 5569340 5567058 5564474 5561084 5556453 5550412 
3211.174 5543532 5536048 5528330 5520309 5512423 5505074 5499168 5496081 
3215.031 5496585 5501182 5509101 5519269 5529840 5539404 5546854 5551821 
3218.889 5554875 5556419 5556956 5557057 5556788 5556486 5556923 5558265 
3222.746 5561050 5565178 5570078 5574878 5578737 5581187 5582463 5583705 
3226.604 5585551 5588638 5593203 5598674 5604850 5612033 5621129 5633481 
3230.461 5650164 5671010 5694443 5717977 5737819 5750980 5756151 5753633 
3234.319 5745004 5733152 5720730 5709651 5701157 5695819 5693805 5695349 
3238.176 5700653 5709617 5721267 5734428 5747623 5759643 5769951 5778782 
3242.033 5786975 5795470 5805074 5815988 5828077 5841073 5854641 5868814 
3245.891 5883020 5896589 5908177 5916238 5918958 5916171 5908378 5897429 
3249.748 5885640 5874993 5866530 5860317 5855212 5849805 5843223 5835029 
3253.606 5825290 5814712 5803395 5791407 5778480 5764914 5751182 5738759 
3257.463 5729056 5722845 5720394 5720763 5722039 5722878 5722173 5719823 
3261.321 5716734 5713780 5711766 5710456 5709516 5708140 5705723 5702533 
3265.178 5699344 5697497 5698706 5703876 5713881 5728888 5748496 5771630 
3269.035 5796847 5821327 5842484 5857193 5863541 5860854 5850409 5834223 
3272.893 5815383 5796209 5777976 5760617 5744030 5727310 5710557 5694845 
3276.750 5681451 5671682 5666244 5664733 5666177 5669332 5673663 5678832 
3280.608 5685580 5694039 5704212 5715593 5727310 5738692 5749973 5761725 
3284.465 5775223 5790903 5809070 5828950 5849536 5870123 5891249 5914021 
3288.323 5940691 5972133 6008482 6047891 6087069 6121949 6149640 6168628 
3292.180 6179181 6183382 6183483 6181635 6178845 6175182 6170040 6162310 
3296.037 6151488 6137508 6121143 6103467 6086397 6071579 6060860 6055787 
3299.895 6057601 6066707 6083138 6106424 6135727 6169939 6208119 6248488 
3303.752 6288524 6325135 6354319 6372340 6376913 6367129 6344501 6312192 
3307.610 6274271 6234068 6194137 6155152 6116740 6078602 6040332 6003006 
3311.467 5968438 5938777 5915163 5898101 5887185 5881206 5879124 5880535 
3315.324 5885673 5894708 5908076 5925038 5944453 5965078 5985436 6004551 
3319.182 6022424 6039458 6056795 6075712 6097351 6122756 6152396 6186172 
3323.039 6222740 6260690 6297030 6328901 6353780 6370491 6378830 6380646 
3326.897 6378225 6374493 6372038 6373416 6379536 6392078 6411749 6438853 
3330.754 6472988 6512608 6555090 6597443 6636132 6668970 6695282 6716145 
3334.612 6733610 6750806 6769619 6790822 6813406 6835621 6854471 6867935 
3338.469 6874432 6874129 6867868 6857567 6845618 6834274 6824951 6818556 
3342.326 6814247 6810848 6805934 6797688 6784764 6767263 6746701 6725669 
3346.184 6707160 6693566 6686298 6684852 6687577 6692187 6695619 6695316 
3350.041 6689461 6676608 6656756 6630581 6600000 6567234 6534942 6505309 
3353.899 6479681 6458056 6439963 6423788 6408756 6394432 6381117 6369785 
3357.756 6361110 6354453 6348569 6341072 6330111 6314579 6295618 6274977 
3361.614 6255917 6241093 6232118 6228690 6230068 6234269 6239580 6245160 
3365.471 6250539 6255849 6260993 6265262 6267178 6265295 6257900 6243984 
3369.328 6223648 6196927 6165502 6130787 6095066 6060356 6028639 6001427 
3373.186 5979490 5962492 5949727 5939549 5930782 5922217 5913752 5905456 
3377.043 5897999 5891215 5885338 5879527 5873079 5865287 5856085 5845506 
3380.901 5834021 5822469 5811286 5801213 5792952 5787143 5784624 5785733 
3384.758 5790198 5797082 5805242 5813402 5821394 5830226 5841778 5858167 
3388.615 5881072 5910024 5942908 5975425 6002972 6021013 6026993 6020408 
3392.473 6003174 5978415 5949962 5921646 5896623 5877378 5865757 5863071 
3396.330 5869720 5885774 5909722 5939516 5971998 6003509 6030252 6048832 
3400.188 6056627 6052024 6034788 6006500 5970083 5929237 5888360 5851618 
3404.045 5821360 5799198 5784960 5777539 5775693 5778547 5785397 5795907 
3407.903 5809910 5826230 5843424 5860115 5874624 5886177 5894507 5899713 
3411.760 5901963 5901526 5897966 5891417 5882382 5872105 5862802 5856723 
3415.617 5855447 5859410 5867705 5878385 5889099 5898134 5904448 5907841 
3419.475 5908613 5907370 5903777 5898168 5890711 5882214 5874086 5868511 
3423.332 5866698 5869821 5877411 5888025 5899948 5911468 5921646 5930043 
3427.190 5936929 5942404 5945998 5947745 5946872 5943849 5939616 5935317 
3431.047 5932562 5932696 5935652 5941061 5947544 5954060 5959199 5962727 
3434.905 5964138 5962929 5958964 5951709 5940859 5927356 5912006 5896354 
3438.762 5881610 5868511 5856455 5844801 5832543 5819715 5807257 5797216 
3442.619 5791743 5792482 5799131 5809742 5820991 5829185 5830932 5824988 
3446.477 5811790 5793456 5773510 5755849 5743157 5737550 5739598 5748026 
3450.334 5760986 5775290 5787915 5796075 5798123 5793556 5783550 5770387 
3454.192 5756923 5745239 5737416 5733689 5733253 5734562 5735536 5734092 
3458.049 5729257 5720092 5707300 5692193 5676650 5662987 5653185 5648083 
3461.906 5647512 5650030 5653655 5656609 5658019 5658019 5657348 5657885 
3465.764 5660201 5664062 5668325 5670910 5669701 5664162 5654763 5642947 
3469.621 5631534 5622203 5616027 5612872 5611563 5610623 5609012 5606729 
3473.479 5603910 5601393 5600285 5600520 5601493 5602668 5602601 5600654 
3477.336 5596526 5590317 5583000 5575381 5568266 5562192 5557661 5554104 
3481.194 5550949 5547526 5543096 5536753 5528967 5519672 5509672 5499403 
3485.051 5489538 5480075 5471217 5463499 5457057 5452796 5451319 5452561 
3488.908 5456588 5461889 5467257 5471519 5473633 5473465 5471754 5469405 
3492.766 5466788 5464137 5460882 5456319 5449877 5441724 5432363 5423170 
3496.623 5415252 5409415 5405825 5404181 5403308 5402403 5400692 5397337 
3500.481 5391768 5383650 5372512 5358557 5342757 5326589 5312334 5302573 
3504.338 5298481 5300594 5307705 5317600 5327025 5333801 5335679 5332057 
3508.196 5323000 5310086 5295026 5280303 5267457 5257798 5251728 5248810 
3512.053 5247536 5246697 5244786 5240795 5234892 5227749 5220875 5215241 
3515.910 5211586 5209440 5208299 5206925 5204443 5200989 5196965 5193277 
3519.768 5189689 5186000 5180802 5172956 5161522 5146669 5130139 5114281 
3523.625 5101541 5093629 5090712 5091483 5093495 5094702 5093260 5088600 
3527.483 5081091 5071503 5060541 5049110 5037478 5026584 5017199 5010629 
3531.340 5007914 5010059 5016696 5026350 5036640 5044551 5047434 5043277 
3535.198 5031847 5014048 4991691 4967359 4943296 4921579 4903618 4889711 
3539.055 4880563 4875704 4874867 4877413 4882775 4889946 4898222 4906298 
3542.912 4912934 4916586 4915883 4909080 4895508 4874800 4848195 4818175 
3546.770 4788257 4761792 4742027 4730304 4725983 4726786 4729433 4730169 
3550.627 4726385 4716939 4703005 4687396 4673932 4665994 4665324 4671755 
3554.485 4683478 4696674 4708263 4714929 4714828 4707761 4694765 4678252 
3558.342 4661004 4646134 4636154 4632805 4636690 4646536 4661037 4677415 
3562.199 4693190 4706588 4716503 4722700 4725279 4724140 4718144 4705249 
3566.057 4683377 4651359 4610535 4564994 4521099 4485477 4463482 4457021 
3569.914 4464553 4482229 4504459 4525552 4542192 4552170 4555920 4555485 
3573.772 4552438 4548353 4544134 4538978 4532147 4522672 4510184 4494516 
3577.629 4476605 4457356 4438242 4420869 4407547 4400116 4400852 4411296 
3581.487 4431848 4461440 4497663 4536232 4573298 4603938 4623595 4629121 
3585.344 4617969 4589472 4545239 4490599 4432015 4379063 4340374 4321833 
3589.201 4325883 4349811 4387799 4431915 4473827 4506200 4524280 4526690 
3593.059 4514871 4493646 4469340 4447949 4434626 4431614 4438409 4451967 
3596.916 4468135 4482229 4490498 4490900 4482731 4467667 4448452 4428601 
3600.774 4411932 4401254 4398041 4402627 4414174 4431045 4450761 4471249 
3604.631 4489661 4502953 4508008 4502082 4483200 4452100 4411998 4368085 
3608.489 4327623 4297204 4280003 4275854 4280003 4285793 4286395 4277360 
3612.346 4258588 4234196 4212649 4202312 4210307 4239249 4286562 4345026 
3616.203 4404467 4454042 4483803 4487285 4463047 4415882 4356070 4296735 
3620.061 4251227 4229378 4234832 4265916 4316914 4379900 4447045 4513566 
3623.918 4576111 4634245 4688166 4737104 4777436 4802462 4802328 4767453 
3627.776 4692755 4582808 4454511 4332241 4240286 4191438 4184513 4207698 
3631.633 4244870 4281409 4307076 4318119 4317148 4310991 4307812 4313567 
3635.490 4330501 4355903 4384954 4411129 4429739 4437974 4435831 4425086 
3639.348 4408685 4390041 4371901 4357743 4350749 4353694 4369223 4398242 
3643.205 4439581 4489293 4541891 4590175 4626509 4644560 4640206 4611272 
3647.063 4559570 4488724 4404401 4312865 4220846 4135705 4065497 4018475 
3650.920 4001453 4017572 4064594 4134902 4217200 4296902 4360220 4396233 
3654.778 4399012 4370428 4320997 4267556 4226099 4207899 4215092 4242193 
3658.635 4278933 4315140 4343955 4362462 4372169 4376687 4380268 4386125 
3662.492 4395196 4406911 4420200 4434091 4448518 4464353 4481627 4499605 
3666.350 4516244 4526757 4525150 4505363 4462578 4396602 4314739 4231687 
3670.207 4168020 4142195 4164541 4232289 4331472 4438978 4528163 4574906 
3674.065 4560407 4479752 4347168 4196557 4068473 3992023 3975939 4007707 
3677.922 4065296 4125637 4173306 4201709 4212817 4214389 4215560 4223389 
3681.780 4240721 4268125 4304833 4350347 4405572 4470646 4543431 4617567 
3685.637 4682071 4724911 4734256 4704344 4637695 4547214 4452234 4370863 
3689.494 4314873 4285592 4276490 4278966 4287131 4299546 4318487 4347067 
3693.352 4386293 4433589 4483970 4531478 4571791 4605311 4635718 4669276 
3697.209 4710775 4761021 4815059 4864245 4896279 4901171 4874197 4817404 
3701.067 4739683 4655009 4578388 4520898 4488322 4480924 4494717 4524112 
3704.924 4563253 4607354 4652028 4693492 4728629 4755059 4770937 4775259 
3708.781 4767755 4748158 4715800 4669511 4609162 4536768 4457992 4382544 
3712.639 4320964 4283417 4274416 4293288 4333480 4386828 4444000 4498232 
3716.496 4546378 4588534 4627514 4665793 4704244 4741358 4773550 4796599 
3720.354 4808392 4810268 4806616 4803668 4806583 4817136 4833151 4848564 
3724.211 4855801 4849469 4827321 4792378 4751574 4715129 4693324 4693157 
3728.069 4717374 4764271 4827891 4899764 4970442 5030674 5073280 5094802 
3731.926 5095305 5078376 5048808 5008417 4956567 4889376 4804070 4702335 
3735.783 4593490 4491804 4413806 4370060 4363232 4387933 4435062 4495286 
3739.641 4561746 4631231 4702000 4770334 4828661 4863105 4855299 4789229 
3743.498 4660167 4485811 4306473 4173205 4120786 4154405 4251796 4378561 
3747.356 4500308 4588267 4626107 4610468 4551668 4467198 4376486 4293556 
3751.213 4224393 4170931 4136006 4124432 4141726 4190301 4265749 4357074 
3755.071 4449222 4527795 4581368 4605411 4603068 4582306 4553409 4523811 
3758.928 4497797 4476203 4459766 4450025 4450929 4465691 4494449 4532951 
3762.785 4572595 4602431 4614621 4605947 4581168 4550362 4526623 4519190 
3766.643 4529637 4551400 4573265 4583679 4574336 4543833 4497797 4447079 
3770.500 4402325 4371666 4358614 4361893 4378360 4404066 4435831 4471048 
3774.358 4507506 4542326 4572395 4594261 4605144 4602967 4587697 4561244 
3778.215 4527761 4492708 4462143 4441757 4434895 4441288 4457892 4479384 
3782.073 4499538 4513063 4516780 4510218 4495955 4478413 4462511 4452669 
3785.930 4451765 4460603 4477810 4501346 4527761 4553074 4573332 4585119 
3789.787 4586626 4578656 4564894 4550764 4542594 4545038 4559135 4582004 
3793.645 4606617 4624935 4629992 4618673 4593289 4561947 4535462 4523543 
3797.502 4530976 4555217 4587831 4615090 4621720 4595834 4532884 4440451 
3801.360 4337663 4252298 4208635 4217835 4275352 4364169 4460603 4539916 
3805.217 4582540 4578287 4529770 4453305 4373373 4315007 4291716 4303897 
3809.074 4340775 4388937 4436602 4478346 4515173 4552438 4594930 4644158 
3812.932 4694597 4734926 4752144 4734524 4678487 4592787 4499036 4422978 
3816.789 4385891 4395631 4444100 4512729 4575977 4610636 4599518 4536868 
3820.647 4433020 4314270 4214490 4160225 4162902 4215560 4299479 4391046 
3824.504 4469675 4522572 4545875 4545473 4532817 4521768 4522337 4537605 
3828.362 4563689 4593189 4618204 4632905 4636254 4630126 4619510 4609363 
3832.219 4604039 4606148 4616596 4634379 4656750 4679257 4694698 4695468 
3836.076 4674769 4630159 4565563 4492005 4425254 4379364 4361860 4371098 
3839.934 4397472 4428702 4453205 4465089 4464419 4456419 4448987 4448853 
3843.791 4460436 4484305 4518253 4558766 4602666 4647641 4692588 4737104 
3847.649 4782059 4828963 4879960 4936995 5000641 5067212 5127188 5164708 
3851.506 5158739 5087527 4939575 4722968 4472554 4238345 4065865 3977979 
3855.364 3970822 4023959 4111788 4214021 4316111 4410325 4494516 4568142 
3859.221 4631064 4682271 4720120 4743267 4752110 4748627 4735898 4717039 
3863.078 4694430 4669846 4645799 4626944 4619275 4628853 4657755 4702402 
3866.936 4752345 4792344 4806817 4783902 4721728 4630628 4533587 4457323 
3870.793 4419697 4424250 4459733 4507305 4546679 4564994 4559268 4537773 
3874.651 4515842 4509381 4529000 4576279 4642952 4714929 4776699 4814691 
3878.508 4820151 4791641 4735596 4666061 4599719 4552572 4534592 4547416 
3882.365 4583813 4630528 4672525 4694966 4687966 4650588 4592017 4530473 
3886.223 4485912 4474262 4499872 4555887 4626341 4693090 4738779 4751374 
3890.080 4726853 4671353 4599317 4527594 4472287 4442192 4438409 4456117 
3893.938 4488256 4528599 4572897 4619175 4665894 4711613 4753384 4786817 
3897.795 4807487 4812546 4801859 4778743 4748426 4717006 4688435 4663784 
3901.653 4641144 4617233 4589204 4556255 4520429 4485945 4457691 4440116 
3905.510 4435262 4443631 4463683 4493478 4529938 4569581 4608559 4642484 
3909.367 4667602 4681836 4685554 4682305 4677716 4678788 4690377 4714493 
3913.225 4748426 4785912 4818577 4838010 4838880 4819984 4785108 4740587 
3917.082 4694765 4654607 4623897 4603536 4592184 4588065 4589472 4596303 
3920.940 4608493 4625906 4647507 4670482 4691181 4705918 4712215 4709569 
3924.797 4699990 4687430 4676611 4671152 4673195 4682271 4696909 4713890 
3928.655 4729734 4741659 4746952 4743702 4731443 4710976 4684984 4657621 
3932.512 4634948 4621821 4622557 4637929 4665592 4699990 4734424 4762696 
3936.369 4781054 4788893 4788458 4784539 4781624 4782528 4787553 4794287 
3940.227 4799179 4798475 4790568 4775292 4755896 4735965 4719116 4707928 
3944.084 4704043 4706488 4714259 4725212 4737707 4749565 4759078 4765108 
3947.942 4766917 4765075 4760954 4756633 4754321 4755460 4760284 4768090 
3951.799 4777336 4786850 4795929 4804807 4814154 4824842 4837239 4850541 
3955.656 4863441 4874096 4880932 4883210 4881166 4875403 4867261 4858013 
3959.514 4848664 4839718 4831778 4824741 4818912 4814054 4809732 4805912 
3963.371 4802563 4799916 4798710 4799849 4803735 4810871 4820487 4831576 
3967.229 4842533 4852149 4859554 4864546 4867428 4868735 4868634 4867294 
3971.086 4864781 4860760 4855633 4850005 4844744 4840690 4838814 4839283 
3974.944 4842566 4848530 4857275 4868668 4882104 4897116 4912598 4927109 
3978.801 4939609 4949060 4955260 4958410 4959047 4957740 4954590 4949998 
3982.658 4943832 4936258 4928148 4920708 4914911 4912163 4912665 4916653 
3986.516 4922920 4930829 4938838 4946312 4952411 4956735 4958980 4959651 
3990.373 4959114 4958478 4958846 4960958 4965180 4971112 4977213 4982106 
3994.231 4984419 4983413 4979491 4973827 4968063 4963203 4959818 4957807 
3998.088 4956466 4955495 4955059 4955159 4956869 4960287 
##END=
