##TITLE=1706e_1_a
##JCAMP-DX=5.01  $$ Nicolet v. 1
##DATATYPE=INFRARED SPECTRUM
##ORIGIN=UniL
##OWNER=Nicolet
##LONGDATE=2011/09/29
##TIME=12:39:19
##SPECTROMETER/DATA SYSTEM=Nicolet iS5
##DATA PROCESSING=
Ratio against background
%Transmittance->Absorbance
Truncated
ElementMultiply or ElementDivide
##COMMENTS=
Number of sample scans: 32
Collection length: 51.22 sec
Sample gain: 2.0
Background collected on: Jeu Sep 29 12:37:09 2011 (GMT+02:00);
Number of background scans: 32
Background gain: 2.0
Sample spacing:  1.000
Number of scan points: 12415
Resolution points: 8192
Number of FFT points: 65536
Apodization: N-B fort;
Phase correction: Mertz;
Laser frequency: 15798.0 cm-1
Number of rejected sample scans: 0
Number of rejected background scans: 0
Bench serial number: ASB1000141;
##RESOLUTION=4.000
##XUNITS=1/CM
##YUNITS=ABSORBANCE
##FIRSTX=649.893372
##LASTX=4000.122314
##FIRSTY=0.029774
##MAXX=4000.122314
##MINX=649.893372
##MAXY=0.288438
##MINY=-0.001025
##XFACTOR=1.000000
##YFACTOR=1.000000E-009
##NPOINTS=6950
##DELTAX=0.482117
##ZPD=6100
##XYDATA=(X++(Y..Y))
649.893 29773820 29206532 28719556 28288326 27912672 27609828 27398734 
653.268 27284966 27256672 27286730 27346186 27412602 27473806 27525556 
656.643 27565730 27589880 27591292 27567460 27525202 27481076 27458414 
660.018 27476276 27539922 27638958 27753702 27866918 27973344 28086088 
663.393 28229412 28430760 28705398 29052684 29454216 29879758 30293460 
666.767 30655566 30937274 31128844 31248606 31329476 31405836 31497992 
670.142 31611118 31740318 31875976 32007106 32121650 32210532 32271952 
673.517 32312210 32346978 32395494 32476682 32600496 32766112 32962066 
676.892 33172342 33382796 33585112 33778860 33967320 34153172 34334764 
680.267 34506636 34662576 34800044 34923948 35045156 35177212 35332456 
683.642 35519464 35742032 36002472 36304240 36653472 37058384 37526628 
687.016 38063192 38671256 39353884 40118544 40980128 41958732 43078528 
690.391 44367244 45853516 47575008 49587508 51963560 54802036 58222660 
693.766 62348908 67314448 73254112 80295248 88557408 98114032 108937600 
697.141 120793192 133146688 145140400 155518112 162886800 166018448 
700.034 164124208 157191632 145974416 131845712 116361568 101006744 86975656 
703.408 74959376 65245876 57771236 52252300 48301264 45522596 43590380 
706.783 42229172 41225544 40422388 39691280 38946868 38150804 37308200 
710.158 36460568 35663212 34969588 34409392 33987600 33690196 33498454 
713.533 33398576 33385478 33460054 33621704 33862532 34168692 34523784 
716.908 34916876 35345720 35816980 36339144 36917312 37549064 38226636 
720.282 38943572 39701444 40513748 41402392 42391120 43493756 44707824 
723.657 46011960 47372204 48749656 50108172 51425444 52693304 53918772 
727.032 55120616 56329192 57584192 58931396 60424880 62121732 64071244 
730.407 66314824 68878952 71775464 75009944 78589680 82531776 86870944 
733.782 91655888 96942160 102784552 109222392 116272648 123925224 132146640 
737.156 140881024 150048672 159558880 169301280 179154944 189017440 
740.049 198822416 208576016 218361808 228321888 238578160 249126432 
742.942 259721696 269812512 278606464 285114816 288437568 287991040 
745.835 283601664 275529024 264301296 250550384 234839328 217636384 
748.727 199362080 180428800 161310992 142557200 124694808 108228568 93573672 
752.102 80990776 70646880 62620028 56928040 53574528 52533712 53721344 
755.477 56923960 61745296 67604520 73692840 79130416 83106576 84967680 
758.852 84394272 81406736 76337680 69706280 62124560 54211928 46476100 
762.227 39331612 33076078 27867130 23750814 20656306 18429980 16858318 
765.601 15723376 14856556 14144927 13545785 13061398 12706701 12482536 
768.976 12365486 12313399 12285857 12260226 12236130 12228803 12253785 
772.351 12313432 12392964 12467942 12517763 12538157 12543341 12558928 
775.726 12605281 12689370 12799443 12915074 13017045 13099814 13172215 
779.101 13251802 13351597 13471032 13594637 13700939 13774159 13813664 
782.475 13835452 13863366 13918549 14007170 14119152 14234485 14336047 
785.850 14417663 14487269 14560347 14650025 14758643 14876683 14987724 
789.225 15079308 15151182 15215279 15289510 15387439 15511419 15652437 
792.600 15796490 15934851 16071573 16223572 16414853 16664330 16979686 
795.975 17356998 17786202 18259546 18775718 19335838 19933038 20539810 
799.350 21106422 21561394 21831720 21867748 21655418 21225990 20642928 
802.724 19989654 19342594 18755306 18259064 17863740 17568926 17372240 
806.099 17271516 17262966 17335822 17473158 17651598 17847272 18041340 
809.474 18220394 18374084 18492280 18561056 18565654 18496636 18355520 
812.849 18159586 17936906 17720656 17536770 17396138 17295066 17220180 
816.224 17158890 17105776 17065556 17048016 17060940 17103434 17164716 
819.598 17228454 17282136 17321858 17354722 17393380 17449324 17526006 
822.973 17617644 17712648 17801082 17880382 17956726 18040614 18140516 
826.348 18258372 18387736 18518904 18644196 18763368 18883884 19016932 
829.723 19170452 19345262 19534836 19730840 19929532 20136402 20365146 
833.098 20632122 20947176 21306546 21690944 22069514 22410904 22687976 
836.473 22886036 23002882 23046030 23029364 22969378 22886804 22804278 
839.847 22745512 22732872 22780010 22888200 23044982 23229956 23422110 
843.222 23608262 23789136 23977546 24192766 24451378 24762410 25126640 
846.597 25540474 26002826 26519764 27102912 27765710 28514642 29344272 
849.972 30235516 31161096 32093752 33010650 33899860 34758080 35586716 
853.347 36387820 37161348 37905704 38619720 39304040 39960416 40589084 
856.721 41185216 41736680 42226140 42633576 42942252 43142672 43232300 
860.096 43214292 43093128 42873088 42558064 42154096 41674016 41138080 
863.471 40572060 40004920 39459752 38951688 38487116 38066048 37687084 
866.846 37351172 37061416 36821148 36629824 36481724 36365228 36266920 
870.221 36176448 36087544 35998368 35908560 35814928 35709544 35581500 
873.596 35419768 35217924 34976664 34702948 34405268 34089552 33756980 
876.970 33404372 33028130 32629534 32217208 31807444 31420868 31075310 
880.345 30784944 30557936 30397212 30302980 30272604 30298788 30364520 
883.720 30441670 30493490 30476394 30352438 30098314 29709384 29201040 
887.095 28603002 27953662 27288990 26640446 26035260 25494266 25035792 
890.470 24673216 24411596 24244684 24153180 24109362 24080466 24036654 
893.844 23957832 23833484 23662386 23448968 23200352 22924632 22630970 
897.219 22331540 22040614 21772702 21539770 21347022 21192696 21069380 
900.594 20968838 20886050 20821322 20779678 20767654 20788612 20841552 
903.969 20920890 21019922 21135294 21268130 21424778 21613176 21840744 
907.344 22112116 22430442 22799880 23229712 23733770 24330182 25034106 
910.719 25850670 26767680 27753348 28755170 29700656 30513574 31118130 
914.093 31451930 31483066 31214104 30689560 29985222 29206356 28467374 
917.468 27867590 27487748 27372830 27532332 27946630 28575824 29369654 
920.843 30267950 31207874 32123544 32942764 33600256 34042140 34234440 
924.218 34172492 33878900 33399970 32789730 32102886 31384822 30664314 
927.593 29959058 29277382 28622856 27996598 27397780 26823716 26270370 
930.967 25735410 25220282 24733402 24287852 23898140 23576110 23325428 
934.342 23141532 23013642 22930290 22882716 22867350 22883800 22931828 
937.717 23007422 23102636 23207342 23312878 23415640 23518532 23627992 
941.092 23750568 23888582 24038896 24195006 24349946 24500666 24649194 
944.467 24801420 24963138 25137278 25321708 25511520 25701414 25889460 
947.841 26078114 26272730 26478946 26699532 26933520 27177370 27428590 
951.216 27687656 27958996 28248754 28562058 28899988 29259164 29634280 
954.591 30021508 30422016 30843314 31296500 31792972 32341518 32946050 
957.966 33607384 34326012 35104928 35951428 36875252 37885744 38989852 
961.341 40192068 41495276 42905128 44432424 46093528 47909828 49903620 
964.716 52092532 54489096 57097944 59917228 62936664 66137380 69489104 
968.090 72942968 76433408 79878088 83176232 86226312 88928872 91193616 
971.465 92952840 94158600 94783176 94818336 94271216 93164336 91533632 
974.840 89431432 86924448 84084968 80992048 77721600 74339056 70906224 
978.215 67476856 64098052 60815796 57669060 54689092 51900824 49321724 
981.590 46965504 44847332 42982852 41388364 40074976 39040312 38261588 
984.964 37690012 37257908 36878356 36460568 35930736 35237112 34366468 
988.339 33342936 32226664 31097164 30034750 29110858 28369882 27825620 
991.714 27464698 27256284 27164140 27154688 27206366 27307618 27453580 
995.089 27641326 27865788 28119528 28394996 28687168 28996324 29327148 
998.464 29686926 30081908 30515066 30984704 31485558 32010208 32550280 
1001.839 33096638 33640924 34174824 34693008 35195176 35688036 36184980 
1005.213 36703916 37263360 37876020 38546968 39272924 40046268 40859764 
1008.588 41711512 42606852 43558292 44582052 45694096 46910096 48245272 
1011.963 49716404 51345408 53159440 55187468 57460120 60002284 62829776 
1015.338 65946116 69339160 72977344 76801840 80730848 84655912 88446304 
1018.713 91975832 95129936 97827384 100035584 101768904 103082392 104048312 
1022.087 104744264 105231104 105542416 105689384 105664912 105455304 
1024.980 105045896 104423664 103574024 102472112 101081800 99357464 97250104 
1028.355 94727256 91784800 88460320 84829416 81003432 77115888 73292440 
1031.731 69648712 66273220 63216544 60499296 58113368 56033320 54224016 
1035.106 52652380 51293240 50129184 49149900 48348852 47718772 47251604 
1038.481 46939444 46777228 46765348 46911608 47230880 47742516 48467788 
1041.856 49425488 50623620 52050880 53662476 55376492 57060236 58538340 
1045.232 59628288 60151816 59986380 59096276 57544544 55486868 53131724 
1048.607 50720280 48463864 46515668 44969948 43855532 43158736 42843576 
1051.982 42872796 43217256 43860260 44798032 46037084 47593236 49488904 
1055.357 51750964 54401728 57444992 60847284 64517968 68307768 71988232 
1058.733 75278088 77888704 79539184 80032712 79293848 77385648 74502224 
1062.108 70928344 67009912 63066944 59365068 56093264 53338628 51110048 
1065.483 49357736 48007072 46977244 46198140 45619344 45200752 44909572 
1068.858 44718144 44600372 44536272 44515232 44534652 44597580 44707896 
1072.234 44865852 45067784 45309052 45588688 45914796 46304216 46783428 
1075.609 47380408 48122176 49031664 50123680 51402956 52856812 54449580 
1078.984 56107400 57712880 59120120 60154288 60650032 60490080 59620612 
1082.359 58075376 55962456 53453996 50742920 48007920 45404648 43037620 
1085.735 40965164 39209272 37760920 36591796 35660948 34925420 34343728 
1089.110 33881264 33515598 33233612 33029098 32899118 32839258 32843084 
1092.485 32904230 33019480 33192266 33432678 33755976 34177868 34709804 
1095.860 35359376 36129452 37020244 38029480 39149112 40359332 41619132 
1099.236 42866688 44017868 44972996 45641132 45947904 45853480 45360836 
1102.611 44514092 43392172 42088056 40706792 39347280 38089560 36999856 
1105.986 36120632 35472616 35060636 34878488 34916008 35163128 35610524 
1109.361 36243396 37030924 37921356 38835980 39671384 40323520 40697584 
1112.737 40729496 40401364 39741056 38816740 37713868 36527312 35342520 
1116.112 34222572 33213868 32342304 31616752 31033528 30579018 30234238 
1119.487 29977304 29789540 29656734 29569794 29522978 29511488 29528154 
1122.862 29563942 29609094 29655530 29699522 29741566 29784856 29831240 
1126.238 29879580 29924660 29959768 29978796 29979826 29965234 29940350 
1129.613 29909928 29876066 29837132 29789824 29731310 29662164 29586428 
1132.988 29509428 29435814 29366534 29298436 29226912 29148914 29064906 
1136.363 28979820 28900378 28832318 28777544 28733574 28695522 28659204 
1139.739 28623634 28591642 28568074 28556680 28558380 28570374 28588244 
1143.114 28608842 28632340 28662426 28704086 28760550 28831326 28911250 
1146.489 28993810 29073268 29147922 29219646 29293296 29372916 29459498 
1149.864 29551562 29646200 29742312 29842242 29951994 30078250 30226990 
1153.240 30401476 30603192 30835594 31106846 31430450 31825058 32306574 
1156.615 32881752 33541658 34260684 34997244 35700412 36323620 36830708 
1159.990 37205888 37457672 37619008 37742092 37884044 38100156 38425976 
1163.365 38866124 39388240 39925476 40392528 40696420 40765928 40567328 
1166.740 40112584 39455544 38678212 37876492 37132580 36508068 36039264 
1170.116 35736672 35594552 35597000 35725480 35960352 36283056 36678604 
1173.491 37135324 37646832 38212920 38837900 39528992 40292288 41131448 
1176.866 42046948 43037620 44102220 45241492 46457364 47752168 49126152 
1180.241 50576156 52095336 53674920 55305396 56976848 58679784 60402220 
1183.617 62128920 63843088 65527752 67170160 68767096 70325192 71859664 
1186.992 73386360 74913632 76430872 77903496 79265576 80427616 81287376 
1190.367 81734568 81677544 81053944 79840928 78063088 75790776 73136472 
1193.742 70230192 67213712 64221992 61358888 58702316 56298752 54167108 
1197.118 52310824 50723928 49396376 48314592 47461600 46818188 46362020 
1200.493 46072748 45934980 45938552 46079120 46354680 46762652 47298300 
1203.868 47955188 48726784 49609420 50602548 51707224 52922008 54239520 
1207.243 55642692 57106716 58598096 60078680 61511676 62858500 64082920 
1210.619 65152584 66037304 66714092 67169968 67404408 67431648 67278464 
1213.994 66984400 66593224 66151692 65709224 65312108 65006628 64837872 
1217.369 64843372 65052548 65483020 66138924 67013740 68093840 69363840 
1220.744 70807736 72409664 74154488 76022256 77988856 80026976 82104160 
1224.120 84188080 86247448 88250568 90167704 91970872 93633352 95134720 
1227.495 96464008 97623768 98632168 99523232 100344568 101147296 101984704 
1230.870 102905568 103947272 105138912 106496856 108024568 109711128 
1233.763 111531000 113446760 115407128 117354952 119231664 120974704 
1236.656 122523368 123817032 124787272 125363456 125470352 125030024 
1239.549 123977192 122263616 119866760 116795496 113090056 108819672 
1242.442 104072656 98959912 93607288 88140432 82690032 77373056 72279368 
1245.818 67477280 63006648 58884604 55115500 51694272 48609776 45844384 
1249.193 43374340 41170136 39198284 37428600 35835868 34401396 33112478 
1252.568 31957600 30923396 29995128 29156780 28395314 27703830 27081118 
1255.943 26529414 26050530 25642010 25297052 25006272 24760798 24556130 
1259.319 24392318 24271980 24196442 24163478 24166212 24196162 24246716 
1262.694 24315816 24406338 24523804 24673076 24854922 25066504 25302914 
1266.069 25560962 25841174 26148030 26487292 26863300 27276570 27724068 
1269.444 28201834 28708796 29248956 29831064 30466088 31163124 31927786 
1272.820 32762110 33666812 34645604 35706848 36863600 38131412 39523544 
1276.195 41048952 42711948 44513216 46451984 48526736 50734432 53065976 
1279.570 55503020 58017736 60569612 63111348 65595144 67970688 70192096 
1282.945 72217352 74003352 75509104 76694920 77522752 77963040 77996304 
1286.321 77615176 76824616 75640096 74085088 72187064 69979664 67503600 
1289.696 64804672 61938156 58964676 55941876 52927548 49972164 47117340 
1293.071 44401812 41858452 39513604 37387712 35489948 33818508 32361686 
1296.446 31102040 30020940 29101114 28328288 27689386 27168692 26749604 
1299.822 26413730 26144724 25932474 25773874 25672344 25633538 25662326 
1303.197 25759846 25924278 26153838 26450210 26820334 27275934 27828728 
1306.572 28484888 29239316 30073136 30952394 31827376 32641538 33332702 
1309.947 33839320 34113996 34128080 33881480 33405338 32762182 32037138 
1313.323 31315480 30676226 30173532 29831416 29650776 29617252 29713394 
1316.698 29924376 30241378 30658944 31169924 31763632 32425624 33140014 
1320.073 33894376 34680592 35492248 36322644 37159436 37982904 38769604 
1323.448 39494080 40133556 40672512 41099868 41407460 41588100 41633684 
1326.823 41538076 41301260 40933120 40455080 39895832 39289244 38665752 
1330.199 38049372 37460056 36913344 36424536 36009708 35682784 35452912 
1333.574 35322212 35286056 35336876 35468844 35682136 35983644 36385080 
1336.949 36897292 37528616 38280984 39151396 40131300 41205728 42350648 
1340.324 43527380 44683508 45759036 46691472 47434988 47971136 48317076 
1343.700 48524696 48672776 48855352 49154168 49633972 50335180 51275156 
1347.075 52459228 53888648 55566092 57496808 59687968 62146924 64882420 
1350.450 67904312 71222048 74838824 78741104 82888288 87194344 91531064 
1353.825 95733816 99606320 102965232 105661272 107601304 108765144 109194904 
1357.201 108977208 108207704 106978168 105358632 103389000 101087656 
1360.094 98455144 95484816 92176032 88550296 84662720 80611472 76525592 
1363.469 72537344 68762208 65270208 62083200 59189564 56561360 54173152 
1366.844 52013048 50082144 48387372 46931800 45708308 44699116 43880608 
1370.219 43231568 42733956 42372492 42132080 41993368 41935196 41940996 
1373.595 42003040 42127700 42330448 42628640 43030012 43529392 44111424 
1376.970 44760824 45471748 46253720 47130784 48136096 49305208 50669528 
1380.345 52260560 54116552 56282384 58808644 61732884 65055320 68712168 
1383.720 72556648 76375016 79868680 82698568 84547088 85155488 84427024 
1387.096 82466824 79586064 76201856 72721808 69482296 66679752 64397508 
1390.471 62640244 61363160 60500628 59980292 59739708 59726632 59902808 
1393.846 60246928 60745556 61386784 62153236 63016572 63939280 64882152 
1397.221 65804408 66672296 67463768 68168920 68792600 69349848 69859392 
1400.597 70333336 70771536 71159160 71471376 71677872 71749232 71666696 
1403.972 71426656 71042112 70538352 69946576 69295432 68604320 67884472 
1407.347 67141888 66381648 65614336 64858840 64139680 63487248 62929884 
1410.722 62487892 62171356 61979772 61905368 61936820 62063968 62278424 
1414.098 62572076 62937432 63365928 63848264 64378524 64955644 65587864 
1417.473 66294752 67108824 68073112 69226648 70600960 72207648 74039024 
1420.848 76081912 78325584 80767840 83413216 86268384 89332808 92583944 
1424.223 95974864 99435072 102874568 106204368 109338296 112195624 114710688 
1427.599 116829144 118518744 119776680 120631144 121132984 121335888 
1430.492 121292072 121045408 120636128 120111400 119520936 118902288 
1433.385 118266696 117580984 116767264 115713840 114320048 112551384 
1436.278 110490648 108333120 106320072 104645336 103386392 102520952 
1439.171 101969824 101649472 101495952 101475440 101579048 101808440 
1442.064 102164384 102641080 103228192 103917560 104708928 105611112 
1444.957 106638928 107808768 109136712 110638960 112334568 114249440 
1447.850 116411552 118844912 121562856 124555880 127785296 131172792 
1450.743 134606528 137930560 140960736 143531872 145510432 146823712 
1453.636 147450640 147389136 146624704 145113952 142818112 139760320 
1456.529 136085808 132072224 128024560 124152008 120513232 117071600 
1459.422 113775632 110613648 107619352 104853840 102377272 100212168 
1462.315 98348960 96756760 95406552 94292952 93441600 92894808 92687752 
1465.691 92827920 93293784 94049384 95060272 96301936 97753720 99393584 
1469.066 101195776 103125832 105156344 107275752 109490352 111820536 
1471.959 114281344 116859664 119496752 122100624 124570752 126825808 
1474.852 128810944 130499840 131893160 133013664 133905560 134625472 
1477.745 135239472 135811296 136393824 137033264 137765712 138618128 
1480.638 139611680 140757360 142056752 143500784 145069312 146728976 
1483.531 148425184 150084208 151606528 152864656 153726400 154056496 
1486.424 153734240 152667856 150790192 148059808 144465472 140043920 
1489.317 134909120 129266232 123410104 117660952 112276288 107404896 
1492.210 103053952 99121744 95446680 91859832 88225272 84467832 80586464 
1495.586 76647880 72763104 69042680 65563812 62356716 59420040 56736372 
1498.961 54288512 52062500 50042544 48208840 46540380 45022204 43649728 
1502.336 42425204 41352720 40422532 39601760 38827972 38019792 37101036 
1505.711 36036672 34873532 33733556 32755644 32014702 31496246 31125996 
1509.087 30825848 30540836 30250118 29958880 29684158 29440848 29232794 
1512.462 29054704 28898644 28761930 28649048 28568038 28522888 28509300 
1515.837 28516482 28536086 28572498 28646818 28788414 29022112 29352496 
1519.212 29761116 30209586 30658340 31083426 31494286 31926896 32423448 
1522.588 33000174 33636164 34283484 34890840 35427680 35893556 36322752 
1525.963 36767884 37282100 37893772 38601832 39387152 40231104 41129264 
1529.338 42092872 43140404 44285048 45525944 46852700 48252792 49726548 
1532.713 51294920 52997356 54872972 56931552 59151636 61488084 63900700 
1536.089 66362268 68870944 71453376 74146944 76995952 80034104 83266808 
1539.464 86656096 90123744 93587440 96978976 100264840 103448416 106543944 
1542.839 109562960 112500160 115330640 118009304 120483144 122710912 
1545.732 124667256 126339240 127711832 128741992 129352672 129451632 
1548.625 128952312 127827808 126134264 124002760 121575520 118936536 
1551.518 116080112 112922080 109359608 105347016 100954240 96376184 91882968 
1554.894 87694552 83915824 80501784 77285400 74024096 70463088 66433384 
1558.269 61949392 57296840 52947720 49316380 46556572 44576984 43169896 
1561.644 42131860 41309788 40596944 39930268 39281732 38656516 38083880 
1565.019 37604012 37249784 37028036 36917132 36871536 36839940 36775852 
1568.395 36651024 36463632 36236124 36005352 35804888 35656524 35565856 
1571.770 35527020 35527020 35547516 35565172 35548200 35461756 35278148 
1575.145 34992108 34636092 34279400 34007200 33879472 33913504 34088760 
1578.520 34368940 34721040 35125908 35580996 36093372 36672116 37320480 
1581.896 38032268 38792756 39584992 40392384 41202884 42009972 42811984 
1585.271 43613204 44424384 45264660 46158560 47132780 48212728 49415948 
1588.646 50751340 52221060 53824544 55561496 57431868 59431212 61543556 
1592.021 63735328 65960580 68163768 70292976 72311896 74199800 75951768 
1595.396 77571040 79064000 80436944 81696736 82855000 83928240 84935080 
1598.772 85892688 86807936 87671872 88454832 89107952 89562912 89732472 
1602.147 89526136 88853200 87641432 85860504 83532920 80743376 77620208 
1605.522 74332528 71061312 67967504 65194092 62837244 60939304 59494968 
1608.897 58463312 57790272 57422416 57322096 57463940 57824604 58376284 
1612.273 59082760 59900868 60792932 61728912 62687472 63657016 64629616 
1615.648 65603196 66584608 67600104 68692840 69904032 71264328 72775088 
1619.023 74409248 76117280 77842800 79539904 81175320 82744952 84269504 
1622.398 85787064 87333208 88926680 90566624 92238072 93927864 95635024 
1625.774 97370448 99150672 100989856 102896408 104876744 106945528 109130104 
1629.149 111475400 114029448 116824368 119865880 123126864 126563040 
1632.042 130118312 133756800 137478544 141317456 145339728 149616160 
1634.935 154194368 159057568 164132128 169331424 174583040 179863120 
1637.828 185175952 190523824 195880304 201182400 206357648 211328016 
1640.721 216044240 220497744 224699568 228655136 232340704 235683440 
1643.614 238579952 240927312 242649872 243737600 244254240 244343280 
1646.507 244180784 243946112 243799296 243849664 244163664 244760912 
1649.400 245612240 246629088 247646848 248440368 248710272 248171856 
1652.293 246714912 244591136 242394704 240701328 239744432 239352928 
1655.187 239186624 238911168 238313440 237304848 235886816 234116272 
1658.080 232060832 229769216 227249776 224480288 221426160 218059392 
1660.973 214369776 210369568 206093792 201604672 196995296 192381504 
1663.866 187881056 183579504 179499392 175591808 171737344 167772624 
1666.759 163516736 158817152 153589888 147850464 141718976 135391536 
1669.652 129094304 123025072 117323000 112057720 107233976 102802144 
1672.545 98666848 94702240 90781496 86825664 82857608 79032552 75601960 
1675.920 72799232 70752944 69445168 68763528 68571296 68771288 69327920 
1679.295 70252544 71571936 73293304 75385872 77807008 80540192 83639240 
1682.671 87253976 91605560 96896800 103147848 110144392 117527512 124981192 
1686.046 132364960 139695120 147056736 154505344 162012288 169465776 
1688.939 176658688 183364912 189407376 194688000 199211808 203055184 
1691.832 206326048 209111824 211449040 213305536 214589872 215180752 
1694.725 214996144 214074208 212622320 210951952 209299568 207711072 
1697.618 205996256 203806896 200704976 196331632 190616784 183959424 
1700.511 177160512 171004944 165885648 161697200 158064672 154557504 
1703.404 150849616 146760608 142258768 137435840 132458896 127508432 
1706.297 122711528 118125320 113747480 109541904 105454920 101422376 
1709.190 97378944 93267336 89058040 84760248 80426144 76132800 71948696 
1712.566 67923256 64067824 60364376 56789956 53338552 50031612 46912348 
1715.941 44020400 41370392 38939256 36693132 34613484 32720200 31066376 
1719.316 29702608 28643350 27852680 27254414 26756052 26282866 25796130 
1722.691 25307166 24861764 24516336 24301096 24204080 24176264 24157768 
1726.067 24105578 24005102 23867962 23713124 23546272 23349310 23087996 
1729.442 22729766 22266176 21717800 21123050 20508478 19868726 19153934 
1732.817 18291444 17223320 15967473 14636660 13398478 12381509 11618070 
1736.192 11053534 10591472 10142045 9644226 9083500 8486227 7904215 7382969 
1740.050 6938901 6555831 6203179 5858973 5524269 5218863 4967627 4781490 
1743.907 4648679 4539849 4424049 4287265 4138582 4004597 3911206 3869182 
1747.765 3863465 3861593 3827897 3745406 3624004 3496157 3396898 3344272 
1751.622 3330382 3329513 3316659 3282471 3237703 3204590 3203555 3239773 
1755.479 3300266 3358830 3392757 3394994 3381503 3378531 3409354 3478321 
1759.337 3568511 3648930 3690866 3683615 3641045 3594971 3577999 3606297 
1763.194 3671084 3748147 3812354 3852300 3873127 3891280 3922206 3970589 
1767.052 4025498 4066467 4075731 4050045 4003293 3957615 3929662 3917425 
1770.909 3899036 3842238 3723683 3545227 3337761 3143910 2996819 2901677 
1774.767 2839205 2777910 2692851 2576509 2441206 2309742 2202095 2122143 
1778.624 2055788 1977195 1864539 1713623 1541144 1376778 1245204 1154033 
1782.481 1089885 1027508 942359 825623 687578 552331 442697 367081 315782 
1786.821 269065 208860 129639 41485 -36512 -87597 -108699 -113270 -126984 
1791.161 -172262 -256613 -364785 -468295 -538988 -566884 -561656 -544647 
1795.018 -534686 -537896 -546202 -543720 -517047 -464191 -396963 -334723 
1798.875 -294494 -279892 -279428 -271713 -239029 -175376 -91208 -3777 71873 
1803.215 132589 187877 254311 344332 458717 585973 708652 813539 898231 
1807.555 972578 1051289 1144332 1248660 1347396 1416302 1437345 1406595 
1811.412 1336993 1249756 1164166 1088457 1016913 937212 839732 725611 608468 
1815.752 508142 439347 405186 394109 387907 370895 339922 304475 281266 
1820.091 282426 308057 345128 374874 382767 365556 332362 299104 279244 
1824.431 275232 277752 272778 251858 217546 183269 163547 166298 185523 
1828.771 203921 199777 160961 92122 13916 -49532 -83854 -91274 -87961 -93891 
1833.592 -123108 -175111 -235850 -285587 -310719 -311050 -300123 -296150 
1837.450 -312474 -349125 -393222 -426589 -436255 -422650 -398055 -380410 
1841.307 -382132 -405404 -440095 -471076 -486698 -487062 -483587 -491397 
1845.165 -516649 -552092 -580286 -584984 -559406 -511354 -458664 -420697 
1849.022 -407821 -415269 -425861 -419572 -385575 -327538 -261779 -207700 
1852.879 -177760 -170408 -172097 -165439 -140399 -100119 -60034 -37439 
1856.737 -42078 -70205 -105817 -130561 -132780 -115423 -92202 -79878 -87034 
1861.076 -108566 -128077 -128309 -100152 -49035 8581 52852 72967 71343 62826 
1865.898 64450 84798 118569 147570 151846 120558 60341 -7289 -57583 -77096 
1870.720 -69874 -53773 -48439 -65799 -102968 -145864 -175939 -181834 -164744 
1875.060 -136822 -112641 -99125 -90579 -71298 -24651 57889 170342 295987 
1879.399 414671 513383 591547 657811 721363 783863 834188 854439 827382 
1883.739 747285 624097 480444 341050 220098 117873 21835 -82065 -200613 
1888.078 -326976 -443967 -531939 -582006 -599610 -603183 -611654 -634616 
1891.936 -667899 -698003 -709747 -696978 -666046 -632201 -611191 -608510 
1895.793 -616121 -616782 -595374 -547360 -482660 -420135 -378590 -365877 
1899.651 -375511 -390441 -394513 -381966 -361408 -350979 -366804 -414276 
1903.508 -483289 -553284 -602985 -622936 -618403 -606029 -602621 -616021 
1907.365 -640472 -661414 -664657 -646096 -614962 -589551 -585812 -608047 
1911.223 -645997 -680636 -696382 -689005 -669255 -656088 -666245 -704090 
1915.080 -759033 -810960 -841782 -846742 -836590 -831861 -850909 -897402 
1918.938 -957544 -1007100 -1024950 -1005480 -960288 -913240 -885630 -888540 
1922.795 -915092 -946997 -964421 -958007 -933938 -908115 -895054 -898460 
1926.653 -908677 -908379 -883580 -832688 -768790 -712989 -683282 -683050 
1930.510 -699757 -711070 -699128 -659330 -603977 -553515 -525850 -523301 
1934.367 -532601 -529722 -495336 -425927 -335915 -250454 -190578 -163419 
1938.225 -157755 -151727 -125725 -74346 -8946 48179 79595 82180 71509 72138 
1943.047 106108 177237 271452 364329 436561 486481 531032 596789 705200 
1947.386 861045 1049794 1246500 1429765 1595049 1755838 1937521 2158038 
1951.244 2419148 2700786 2970096 3195778 3359131 3458782 3505075 3507447 
1955.101 3465228 3365943 3195611 2950513 2649044 2329962 2039276 1814128 
1958.958 1664460 1572635 1504103 1429200 1338754 1247231 1181010 1159681 
1962.816 1184067 1233009 1275045 1286576 1266172 1235867 1230617 1275577 
1966.673 1375715 1508891 1642973 1750681 1826871 1887833 1961950 2067740 
1970.531 2201495 2334859 2430044 2458766 2415849 2322467 2214417 2123808 
1974.388 2062646 2022465 1984052 1936655 1888066 1863241 1888066 1972169 
1978.246 2095407 2217647 2293286 2295252 2226340 2117082 2007652 1928202 
1982.103 1886968 1870396 1855954 1827603 1786878 1751347 1744294 1776365 
1985.960 1839848 1907801 1951632 1954628 1920946 1874289 1843409 1846836 
1989.818 1880479 1922045 1942380 1924541 1872525 1809869 1765852 1758832 
1993.675 1785215 1822346 1840115 1819618 1761527 1687011 1622386 1586369 
1997.533 1578920 1582445 1573799 1538916 1482259 1425044 1393066 1400578 
2001.390 1440569 1487945 1513147 1498418 1449578 1392468 1364613 1391770 
2005.248 1477970 1603030 1734480 1845938 1927170 1987414 2042971 2106294 
2009.105 2173755 2228305 2251885 2237930 2198431 2160668 2150912 2181814 
2012.962 2243259 2309142 2349317 2348151 2313073 2270304 2251085 2273101 
2016.820 2331561 2402689 2459166 2483825 2481293 2473162 2485158 2530348 
2020.677 2601642 2674614 2723692 2734495 2714256 2684749 2671514 2686216 
2024.535 2720191 2749266 2748999 2709221 2642243 2576476 2540480 2547646 
2028.392 2587542 2632576 2652311 2632143 2580043 2523949 2493389 2505986 
2032.250 2556211 2622709 2679782 2713055 2726959 2740130 2773008 2832535 
2036.107 2908415 2978103 3023044 3038025 3037758 3047001 3089813 3172013 
2039.964 3280101 3384976 3459650 3492216 3492683 3485435 3497560 3545060 
2043.822 3624305 3718102 3806805 3881016 3947884 4027170 4138749 4292084 
2047.679 4479150 4678118 4862670 5013646 5125076 5202364 5253773 5285233 
2051.537 5296838 5285736 5252801 5206723 5164104 5140768 5146266 5175069 
2055.394 5208467 5222115 5198742 5135269 5045356 4950334 4870712 4814322 
2059.251 4775460 4738443 4688535 4621218 4543833 4470981 4414810 4376151 
2063.109 4344089 4300550 4230081 4129316 4008376 3886867 3781870 3700323 
2066.966 3635398 3572487 3497727 3406549 3306910 3214103 3142809 3097488 
2070.824 3070959 3048169 3015937 2969629 2915954 2868956 2841640 2837838 
2074.681 2850978 2867088 2873392 2865487 2848877 2835203 2835070 2850412 
2078.539 2874226 2893872 2897941 2883832 2857882 2832802 2818328 2817027 
2082.396 2821329 2819195 2799852 2760236 2706787 2651278 2603742 2566910 
2086.253 2534547 2496055 2442638 2373270 2294952 2219612 2157305 2109890 
2090.111 2071369 2030721 1980690 1921346 1863008 1820050 1804678 1820350 
2093.968 1860612 1912060 1961518 2002759 2037612 2072567 2112853 2157971 
2097.826 2200396 2230236 2240728 2233633 2217447 2205392 2206158 2220145 
2101.683 2239562 2253484 2253950 2241793 2225507 2217314 2225474 2249287 
2105.541 2278864 2299815 2302014 2283660 2253317 2224008 2207423 2207423 
2109.398 2219179 2232734 2239628 2237630 2231968 2230802 2240494 2260112 
2113.255 2281995 2295885 2294119 2276665 2251219 2228838 2217781 2219079 
2117.113 2226573 2230736 2224608 2207756 2186776 2171125 2166995 2174355 
2120.970 2186110 2193503 2191238 2181614 2173522 2177751 2199930 2237463 
2124.828 2279430 2311641 2324898 2319269 2304779 2294486 2299349 2320635 
2128.685 2351016 2377501 2389795 2386197 2374203 2366940 2375336 2403921 
2132.542 2448836 2501054 2553178 2603442 2656445 2718923 2792382 2871290 
2136.400 2942740 2993449 3017171 3019006 3012534 3013368 3031151 3063151 
2140.257 3096687 3115309 3110170 3083339 3048536 3022009 3015570 3028649 
2144.115 3050304 3065587 3065820 3053307 3041962 3047801 3079301 3131962 
2147.972 3190337 3234766 3253426 3247952 3233397 3228790 3246750 3286177 
2151.830 3332585 3367746 3377997 3363472 3335724 3311784 3303671 3313086 
2155.687 3332385 3353988 3380502 3429525 3527222 3693907 3927923 4200404 
2159.544 4464085 4668908 4787822 4822698 4801323 4759279 4724978 4708766 
2163.402 4703005 4692923 4667769 4630193 4592553 4570352 4569414 4582507 
2167.259 4591079 4576915 4531478 4461674 4387799 4333613 4314203 4329899 
2171.117 4367181 4408350 4441422 4467164 4496223 4544100 4618907 4716603 
2174.974 4821525 4914006 4981972 5024204 5050820 5075056 5105262 5139527 
2178.832 5167725 5178355 5166753 5139393 5112504 5101474 5113577 5143450 
2182.689 5175069 5191734 5183954 5155923 5121422 5097954 5094769 5110593 
2186.546 5133223 5148915 5148378 5132352 5109285 5090779 5082264 5081292 
2190.404 5078945 5065905 5038685 5003121 4970945 4951171 4947116 4951774 
2194.261 4952143 4937062 4903450 4859453 4820587 4800921 4806851 4832481 
2198.119 4864513 4888036 4894704 4886595 4873057 4865619 4869573 4882540 
2201.976 4896245 4903416 4901640 4897921 4902713 4925400 4967124 5019579 
2205.833 5068318 5101004 5113342 5111465 5107844 5114650 5137281 5170777 
2209.691 5203873 5225134 5231070 5225972 5220975 5225234 5241499 5262326 
2213.548 5275305 5268933 5239621 5194685 5148680 5116628 5106000 5114381 
2217.406 5131346 5145260 5148848 5143450 5136141 5135202 5143517 5156828 
2221.263 5165244 5160215 5138320 5104290 5067547 5038081 5020148 5010495 
2225.121 5000942 4983413 4955629 4922887 4894704 4879424 4880195 4891655 
2228.978 4903919 4907035 4897888 4879994 4863575 4857342 4865887 4886260 
2232.835 4910554 4930728 4942123 4946848 4951004 4960522 4977715 4999400 
2236.693 5020014 5034461 5043244 5051021 5065301 5091316 5128664 5170844 
2240.550 5208903 5235831 5251158 5260515 5272991 5295295 5328166 5366239 
2244.408 5399954 5422029 5431188 5432967 5437194 5452427 5481418 5520041 
2248.265 5559742 5591592 5610992 5619685 5622941 5626130 5631299 5635394 
2252.123 5633380 5621599 5601158 5577764 5559943 5554305 5561789 5577462 
2255.980 5592532 5600285 5597868 5588605 5578670 5573871 5575113 5578402 
2259.837 5576321 5562057 5533632 5493900 5449575 5407200 5370532 5339369 
2263.695 5311126 5283857 5258335 5237810 5226274 5225167 5231606 5238179 
2267.552 5237408 5224329 5199447 5168463 5139561 5119142 5108615 5104357 
2271.410 5100099 5091450 5077772 5062955 5052529 5051289 5058999 5071402 
2275.267 5081560 5084410 5079012 5069324 5061681 5061949 5071872 5089304 
2279.125 5109151 5126216 5138052 5145730 5152603 5161355 5172788 5185363 
2282.982 5196496 5204678 5211485 5220070 5234456 5256926 5285971 5317365 
2286.839 5345742 5367715 5382878 5394250 5405791 5420520 5438570 5456923 
2290.697 5471586 5479639 5480712 5476921 5471485 5466653 5462224 5455614 
2294.554 5443938 5425753 5402503 5378047 5357349 5343227 5335981 5332694 
2298.412 5329508 5323839 5315017 5305391 5298246 5295328 5296536 5299085 
2302.269 5299856 5297005 5291102 5285233 5283455 5288218 5299521 5314581 
2306.126 5329776 5342388 5352351 5361509 5373015 5388480 5407536 5427229 
2309.984 5443905 5455245 5461352 5464741 5469371 5477894 5491215 5508094 
2313.841 5526383 5544472 5562863 5583369 5608307 5638281 5672017 5706193 
2317.699 5737684 5765250 5790467 5817532 5851417 5895346 5949492 6010262 
2321.556 6072184 6128872 6175551 6208926 6227177 6229597 6216018 6187214 
2325.414 6146044 6097183 6047623 6004719 5973477 5955471 5948047 5945797 
2329.271 5942774 5935350 5923527 5910696 5901627 5899713 5905893 5918421 
2333.128 5935182 5954295 5976096 6002502 6035527 6075409 6120605 6167553 
2336.986 6213161 6255984 6297164 6339693 6386160 6436869 6489434 6539348 
2340.843 6582069 6615542 6640472 6659684 6675531 6687745 6692961 6686702 
2344.701 6665403 6630042 6587014 6547387 6522228 6520747 6546917 6600168 
2348.558 6676238 6769384 6873927 6984826 7096932 7205260 7303911 7386979 
2352.416 7450412 7492582 7515371 7523698 7522957 7517427 7509033 7497133 
2356.273 7480413 7458536 7432885 7406561 7382362 7361434 7342360 7322175 
2360.130 7297408 7266645 7230595 7192257 7153619 7115692 7076893 7034662 
2363.988 6987452 6936443 6885642 6841545 6809569 6792505 6788803 6794592 
2367.845 6804453 6814853 6823739 6832288 6841410 6852282 6864502 6877058 
2371.703 6889479 6902609 6918835 6941022 6970684 7007588 7049311 7092722 
2375.560 7135396 7176424 7217152 7259670 7305360 7353717 7403089 7451087 
2379.417 7496223 7539206 7582532 7629739 7683730 7745317 7812985 7884376 
2383.275 7957127 8030768 8106583 8187070 8274327 8368999 8469502 8572834 
2387.132 8676562 8779131 8880913 8983057 9086342 9189921 9291563 9387744 
2390.990 9475682 9554899 9627254 9695928 9764612 9835205 9908081 9981682 
2394.847 10053869 10123899 10191940 10259176 10326558 10394426 10461490 
2398.222 10526425 10588383 10648041 10707333 10768501 10832395 10897591 
2401.598 10960926 11018222 11066926 11107340 11143136 11179751 11222828 
2404.973 11276452 11341577 11416918 11500233 11589655 11684711 11785883 
2408.348 11893854 12008530 12129061 12254398 12384066 12519469 12663647 
2411.723 12820124 12991541 13178499 13379855 13593235 13817392 14052856 
2415.099 14302658 14571689 14864819 15185151 15533705 15909348 16310291 
2418.474 16734401 17180226 17645596 18127800 18622130 19121800 19618406 
2421.849 20103920 20570314 21009768 21415486 21779982 22095800 22357040 
2425.224 22559870 22705430 22798830 22850586 22872798 22876674 22871856 
2428.600 22864102 22856278 22850690 22849294 22855266 22871924 22901508 
2431.975 22944366 22998794 23061684 23129754 23200526 23272778 23345814 
2435.350 23418158 23487054 23548896 23599550 23636950 23661268 23675438 
2438.725 23683730 23690378 23698462 23709100 23723272 23742694 23771776 
2442.101 23817802 23889632 23997014 24148522 24350438 24607428 24923100 
2445.476 25300808 25743884 26255726 26838486 27493184 28219440 29016480 
2448.851 29883484 30820298 31826946 32901872 34041708 35239772 36486444 
2452.226 37771004 39082836 40411912 41750140 43089612 44420896 45732936 
2455.602 47011140 48236572 49389660 50448300 51389940 52193932 52840272 
2458.977 53311504 53594692 53681184 53569092 53263332 52775720 52123128 
2462.352 51324564 50400332 49368164 48243204 47039348 45767980 44439212 
2465.727 43062864 41647104 40199556 38727836 37239932 35746204 34259892 
2469.103 32794804 31366442 29988774 28672372 27424956 26251996 25157008 
2472.478 24143232 23213354 22368482 21607846 20927356 20320838 19780114 
2475.853 19297388 18866268 18480490 18135298 17825176 17543774 17285134 
2479.228 17043468 16815332 16599640 16397405 16210709 16040731 15887592 
2482.604 15750209 15626607 15515265 15415521 15326955 15249115 15180347 
2485.979 15118212 15059446 15001855 14945129 14890639 14840716 14796729 
2489.354 14758403 14723165 14687279 14647284 14601911 14552844 14503885 
2492.729 14458939 14421157 14391118 14367794 14348649 14332416 14318821 
2496.104 14309336 14305398 14308206 14317007 14330807 14348478 14370534 
2499.480 14399167 14437770 14489702 14556545 14638065 14731529 14834578 
2502.855 14945129 15063014 15189269 15325411 15471897 15627500 15789652 
2506.230 15955338 16122324 16289376 16456526 16623085 16787400 16945784 
2509.605 17093196 17224524 17335720 17424524 17490612 17534492 17556988 
2512.981 17558540 17539152 17499616 17441908 17368962 17284722 17192120 
2516.356 17093128 16987610 16874990 16754856 16628489 16498856 16369948 
2519.731 16245792 16129065 16020104 15918456 15823327 15734851 15654052 
2523.106 15582678 15521412 15469047 15422594 15377759 15330423 15278630 
2526.482 15222520 15164221 15106341 15050699 14997876 14947495 14899109 
2529.857 14853231 14811539 14776194 14748805 14728821 14713706 14699447 
2533.232 14682481 14660135 14632582 14601021 14567406 14533246 14498301 
2536.607 14461953 14423520 14383309 14343136 14305261 14272149 14244894 
2539.983 14223186 14205691 14191484 14180632 14174709 14175805 14185973 
2543.358 14205691 14234177 14269649 14310774 14357382 14410915 14473806 
2546.733 14547705 14633404 14729747 14834613 14946192 15063528 15186936 
2550.108 15317276 15455038 15598821 15745880 15891649 16032137 16163936 
2553.484 16285110 16394448 16491009 16573168 16638748 16685711 16713705 
2556.859 16724415 16722623 16714292 16705751 16702550 16707679 16722761 
2560.234 16747935 16782716 16826010 16876092 16929728 16982202 17027478 
2563.609 17060010 17075000 17070038 17045020 17001152 16940202 16863072 
2566.985 16770560 16663572 16544219 16416950 16287312 16161527 16045235 
2570.360 15941726 15851988 15775153 15710149 15656285 15613384 15581717 
2573.735 15560836 15548541 15542188 15538273 15534804 15531474 15530031 
2577.110 15533740 15545416 15566983 15598821 15640313 15690636 15749281 
2580.486 15816661 15892508 15975894 16064283 16153343 16238775 16316932 
2583.861 16385604 16444756 16495207 16537817 16572962 16600225 16619677 
2587.236 16632242 16641159 16651247 16667841 16695319 16735950 16789192 
2590.611 16852428 16921840 16994088 17066006 17134970 17198498 17253140 
2593.987 17295548 17322548 17332376 17325582 17304858 17275136 17240762 
2597.362 17206322 17175056 17148790 17129420 17118390 17117390 17127420 
2600.737 17148410 17179298 17217526 17261070 17307928 17358136 17412934 
2604.112 17474020 17542670 17619058 17701950 17789586 17880314 17973544 
2607.488 18069870 18170364 18276030 18387010 18502446 18620850 18740880 
2610.863 18861598 18982940 19104626 19226208 19346162 19462614 19573550 
2614.238 19677998 19776058 19869592 19960928 20052490 20145878 20241716 
2617.613 20340456 20442172 20547802 20658634 20776202 20901036 21033138 
2620.989 21171404 21313888 21459032 21605582 21752636 21899282 22043926 
2624.364 22184012 22316610 22438712 22548458 22645770 22732384 22811682 
2627.739 22887398 22963264 23042710 23128146 23221814 23325220 23439456 
2631.114 23564776 23700422 23844508 23994668 24149048 24306074 24465716 
2634.490 24628750 24796122 24968860 25146934 25329854 25516686 25706898 
2637.865 25900046 26095178 26291456 26486166 26675748 26855298 27020040 
2641.240 27165764 27289942 27391498 27470346 27527884 27565200 27584054 
2644.615 27586738 27576392 27556974 27533108 27509034 27488136 27472252 
2647.990 27462086 27457250 27457568 27463074 27474616 27493536 27520824 
2651.366 27557504 27603826 27659618 27725162 27801174 27888718 27989424 
2654.741 28104646 28235316 28381944 28544508 28722814 28916598 29125670 
2658.116 29349376 29586924 29836812 30097354 30366652 30642872 30924748 
2661.491 31210902 31500414 31791578 32082800 32373004 32661256 32947518 
2664.867 33232432 33516996 33801636 34086216 34369048 34647464 34918668 
2668.242 35179656 35427856 35661528 35878404 36076632 36254096 36408536 
2671.617 36538484 36643708 36725584 36787032 36832328 36866272 36893972 
2674.992 36920160 36949128 36984592 37030348 37088840 37161780 37249608 
2678.368 37351532 37466016 37591620 37726768 37871572 38026480 38192804 
2681.743 38372040 38565796 38775436 39002576 39248732 39515636 39804856 
2685.118 40117124 40452280 40808692 41184048 41575592 41980664 42397476 
2688.493 42824564 43261584 43707544 44161820 44623248 45090280 45562188 
2691.869 46038156 46517400 46999804 47484480 47970732 48457196 48942760 
2695.244 49426748 49909160 50390916 50873732 51359468 51850268 52348052 
2698.619 52854452 53371596 53900988 54444468 55003564 55578856 56170560 
2701.994 56778064 57400784 58037504 58688244 59353100 60033820 60732488 
2705.370 61451976 62195444 62965772 63765064 64594128 65453156 66340380 
2708.745 67253200 68188808 69144536 70117832 71107208 72111408 73128664 
2712.120 74156568 75190816 76225752 77254336 78269160 79262712 80229320 
2715.495 81164448 82065416 82931320 83762176 84559048 85323376 86056384 
2718.871 86758568 87429040 88064496 88659480 89206448 89695896 90119784 
2722.246 90472304 90751928 90962528 91113552 91219208 91294632 91355600 
2725.621 91415136 91481360 91557888 91642832 91729832 91809232 91869624 
2728.996 91900160 91890944 91835272 91729832 91574672 91372200 91126464 
2732.372 90842224 90523768 90174880 89798968 89398784 88976736 88534576 
2735.747 88073024 87591928 87089464 86563792 86012144 85432032 84821680 
2739.122 84179312 83503400 82791896 82042640 81253488 80423312 79552952 
2742.497 78645504 77707264 76748144 75780760 74820048 73883928 72990000 
2745.873 72156232 71399008 70730320 70157864 69683872 69305264 69014448 
2749.248 68800632 68652288 68556904 68502976 68480480 68480632 68495952 
2752.623 68520280 68548096 68574520 68594392 68601448 68588992 68549960 
2755.998 68477176 68364728 68209320 68009544 67766920 67484520 67165864 
2759.374 66814056 66431224 66018404 65575800 65103656 64602816 64075240 
2762.749 63524104 62954248 62371288 61782960 61198180 60625800 60074952 
2766.124 59553072 59064504 58609664 58184508 57780736 57386340 56987048 
2769.499 56568120 56114980 55616776 55066524 54463252 53812732 53127536 
2772.875 52427040 51733872 51074192 50474760 49958524 49546504 49253580 
2776.250 49088460 49053252 49143332 49347412 49647528 50022096 50447036 
2779.625 50896864 51348540 51781352 52176820 52521300 52803560 53015920 
2783.000 53153484 53214756 53200936 53115888 52965760 52758324 52501668 
2786.375 52204952 51877300 51527844 51167376 50807316 50459164 50135952 
2789.751 49849804 49611832 49432280 49318684 49276628 49308588 49414088 
2793.126 49589512 49827876 50119740 50453620 50816144 51193692 51572320 
2796.501 51937756 52277488 52579712 52834920 53036212 53179924 53265356 
2799.876 53294876 53272432 53203292 53092600 52945176 52765512 52557648 
2803.252 52325812 52074412 51808120 51531800 51249840 50966648 50686616 
2806.627 50413208 50149900 49899160 49661724 49436884 49221328 49010964 
2810.002 48799888 48582500 48354592 48112220 47853112 47575712 47278868 
2813.377 46961852 46623776 46264408 45884004 45483412 45064144 44627400 
2816.753 44175208 43710076 43234716 42753296 42271168 41794352 41329792 
2820.128 40884044 40462972 40072104 39716548 39401156 39131272 38912544 
2823.503 38749932 38648220 38610992 38639892 38736528 38900228 39129280 
2826.878 39418824 39761136 40143220 40546888 40950888 41330852 41662276 
2830.254 41925596 42105940 42196088 42196596 42115176 41964900 41762140 
2833.629 41525824 41275244 41027248 40798172 40599600 40439044 40319592 
2837.004 40240592 40197628 40184396 40194392 40221036 40258624 40302864 
2840.379 40350496 40398532 40444536 40485632 40518328 40538812 40542592 
2843.755 40524656 40479960 40403296 40289888 40135260 39935792 39688304 
2847.130 39390960 39042888 38644744 38198880 37709640 37182716 36625104 
2850.505 36045024 35450756 34850772 34254192 33669280 33104684 32569278 
2853.880 32070990 31617426 31215672 30871526 30589648 30373404 30224326 
2857.256 30141390 30119870 30152046 30225748 30326074 30437262 30542792 
2860.631 30628650 30684404 30703144 30682662 30624882 30535542 30422976 
2864.006 30298006 30172254 30056944 29961720 29893778 29856402 29850050 
2867.381 29872198 29918944 29985470 30066778 30158510 30255800 30353860 
2870.757 30447180 30529676 30594944 30637220 30650766 30631388 30576282 
2874.132 30483750 30354214 30189198 29991578 29765374 29514854 29244490 
2877.507 28957752 28657894 28347032 28027134 27700088 27367536 27031748 
2880.882 26694704 26358272 26024144 25693858 25369512 25053552 24749222 
2884.258 24459650 24188244 23937036 23707244 23499052 23311968 23145656 
2887.633 22999912 22875104 22771910 22690768 22631876 22594492 22578332 
2891.008 22582346 22605732 22646956 22703860 22772852 22848316 22923828 
2894.383 22992960 23049348 23088904 23109416 23111024 23095368 23065178 
2897.759 23024124 22975494 22923268 22871646 22824916 22787168 22762132 
2901.134 22752600 22760072 22785004 22826838 22884464 22956524 23041698 
2904.509 23138316 23244884 23359658 23480618 23605252 23731110 23855010 
2907.884 23973624 24084248 24184146 24271910 24347284 24410894 24463998 
2911.260 24508030 24543474 24570364 24588422 24597574 24599154 24596206 
2914.635 24593226 24595190 24607324 24633132 24674444 24731964 24805700 
2918.010 24896466 25006096 25138014 25296560 25485764 25709184 25968562 
2921.385 26263998 26594614 26958304 27352256 27773480 28218344 28682884 
2924.760 29162840 29653826 30151122 30650944 31149064 31641554 32125112 
2928.136 32596924 33054982 33498670 33929092 34348320 34759016 35164132 
2931.511 35565388 35963056 36356184 36742028 37117636 37479600 37824828 
2934.886 38150692 38455656 38738416 38998772 39237596 39456488 39658064 
2938.261 39845712 40022836 40193704 40362024 40531864 40706680 40889544 
2941.637 41082060 41284352 41493996 41706624 41915632 42114120 42294764 
2945.012 42451436 42579988 42677692 42743424 42777428 42781160 42757316 
2948.387 42710008 42644648 42567856 42486332 42406280 42332892 42269816 
2951.762 42219600 42184620 42167680 42172900 42205252 42270216 42373148 
2955.138 42517716 42706208 42938776 43214076 43529904 43882844 44269304 
2958.513 44684612 45122996 45578052 46042060 46506120 46961184 47397256 
2961.888 47804248 48172708 48493056 48756660 48956444 49086232 49141476 
2965.263 49119288 49018272 48839188 48584352 48258532 47868724 47424084 
2968.639 46935936 46415996 45876496 45329464 44784772 44251840 43738584 
2972.014 43250860 42794064 42371540 41985300 41635832 41322728 41044728 
2975.389 40801304 40591884 40416748 40275820 40168332 40091872 40042128 
2978.764 40012876 39996968 39985960 39971536 39944944 39896632 39816876 
2982.140 39695816 39524416 39296640 39011132 38673540 38295892 37898184 
2985.515 37504736 37139368 36823384 36568652 36373908 36222976 36085776 
2988.890 35922452 35686992 35339320 34849984 34206332 33415608 32503176 
2992.265 31509462 30479558 29459996 28491786 27603686 26814590 26131880 
2995.641 25554216 25073666 24678898 24358462 24101096 23898418 23744968 
2999.016 23637194 23572578 23547740 23556242 23588110 23629988 23664730 
3002.391 23675822 23647866 23568414 23429944 23229782 22969764 22655754 
3005.766 22297356 21906846 21497712 21084788 20681360 20297748 19941224 
3009.142 19614766 19318276 19049230 18805196 18584434 18387114 18214798 
3012.517 18070320 17956968 17878310 17837604 17838434 17884248 17978586 
3015.892 18124070 18321926 18570842 18865682 19198156 19554870 19918432 
3019.267 20269940 20587788 20851772 21044962 21155122 21175858 21107396 
3022.643 20954616 20725008 20427308 20069600 19658446 19199646 18699746 
3026.018 18166634 17610536 17044536 16481545 15934920 15416517 14934704 
3029.393 14495662 14102928 13757503 13458967 13205414 12993863 12820499 
3032.768 12681454 12573048 12492153 12436401 12403807 12392487 12400227 
3036.144 12423888 12459656 12503236 12549685 12593001 12627077 12644679 
3039.519 12638266 12601426 12529017 12418978 12272734 12095297 11894536 
3042.894 11679503 11459577 11242515 11034230 10838340 10656903 10490715 
3046.269 10339621 10203472 10081643 9973341 9877641 9793451 9719442 9654085 
3050.127 9596088 9543823 9496069 9451807 9410259 9370950 9333506 9297386 
3053.984 9261403 9224206 9184440 9141225 9094766 9046352 8997873 8951971 
3057.842 8910540 8875029 8845541 8822275 8805166 8794718 8791709 8797118 
3061.699 8811016 8832555 8859574 8889030 8918386 8945579 8969696 8990398 
3065.556 9007616 9020809 9028759 9029774 9022399 9006702 8983869 8956877 
3069.414 8929344 8904891 8885817 8873406 8867792 8868874 8876551 8891431 
3073.271 8914124 8945951 8987556 9039111 9100215 9170462 9248745 9334014 
3077.129 9425395 9521571 9621291 9723576 9827782 9933912 10042612 10154221 
3080.986 10268574 10384347 10498862 10608246 10708589 10796422 10869867 
3084.361 10928714 10974281 11009590 11038206 11064206 11091636 11124100 
3087.737 11163806 11211812 11267475 11328585 11392188 11455392 11516394 
3091.112 11574715 11631582 11689102 11749252 11813461 11881970 11954509 
3094.487 12030943 12112060 12199869 12297378 12407556 12532360 12672209 
3097.862 12825583 12990141 13163403 13343088 13528386 13719372 13916804 
3101.238 14121343 14333239 14552090 14777326 15007549 15241463 15477837 
3104.613 15714580 15949667 16181372 16407110 16625322 16834276 17032474 
3107.988 17218146 17389724 17544670 17681278 17798112 17894332 17970438 
3111.363 18027214 18065174 18084344 18083652 18060580 18012672 17937388 
3114.739 17832668 17698154 17534286 17342100 17123388 16879848 16613273 
3118.114 16325153 16017389 15691083 15347585 14988067 14613529 14225686 
3121.489 13827243 13421305 13012129 12603746 12199733 11802361 11412870 
3124.864 11031613 10659043 10296089 9944388 9606352 9284048 8978592 8690353 
3128.722 8418217 8160937 7917071 7686529 7469019 7264994 7074637 6897391 
3132.579 6732500 6579008 6436264 6304022 6183013 6073796 5976601 5891551 
3136.437 5817432 5752726 5695853 5644760 5597701 5553298 5509974 5466754 
3140.294 5423438 5380563 5339671 5303009 5272186 5248475 5231472 5219734 
3144.151 5211116 5203336 5194953 5185530 5175505 5165747 5157163 5150323 
3148.009 5145294 5142142 5141069 5142310 5146031 5151698 5157834 5162461 
3151.866 5163366 5158941 5148680 5133626 5115890 5098088 5082566 5070900 
3155.724 5063592 5060273 5060239 5062318 5065335 5068151 5069458 5068385 
3159.581 5064497 5058496 5051960 5046898 5045892 5050183 5060105 5074822 
3163.438 5092288 5110895 5129703 5148278 5167524 5188146 5210881 5235261 
3167.296 5260582 5285769 5309919 5332929 5355336 5378215 5402302 5428136 
3171.153 5455950 5485511 5516618 5549170 5583168 5618511 5654562 5691018 
3175.011 5727041 5762296 5797049 5831570 5866227 5901157 5935585 5968169 
3178.868 5997597 6022256 6041507 6055384 6064691 6070302 6072822 6072251 
3182.726 6068387 6060289 6047387 6029177 6005929 5977810 5945595 5910058 
3186.583 5872441 5833685 5795571 5758938 5724624 5692462 5661544 5630729 
3190.440 5598976 5565514 5531149 5496987 5464875 5436188 5411629 5390929 
3194.298 5372780 5355739 5338464 5320585 5301802 5282516 5263332 5244618 
3198.155 5226341 5208702 5190996 5172788 5153576 5132486 5109118 5083471 
3202.013 5056049 5027791 5000641 4975872 4954791 4937364 4922752 4909281 
3205.870 4895341 4879625 4862034 4843370 4824674 4807219 4791808 4778609 
3209.728 4767185 4757337 4748359 4740085 4732648 4725748 4719283 4713287 
3213.585 4707660 4702602 4698884 4697210 4698215 4702133 4708632 4716771 
3217.442 4725748 4734457 4742363 4749263 4754891 4759246 4762127 4763534 
3221.300 4763668 4762998 4761993 4761289 4761423 4762663 4765108 4768592 
3225.157 4773483 4780016 4788492 4798844 4810503 4822531 4833922 4844242 
3229.015 4854059 4864881 4878653 4896916 4919904 4945843 4971615 4993200 
3232.872 5007244 5012071 5007713 4996350 4980832 4964477 4949362 4937196 
3236.729 4928852 4924327 4924260 4928550 4937230 4949697 4964678 4980799 
3240.587 4996820 5012104 5026785 5040964 5055513 5070565 5086120 5101541 
3244.444 5116628 5130843 5143986 5155788 5165378 5171816 5173761 5170341 
3248.302 5161355 5147842 5131849 5115454 5100837 5088701 5079046 5071168 
3252.159 5064061 5057826 5052898 5049445 5048104 5047769 5046965 5043713 
3256.017 5036674 5025612 5011601 4996686 4983111 4972252 4964577 4959751 
3259.874 4956466 4954087 4952143 4951071 4950836 4951205 4951674 4951473 
3263.731 4949998 4947921 4946278 4947351 4952780 4963739 4979760 4999434 
3267.589 5021121 5042507 5062016 5078308 5090310 5097350 5098658 5093796 
3271.446 5083236 5068586 5051859 5035568 5021690 5011031 5003389 4997557 
3275.304 4992630 4988139 4984352 4981871 4981436 4982843 4985323 4987971 
3279.161 4990351 4992764 4996820 5004093 5015959 5032383 5052094 5072542 
3283.019 5091618 5107877 5121455 5133760 5146568 5161254 5178087 5196797 
3286.876 5216951 5238548 5262661 5290968 5324744 5363622 5406093 5448635 
3290.733 5487390 5518900 5541954 5556990 5565950 5571186 5574240 5575583 
3294.591 5574643 5570011 5561218 5548197 5532088 5514269 5496484 5479606 
3298.448 5464741 5452259 5443334 5439107 5441220 5451152 5469875 5497557 
3302.306 5532692 5573535 5617403 5661040 5700989 5733555 5755647 5764478 
3306.163 5758501 5737718 5703742 5659865 5609616 5556956 5505678 5458265 
3310.021 5416795 5382542 5355772 5336384 5323268 5314950 5309483 5305156 
3313.878 5300963 5297240 5295160 5296267 5302036 5312938 5328031 5345441 
3317.735 5363153 5379691 5394854 5409515 5425183 5443703 5465647 5491182 
3321.593 5519504 5549673 5580785 5612133 5643115 5672622 5699310 5721670 
3325.450 5738222 5748664 5754103 5756856 5760449 5767768 5781300 5801884 
3329.308 5828883 5860753 5895279 5930849 5965549 5998605 6029278 6057433 
3333.165 6083205 6107297 6130921 6155286 6181567 6210035 6240152 6270102 
3337.022 6296895 6318008 6331052 6335020 6330447 6318915 6302711 6283986 
3340.880 6264455 6245127 6226034 6206674 6186407 6164763 6141507 6117513 
3344.737 6093756 6071915 6053502 6039760 6031160 6027363 6027295 6028371 
3348.595 6028606 6025314 6016578 6001057 5978616 5949794 5916204 5880266 
3352.452 5844633 5811555 5783013 5759609 5741445 5727310 5715862 5705857 
3356.310 5696558 5687695 5679403 5671816 5664431 5656508 5646908 5634589 
3360.167 5619115 5601225 5582060 5563635 5547895 5535880 5528196 5524839 
3364.024 5525142 5528128 5533028 5538733 5544069 5547660 5547760 5543096 
3367.882 5532524 5515645 5492692 5464271 5431558 5395458 5357685 5319512 
3371.739 5282818 5249380 5221210 5199514 5184960 5176846 5173627 5173492 
3375.597 5174365 5174767 5174163 5172084 5168865 5164674 5159578 5153643 
3379.454 5146669 5139024 5130843 5122696 5114583 5106972 5099764 5093327 
3383.312 5087594 5083337 5081191 5081828 5085784 5093260 5104491 5119276 
3387.169 5138287 5161857 5190024 5222317 5256792 5289928 5318069 5337155 
3391.026 5344166 5338128 5320115 5293450 5261957 5230197 5201258 5177416 
3394.884 5160148 5149921 5147473 5153676 5168966 5193209 5225134 5261722 
3398.741 5298682 5330547 5352149 5359597 5350908 5326958 5290733 5247401 
3402.599 5202364 5160785 5126283 5100669 5083940 5074855 5071503 5072106 
3406.456 5075190 5080119 5086187 5092891 5099429 5104927 5108849 5110962 
3410.313 5111397 5110895 5109721 5108078 5105564 5101273 5094836 5086220 
3414.171 5076263 5066374 5058764 5054641 5054574 5058195 5063893 5070162 
3418.028 5075559 5079213 5081225 5081862 5081393 5079750 5076733 5072475 
3421.886 5067145 5061815 5057859 5057021 5060005 5067078 5077370 5089304 
3425.743 5101172 5111465 5119612 5125378 5129334 5131949 5133291 5133391 
3429.601 5131581 5127423 5121053 5112604 5103284 5094132 5086052 5080119 
3433.458 5075928 5072710 5069089 5063659 5055245 5044048 5030707 5017098 
3437.315 5005333 4997323 4993904 4994808 4998663 5002819 5005635 5005635 
3441.173 5002517 4997356 4991758 4987435 4985022 4984686 4985223 4985659 
3445.030 4984586 4981000 4975369 4968432 4961494 4955796 4952110 4950534 
3448.888 4950166 4949630 4947250 4941553 4931968 4918496 4902378 4885355 
3452.745 4869304 4855633 4845347 4837943 4832648 4828661 4825177 4822430 
3456.603 4821090 4821223 4823301 4826484 4829332 4830538 4828896 4824574 
3460.460 4818510 4812580 4808358 4806851 4807956 4810469 4813082 4814456 
3464.317 4814221 4812412 4810603 4809397 4809631 4810938 4812613 4813518 
3468.175 4812613 4809397 4803936 4796331 4787553 4778073 4768559 4759581 
3472.032 4751374 4744004 4737003 4729633 4720891 4709938 4696506 4680999 
3475.890 4664855 4649718 4637494 4629289 4625169 4624433 4625505 4626677 
3479.747 4626308 4623462 4618036 4610535 4602197 4594461 4588668 4585788 
3483.604 4585855 4587697 4589372 4588501 4582206 4569414 4550395 4527326 
3487.462 4504024 4484907 4473291 4471115 4477944 4491302 4507707 4523576 
3491.319 4535496 4542259 4543096 4538409 4529235 4516880 4502852 4488724 
3495.177 4475902 4465624 4458327 4453841 4450527 4446945 4441723 4433991 
3499.034 4424049 4412902 4401857 4391748 4382778 4374678 4366847 4358781 
3502.892 4350414 4342884 4336993 4333948 4333914 4336257 4339972 4343218 
3506.749 4344892 4344055 4340340 4333982 4324946 4313802 4300885 4286830 
3510.606 4271839 4257049 4242695 4229412 4217702 4207731 4199769 4193947 
3514.464 4190368 4189063 4189665 4191438 4193412 4194784 4195051 4193814 
3518.321 4191739 4189197 4186587 4184011 4180398 4174945 4166816 4155375 
3522.179 4141091 4125035 4108878 4093860 4081150 4070815 4062587 4055664 
3526.036 4049410 4042955 4035497 4027103 4017304 4005667 3992725 3978681 
3529.894 3964670 3952031 3942267 3936449 3935112 3937854 3943204 3949289 
3533.751 3953535 3953602 3947784 3935714 3918260 3898167 3878676 3863131 
3537.608 3854005 3852367 3856980 3865538 3875266 3883624 3889107 3892049 
3541.466 3893186 3893821 3894623 3894891 3893219 3887268 3875367 3857047 
3545.323 3833680 3807507 3782037 3760546 3745105 3736316 3733274 3733876 
3549.181 3735113 3734177 3728295 3716130 3697750 3675361 3652338 3632992 
3553.038 3620463 3616387 3619861 3627212 3633895 3635999 3630954 3618759 
3556.896 3602020 3584647 3570449 3562097 3560326 3564402 3572520 3582743 
3560.753 3594202 3606330 3619628 3634663 3651269 3668311 3683749 3695144 
3564.610 3699054 3691936 3670884 3633594 3580171 3514261 3442884 3374524 
3568.468 3318762 3282037 3266780 3271254 3290216 3316726 3343938 3367479 
3572.325 3385110 3397365 3406716 3415098 3423480 3431596 3437407 3439210 
3576.183 3435837 3427655 3416434 3403978 3392490 3382705 3375192 3369348 
3580.040 3365308 3363505 3365141 3371486 3383607 3401540 3423848 3448528 
3583.897 3472876 3493318 3506845 3510052 3500399 3476316 3438576 3390787 
3587.755 3339631 3292954 3258034 3240073 3239706 3254161 3278198 3305140 
3591.612 3329079 3345474 3352152 3348946 3337627 3321100 3301635 3282037 
3595.470 3263943 3248820 3237370 3229759 3225219 3221981 3217441 3209196 
3599.327 3195277 3175984 3153022 3130327 3112439 3103729 3106966 3123118 
3603.185 3150685 3187033 3228824 3271387 3310282 3340899 3358029 3358296 
3607.042 3339764 3304239 3257166 3207193 3163902 3134098 3120048 3118379 
3610.899 3122117 3122517 3112806 3091315 3061649 3032686 3014636 3016671 
3614.757 3042196 3088812 3147815 3207727 3256164 3282104 3279233 3246850 
3618.614 3191071 3123485 3057945 3008096 2982707 2984575 3010865 3055276 
3622.472 3109869 3167740 3224818 3280635 3336325 3394260 3454206 3511522 
3626.329 3556685 3575527 3552977 3479356 3357160 3204423 3051205 2929130 
3630.187 2856915 2836604 2855748 2896273 2940672 2976234 2997720 3007529 
3634.044 3012267 3019573 3034588 3057778 3085475 3111504 3130394 3139138 
3637.901 3137936 3129459 3117745 3105464 3094885 3086076 3079936 3077933 
3641.759 3083339 3100759 3134632 3187300 3258167 3342802 3433366 3520240 
3645.616 3593735 3645021 3667576 3658052 3616387 3545026 3448295 3332819 
3649.474 3207527 3083740 2975500 2896173 2854981 2855481 2893371 2958353 
3653.331 3034989 3107166 3160364 3184362 3176886 3144110 3100125 3060381 
3657.188 3036724 3033053 3045933 3067188 3088245 3103462 3111171 3113574 
3661.046 3114441 3117945 3126122 3139004 3154824 3171879 3189169 3207427 
3664.903 3228023 3252492 3281302 3312853 3343103 3365775 3373389 3358964 
3668.761 3317594 3250890 3168942 3089579 3032820 3015470 3042896 3108768 
3672.618 3195143 3276795 3327610 3323403 3252191 3121917 2963023 2817294 
3676.476 2719557 2684383 2703486 2755935 2817294 2870056 2905646 2925494 
3680.333 2936936 2948678 2967293 2993416 3024478 3057044 3089746 3125154 
3684.190 3167841 3221647 3285876 3353387 3411859 3445356 3440513 3391288 
3688.048 3303471 3193141 3080903 2984942 2914086 2867788 2840039 2825098 
3691.905 2819662 2823731 2838605 2864520 2898608 2936035 2970730 2998988 
3695.763 3020675 3039927 3063451 3097021 3142675 3196579 3250589 3292453 
3699.620 3311551 3301000 3260571 3197246 3123051 3052573 2997553 2965859 
3703.478 2959887 2977736 3015036 3066588 3127023 3191639 3255530 3315257 
3707.335 3367312 3409722 3440479 3458347 3461521 3447727 3414130 3359899 
3711.192 3286511 3200451 3112439 3034221 2977335 2947144 2944275 2963323 
3715.050 2996752 3036423 3075831 3111938 3144110 3174149 3203722 3233931 
3718.907 3263642 3290517 3312018 3326509 3334622 3339096 3343103 3349180 
3722.765 3357762 3366377 3370985 3366710 3350015 3319998 3279433 3234265 
3726.622 3192774 3164470 3156793 3174149 3216540 3279132 3353554 3428189 
3730.479 3491948 3535139 3552443 3544525 3517434 3478655 3432798 3379901 
3734.337 3315023 3233264 3134532 3027781 2929497 2859317 2831234 2848744 
3738.194 2905379 2989112 3087110 3189636 3292687 3395696 3496958 3591196 
3742.052 3664468 3695177 3660492 3546062 3362069 3147214 2961122 2852913 
3745.909 2840439 2909816 3027281 3154824 3257199 3311584 3310015 3258801 
3749.767 3175818 3081637 2991948 2913418 2848110 2797685 2767739 2765638 
3753.624 2796884 2859684 2945242 3038325 3123285 3186665 3221947 3230159 
3757.481 3218509 3196312 3170911 3145512 3120815 3097021 3077032 3066487 
3761.339 3071593 3095019 3133798 3178955 3218309 3241208 3242711 3226320 
3765.196 3202687 3185998 3186432 3205624 3235667 3262307 3271788 3254461 
3769.054 3210198 3148015 3083740 3032619 3004693 3002291 3020741 3051939 
3772.911 3087510 3121950 3152955 3180858 3206926 3232362 3256164 3276161 
3776.769 3287679 3286277 3268216 3233330 3185163 3131495 3082839 3048836 
3780.626 3035189 3041495 3061883 3087143 3107233 3115409 3109302 3091949 
3784.483 3070125 3052006 3043998 3048569 3064285 3086810 3111271 3133097 
3788.341 3149550 3159263 3161432 3156660 3146079 3132463 3120081 3113707 
3792.198 3118012 3134932 3162934 3195611 3224518 3241175 3239873 3220979 
3796.056 3191472 3163301 3148516 3154891 3182460 3223283 3262641 3282938 
3799.913 3268783 3211733 3116210 3000155 2892070 2820195 2799819 2831234 
3803.771 2900176 2984542 3059313 3103228 3104096 3061516 2989679 2912585 
3807.628 2856515 2837438 2857983 2909015 2976234 3046400 3111838 3171445 
3811.485 3229058 3289282 3353922 3418571 3472776 3502603 3494921 3444554 
3815.343 3357962 3256164 3166773 3113306 3106966 3141908 3200150 3256030 
3819.200 3284741 3267081 3195444 3078734 2942673 2822630 2747999 2733928 
3823.058 2776343 2858183 2956251 3048302 3118813 3160464 3175250 3172413 
3826.915 3165204 3164736 3176418 3199416 3227956 3254562 3272923 3279967 
3830.772 3275961 3264410 3249855 3236635 3228290 3226921 3233698 3248185 
3834.630 3268316 3289515 3305407 3309013 3295024 3262741 3216273 3165805 
3838.487 3122818 3094885 3084674 3088311 3098456 3107133 3109435 3103662 
3842.345 3092082 3078434 3066855 3059981 3059380 3065787 3079902 3102694 
3846.202 3135700 3179790 3235066 3300733 3375893 3459850 3552309 3651938 
3850.060 3754630 3850294 3921838 3946447 3898434 3760981 3538412 3264977 
3853.917 2994717 2780711 2653211 2612575 2639510 2707121 2793216 2882131 
3857.774 2966059 3043097 3114141 3179155 3237236 3285709 3321634 3344071 
3861.632 3353955 3353721 3345607 3331049 3309948 3283039 3254161 3231261 
3865.489 3223850 3239573 3279667 3336826 3394961 3435537 3440647 3401640 
3869.347 3324138 3229091 3145812 3097522 3093684 3126055 3176352 3222214 
3873.204 3246984 3245081 3222214 3193775 3176452 3183327 3217274 3271888 
3877.062 3333387 3386880 3418939 3420742 3390620 3334989 3267014 3203488 
3880.919 3160631 3149784 3173281 3224818 3290350 3352419 3392289 3395996 
3884.776 3358964 3288614 3205391 3134465 3098423 3107400 3157394 3233197 
3888.634 3314355 3380301 3414363 3409421 3367646 3301902 3229258 3166973 
3892.491 3126355 3111037 3118045 3141707 3176051 3216807 3261405 3308512 
3896.349 3356092 3401072 3439311 3466029 3477753 3473644 3456811 3432664 
3900.206 3407818 3387013 3371385 3358496 3342903 3319363 3284908 3240841 
3904.063 3192139 3146647 3112005 3092883 3090614 3102861 3125655 3154757 
3907.921 3185898 3216974 3246049 3272155 3294423 3313053 3328679 3343036 
3911.778 3358830 3378531 3403276 3432297 3462021 3487072 3501635 3501100 
3915.636 3484232 3453739 3414898 3375059 3340833 3315624 3300232 3293755 
3919.493 3294323 3300833 3312919 3330148 3351518 3373890 3392723 3402475 
3923.351 3399536 3383039 3356560 3326575 3301468 3288247 3289949 3305674 
3927.208 3330348 3357895 3382271 3399536 3408018 3408185 3401707 3390653 
3931.065 3376728 3361401 3346976 3335824 3331183 3335123 3348613 3370283 
3934.923 3397031 3424249 3447860 3465295 3476250 3482663 3487473 3493885 
3938.780 3503238 3514729 3525217 3531230 3528558 3515196 3491480 3460686 
3942.638 3427989 3399202 3379700 3372421 3377864 3393825 3415733 3438442 
3946.495 3456811 3467198 3467967 3459984 3446024 3430460 3417402 3409554 
3950.353 3408519 3413662 3423815 3437206 3452002 3467131 3481327 3493852 
3954.210 3503539 3509284 3510453 3507079 3500666 3493284 3487773 3486504 
3958.067 3490345 3498996 3510085 3520942 3528458 3530963 3527756 3519973 
3961.925 3509651 3499430 3491781 3488374 3490178 3496791 3507447 3520708 
3965.782 3534905 3548534 3560193 3569380 3575694 3579536 3581340 3581540 
3969.640 3580505 3578433 3575460 3571752 3567876 3564636 3562464 3562498 
3973.497 3564502 3568478 3573856 3579937 3586451 3593066 3600417 3608401 
3977.354 3617222 3626544 3635431 3642749 3647360 3648496 3645957 3640076 
3981.212 3631823 3622635 3613814 3606865 3602555 3601285 3602855 3606497 
3985.069 3611141 3615685 3619628 3622401 3624372 3625742 3627045 3628448 
3988.927 3630186 3632023 3633928 3636200 3639575 3644085 3650267 3657585 
3992.784 3664969 3670917 3674158 3674225 3671117 3666038 3660358 3655780 
3996.642 3653308 3653675 3656348 3660692 3666339 3672120 3677400 3681209 
4000.499 3682847 
##END=
