
##TITLE=1708_1_e
##JCAMP-DX=5.01  $$ Nicolet v. 1
##DATATYPE=INFRARED SPECTRUM
##ORIGIN=UniL
##OWNER=Nicolet
##LONGDATE=2011/09/08
##TIME=12:04:03
##SPECTROMETER/DATA SYSTEM=Nicolet iS5
##DATA PROCESSING=
Ratio against background
%Transmittance->Absorbance
Truncated
ElementMultiply or ElementDivide
##COMMENTS=
Number of sample scans: 32
Collection length: 51.15 sec
Sample gain: 2.0
Background collected on: Jeu Sep 08 11:48:24 2011 (GMT+02:00);
Number of background scans: 32
Background gain: 2.0
Sample spacing:  1.000
Number of scan points: 12415
Resolution points: 8192
Number of FFT points: 65536
Apodization: N-B fort;
Phase correction: Mertz;
Laser frequency: 15798.0 cm-1
Number of rejected sample scans: 0
Number of rejected background scans: 0
Bench serial number: ASB1000141;
##RESOLUTION=4.000
##XUNITS=1/CM
##YUNITS=ABSORBANCE
##FIRSTX=649.893372
##LASTX=4000.122314
##FIRSTY=0.100833
##MAXX=4000.122314
##MINX=649.893372
##MAXY=0.298008
##MINY=-0.001392
##XFACTOR=1.000000
##YFACTOR=1.000000E-009
##NPOINTS=6950
##DELTAX=0.482117
##ZPD=6100
##XYDATA=(X++(Y..Y))
649.893 100833192 100596704 100448896 100399672 100434240 100521936 
652.786 100631880 100748360 100875272 101030584 101231160 101481512 
655.679 101769824 102076440 102387592 102707272 103058488 103473928 
658.571 103979392 104578056 105248336 105953064 106660112 107357880 
661.464 108063832 108813920 109649200 110594336 111649664 112793952 
664.357 113998384 115238824 116491232 117726824 118885336 119851256 
667.250 120467096 120585696 120159024 119275224 118098400 116768616 
670.142 115346712 113826312 112169672 110344912 108355448 106247576 
673.035 104092648 101972968 99947488 98039856 96247256 94553920 92949552 
676.410 91435712 90024096 88726136 87543688 86466024 85472776 84543024 
679.785 83663296 82830024 82047528 81321776 80654200 80040400 79472456 
683.159 78942096 78445488 77983584 77559792 77175088 76824968 76499272 
686.534 76184680 75871184 75554088 75235928 74923352 74621544 74329656 
689.909 74038752 73733400 73398080 73021048 72599096 72136160 71643360 
693.284 71133864 70620640 70118144 69643224 69214016 68852160 68575216 
696.659 68391024 68291904 68250808 68225912 68164192 68015904 67746664 
700.034 67342376 66813132 66188468 65510100 64819372 64152472 63535416 
703.408 62981404 62494056 62070164 61703132 61384912 61107168 60861880 
706.783 60641344 60439504 60252524 60079404 59922740 59788076 59684508 
710.158 59624752 59624752 59705912 59890068 60194592 60625648 61168120 
713.533 61780096 62391560 62919468 63279480 63404956 63266644 62875344 
716.908 62282288 61561348 60806192 60115628 59581576 59298708 59352648 
720.282 59808112 60697276 61991580 63588464 65295084 66860160 68016376 
723.657 68516512 68213504 67086436 65254116 62935248 60403288 57926856 
727.032 55696248 53819068 52316504 51149072 50248276 49544388 48987448 
730.407 48543704 48193216 47922332 47715520 47557004 47433328 47335324 
733.782 47259660 47206908 47177984 47171116 47182120 47205800 47239968 
737.156 47285740 47348144 47432660 47542736 47677576 47833580 48006180 
740.531 48192404 48391628 48604584 48829288 49059968 49283680 49483372 
743.906 49641884 49743416 49776748 49734352 49609680 49395712 49085008 
747.281 48672000 48158420 47557448 46895036 46204996 45523924 44884404 
750.656 44307756 43805176 43378808 43026356 42744232 42530180 42382936 
754.031 42300788 42281028 42319124 42408180 42538952 42700616 42878356 
757.405 43055476 43214844 43341864 43428572 43477128 43499980 43515804 
760.780 43545984 43607964 43710880 43856048 44039764 44258776 44515452 
764.155 44823380 45207812 45711252 46391920 47315336 48553524 50161424 
767.530 52153576 54478088 57000044 59510432 61732616 63398668 64309896 
770.905 64391552 63732216 62567220 61230792 60035800 59207868 58816268 
774.279 58762060 58809820 58661960 58071928 56893740 55136492 52940008 
777.654 50539376 48187664 46086672 44373848 43096784 42234100 41719608 
781.029 41474784 41428820 41524404 41723984 42003476 42346116 42741632 
784.404 43184720 43674940 44215560 44812728 45472520 46199504 46997700 
787.779 47872276 48830476 49884480 51049816 52342932 53780816 55378976 
791.154 57151912 59117536 61297072 63716328 66403380 69380984 72659960 
794.528 76231520 80064696 84104272 88271920 92480752 96637568 100657024 
797.903 104482792 108098848 111547312 114924160 118378952 122081048 
800.796 126168680 130711648 135652688 140789648 145743920 150017216 
803.689 153080768 154433216 153761424 151010896 146422512 140473360 
806.581 133776008 126962680 120500328 114651360 109443968 104719552 
809.474 100215168 95665048 90902840 85887240 80710024 75539656 70579440 
812.849 66003548 61919468 58374612 55357936 52824068 50710748 48955628 
816.224 47503924 46305360 45318172 44507524 43844284 43309940 42892948 
819.598 42587996 42391776 42299800 42305316 42401020 42581380 42845664 
822.973 43198740 43649768 44208736 44882936 45674956 46581064 47592236 
826.348 48692720 49860956 51069536 52283056 53465160 54584892 55624688 
829.723 56591972 57524156 58493452 59593508 60935188 62632620 64774828 
833.098 67414160 70535864 74045712 77742760 81322136 84423888 86639104 
836.473 87608272 87106024 85077736 81675024 77208376 72107920 66810192 
839.847 61687816 57030420 52997244 49641624 46936748 44808392 43162544 
843.222 41902568 40947576 40227108 39682420 39269764 38955420 38717872 
846.597 38546968 38438896 38392744 38405848 38472276 38584228 38734680 
849.972 38920300 39141352 39401192 39702316 40044488 40424496 40837592 
853.347 41281476 41758712 42277484 42848548 43482876 44188740 44970204 
856.721 45830504 46774792 47813532 48965048 50254784 51712556 53374108 
860.096 55279244 57468784 59986532 62866540 66120400 69715776 73560504 
863.471 77493336 81272312 84618304 87242872 88884272 89375664 88660208 
866.846 86809800 84002016 80501312 76614560 72622512 68774664 65252884 
870.221 62159924 59541484 57392728 55679528 54351072 53353764 52639852 
873.596 52165160 51893916 51797552 51851984 52040760 52354852 52793948 
876.970 53364368 54077560 54944260 55967696 57137060 58421200 59770052 
880.345 61112504 62363292 63440880 64270860 64803832 65026640 64963608 
883.720 64673992 64235904 63738512 63259700 62854668 62557192 62378404 
887.095 62315216 62359584 62504692 62748036 63089400 63527480 64057000 
890.470 64666108 65338412 66054508 66794276 67540760 68277632 68989664 
893.844 69662240 70280904 70832464 71308096 71702536 72015304 72249160 
897.219 72410608 72508800 72556800 72573288 72580456 72601720 72658592 
900.594 72763728 72919408 73116552 73339360 73570160 73795792 74012664 
903.969 74227048 74454280 74713384 75026208 75413976 75895176 76488800 
907.344 77211344 78076776 79096192 80275680 81617160 83119736 84782360 
910.719 86605984 88594552 90754584 93093224 95617888 98336416 101260192 
914.093 104409040 107812120 111510824 115554408 119989696 124855288 
916.986 130169064 135920608 142059280 148485376 155049856 161525872 
919.879 167622224 173006080 177305232 180197088 181470640 181084864 
922.771 179212560 176235968 172731184 169336624 166709968 165439344 
925.664 165915792 168317344 172544864 178245984 184802240 191406352 
928.557 197231760 201467808 203507856 203046512 200066944 194813792 
931.450 187679984 179143232 169662400 159642240 149456240 139415328 
934.342 129787904 120814680 112676904 105509248 99399120 94379992 90451624 
937.717 87588768 85752224 84889112 84925816 85762760 87247160 89169464 
941.092 91285440 93306192 94951496 95996184 96281256 95753440 94461696 
944.467 92547536 90206888 87653224 85097040 82699248 80568832 78764104 
947.841 77295456 76144008 75273592 74646920 74228384 73987320 73899400 
951.216 73940728 74088616 74322856 74624960 74981312 75384104 75828496 
954.591 76311456 76829120 77376032 77946472 78535560 79141832 79766704 
957.966 80413096 81082696 81773528 82480160 83194448 83909832 84623464 
961.341 85337048 86055936 86785880 87530728 88290480 89062432 89843216 
964.716 90631448 91428344 92236552 93058616 93894664 94741800 95596080 
968.090 96454624 97317384 98187920 99071584 99972264 100891248 101826120 
971.465 102773344 103730752 104699608 105684776 106692768 107728208 
974.358 108792000 109880976 110990440 112117552 113263424 114432888 
977.251 115632016 116863696 118125104 119407504 120697944 121984280 
980.143 123257984 124514128 125749472 126958952 128132824 129257840 
983.036 130320448 131311256 132229520 133082848 133885088 134650400 
985.929 135391088 136115856 136830576 137543024 138263840 139005616 
988.821 139781008 140598208 141458688 142357632 143288240 144245152 
991.714 145228336 146241920 147291408 148379392 149502624 150653152 
994.607 151820896 152999376 154188272 155392768 156619616 157872384 
997.500 159148384 160439104 161734320 163027120 164317808 165614016 
1000.392 166926704 168265744 169637040 171042240 172482112 173960912 
1003.285 175487728 177075136 178735200 180473584 182287664 184168336 
1006.178 186106064 188096464 190143824 192258768 194453936 196735552 
1009.070 199100432 201534336 204017440 206529856 209052816 211567392 
1011.963 214051248 216470192 218780320 220935568 222894896 224637264 
1014.856 226166576 227511744 228715040 229822176 230875872 231908752 
1017.748 232948144 234020880 235152624 236368336 237686592 239114128 
1020.641 240647264 242276688 243997648 245818016 247761904 249862800 
1023.534 252156912 254669552 257409248 260367904 263527184 266865904 
1026.427 270359680 273979712 277682848 281397504 285027520 288452256 
1029.320 291534176 294144928 296164096 297482176 298007744 297655072 
1032.213 296354432 294068256 290802272 286619744 281633056 275999904 
1035.106 269896608 263490560 256946976 250411872 244013088 237876352 
1037.999 232111696 226812624 222059600 217906816 214387904 211517760 
1040.892 209289856 207671712 206590048 205926384 205495744 205046128 
1043.785 204302416 202972656 200810448 197672560 193529056 188478304 
1046.678 182711952 176494192 170103456 163786944 157760304 152171936 
1049.571 147105952 142595488 138626384 135154560 132116376 129445392 
1052.464 127079024 124962856 123056656 121328832 119753104 118306808 
1055.357 116966096 115707488 114511296 113361232 112246984 111162592 
1058.250 110102888 109061488 108029672 106997576 105957880 104909392 
1061.144 103858472 102818808 101808152 100845304 99946944 99125696 98391440 
1064.519 97749856 97202064 96740936 96348920 95994240 95630688 95207408 
1067.894 94671536 93981872 93118192 92083216 90903456 89620128 88286544 
1071.269 86956224 85675256 84482728 83404184 82452520 81629312 80925976 
1074.645 80326304 79809512 79354704 78943688 78561448 78197712 77843952 
1078.020 77491664 77131984 76755648 76355536 75930336 75485840 75035856 
1081.395 74598760 74195912 73847640 73570480 73378864 73284632 73298752 
1084.770 73433088 73698456 74104336 74658256 75364280 76224088 77236992 
1088.146 78399760 79704560 81135136 82666784 84263104 85879800 87474912 
1091.521 89012768 90472760 91852216 93162528 94422032 95646088 96841432 
1094.896 98002944 99117744 100171768 101160560 102096768 103015384 103968032 
1098.271 105013568 106205000 107566120 109077120 110659216 112184392 
1101.164 113476656 114338808 114600632 114134536 112891440 110906512 
1104.057 108294096 105223808 101880368 98455688 95112696 91970176 89110720 
1107.433 86573424 84364048 82463696 80838480 79446480 78241512 77181424 
1110.808 76227880 75346976 74512336 73701672 72896528 72083632 71254024 
1114.183 70404872 69539696 68668928 67807896 66973148 66181712 65447264 
1117.558 64778984 64182124 63658124 63206004 62822848 62504424 62245192 
1120.934 62038020 61875224 61748736 61649476 61567072 61487320 61389532 
1124.309 61247656 61028872 60698076 60226756 59595676 58802612 57862080 
1127.684 56805668 55675496 54515276 53367928 52266760 51232612 50275804 
1131.059 49396008 48586092 47834504 47129048 46458656 45814780 45192960 
1134.435 44592848 44017612 43472004 42961348 42489656 42058812 41669132 
1137.810 41320284 41012064 40745072 40520840 40339952 40201736 40104048 
1141.185 40043468 40016584 40022108 40060584 40134756 40247684 40400968 
1144.560 40593488 40821396 41078924 41359388 41657060 41967092 42285012 
1147.936 42606564 42927292 43242364 43548660 43844832 44131780 44412712 
1151.311 44691256 44971048 45253924 45541104 45832932 46130264 46434356 
1154.686 46746564 47067080 47394596 47725504 48054884 48376852 48685896 
1158.061 48976692 49243780 49481108 49681412 49836352 49938564 49982132 
1161.437 49963876 49883404 49742116 49542232 49285464 48973428 48608292 
1164.812 48193180 47734344 47239968 46719812 46184616 45643968 45106048 
1168.187 44578744 44068804 43583824 43131912 42720684 42357368 42047352 
1171.562 41794132 41599808 41465964 41394848 41389636 41454080 41591784 
1174.938 41805884 42099076 42474236 42935960 43491080 44148432 44918868 
1178.313 45813088 46840924 48011660 49334460 50819756 52481364 54334436 
1181.688 56395172 58679332 61198520 63960628 66967696 70215192 73686440 
1185.063 77346888 81141488 84982344 88751096 92312568 95510080 98192784 
1188.438 100233912 101532368 102033528 101730288 100664088 98916392 96599408 
1191.814 93848440 90795584 87566512 84274400 81005872 77829992 74797224 
1195.189 71938104 69270400 66799372 64520768 62424536 60497240 58725756 
1198.564 57098628 55607364 54247556 53016820 51914008 50936916 50081620 
1201.939 49341512 48708656 48173520 47727424 47362596 47070736 46843436 
1205.315 46669892 46536472 46428976 46332968 46236360 46131844 46016196 
1208.690 45889900 45755576 45617024 45478408 45344432 45222044 45119984 
1212.065 45048888 45020920 45047788 45139244 45303716 45547288 45874580 
1215.440 46289396 46793500 47386468 48064324 48820392 49645748 50531892 
1218.816 51472932 52466596 53514296 54619272 55785908 57018028 58319396 
1222.191 59694732 61150724 62695400 64337180 66081396 67927368 69866672 
1225.566 71882936 73953496 76049496 78139200 80188032 82157128 84009488 
1228.941 85709848 87229704 88554080 89682536 90630872 91426800 92111232 
1232.317 92734472 93351208 94027128 94833832 95843248 97132152 98770280 
1235.692 100815344 103314224 106297088 109779720 113764400 118241024 
1238.585 123184856 128549904 134271872 140262848 146412192 152607200 
1241.478 158729904 164667760 170324016 175604672 180418752 184680848 
1244.371 188302224 191200464 193305360 194554400 194899616 194308432 
1247.264 192765792 190282240 186898272 182686480 177738560 172153088 
1250.157 166023152 159420496 152400272 145010672 137303232 129349560 
1253.050 121248528 113115552 105085904 97299968 89879240 82932800 76539976 
1256.426 70742608 65552912 60952304 56900804 53343460 50220416 47474132 
1259.801 45048412 42895620 40976192 39256600 37711732 36322500 35073208 
1263.176 33950692 32941404 32031182 31206592 30455460 29768320 29139630 
1266.551 28565702 28043780 27570708 27141708 26751892 26397672 26078254 
1269.927 25796376 25557166 25366596 25229834 25149742 25128500 25168314 
1273.302 25273906 25452982 25714844 26068156 26518426 27063624 27692846 
1276.677 28384136 29106430 29817932 30469356 31012710 31401988 31604600 
1280.052 31608160 31421364 31073566 30606002 30066424 29496874 28927186 
1283.427 28375790 27849254 27348092 26871334 26420172 25997866 25609144 
1286.803 25257680 24945242 24671498 24435920 24237958 24077804 23955452 
1290.178 23868838 23813252 23782382 23769712 23771636 23788892 23826656 
1293.553 23892082 23991622 24128976 24304952 24518546 24769848 25062082 
1296.928 25401690 25797678 26258860 26792704 27405156 28100476 28882530 
1300.304 29752992 30708266 31734474 32802236 33868796 34875832 35760128 
1303.679 36465292 36946208 37179536 37165028 36924200 36496172 35929688 
1307.054 35282572 34609752 33961052 33378464 32888006 32501250 32215602 
1310.429 32017772 31889204 31811368 31770370 31757250 31766058 31792256 
1313.805 31828586 31866238 31896156 31910706 31906140 31882140 31840458 
1317.180 31782598 31707774 31613614 31497634 31359606 31203068 31034844 
1320.555 30862666 30693294 30530280 30374610 30227382 30091600 29973934 
1323.930 29885010 29835214 29833866 29886112 29993636 30156734 30376246 
1327.306 30654748 30994880 31395864 31851516 32346908 32862666 33377926 
1330.681 33875316 34345020 34784608 35196828 35584844 35949628 36287488 
1334.056 36592912 36859884 37085268 37270220 37419316 37539776 37639856 
1337.431 37729120 37820056 37927904 38072632 38275372 38553740 38919288 
1340.807 39374560 39914212 40528732 41208240 41944828 42731288 43560856 
1344.182 44425484 45315744 46223496 47144520 48077908 49024764 49980828 
1347.557 50929316 51836788 52649240 53298432 53717176 53844496 53642344 
1350.932 53101884 52244896 51120744 49796588 48355776 46881340 45449968 
1354.308 44130712 42973308 42008548 41248316 40687028 40306976 40085368 
1357.683 40001508 40038132 40181676 40421152 40743764 41135312 41583396 
1361.058 42080132 42626920 43233580 43915248 44683032 45535292 46454196 
1364.433 47406420 48349408 49232280 50004360 50615652 51015532 51163124 
1367.809 51030368 50609288 49915476 48986556 47875568 46635876 45318028 
1371.184 43961992 42594976 41240484 39924092 38677236 37543028 36566240 
1374.559 35781428 35203404 34822228 34610972 34536344 34574336 34718344 
1377.934 34981620 35394104 35997788 36845348 37992812 39501300 41429804 
1381.310 43814956 46648752 49846644 53245956 56590840 59565844 61860440 
1384.685 63175000 63287912 62097152 59655808 56194920 52081812 47772512 
1388.060 43670540 40049284 37039404 34638100 32767076 31316298 30182058 
1391.435 29277594 28536120 27914050 27383768 26931932 26558614 26271040 
1394.811 26078008 25982880 25980136 26056160 26194730 26379258 26597150 
1398.186 26840564 27105098 27389310 27693520 28018368 28363868 28728124 
1401.561 29106572 29492938 29878552 30255376 30617770 30964242 31297102 
1404.936 31619102 31931926 32233338 32519068 32785762 33035136 33275354 
1408.312 33520862 33788280 34090984 34437444 34828904 35262912 35736132 
1411.687 36247576 36797852 37385588 38003768 38637828 39267444 39874984 
1415.062 40452280 41006636 41561812 42155556 42833152 43635624 44592296 
1418.437 45707020 46950520 48262344 49564140 50781764 51854264 52743924 
1421.813 53438256 53949760 54322120 54628512 54968816 55439696 56111248 
1425.188 57010848 58121736 59402412 60807300 62307452 63889072 65548516 
1428.563 67282840 69081520 70928608 72811920 74734200 76716584 78789488 
1431.938 80982512 83310440 85772816 88358904 91065944 93914776 96950936 
1435.313 100237960 103828456 107732624 111888736 116183880 120501328 
1438.207 124754680 128893984 132877408 136649264 140104480 143086720 
1441.100 145424096 146933552 147464464 146926480 145288896 142590896 
1443.993 138933792 134487424 129466992 124101960 118639216 113300280 
1446.886 108273848 103720448 99743168 96377672 93580576 91250032 89252840 
1450.261 87465424 85815856 84295776 82959672 81889264 81163136 80816208 
1453.636 80826624 81118840 81584136 82111696 82596808 82977648 83255816 
1457.011 83507736 83851072 84392776 85209184 86331312 87764536 89501752 
1460.387 91522632 93790528 96242256 98797576 101342704 103727896 105791168 
1463.762 107362040 108311816 108600200 108296048 107554616 106551992 
1466.655 105451416 104368424 103370336 102498296 101769112 101179216 
1469.548 100700720 100278272 99832264 99267096 98507480 97531592 96397192 
1472.923 95225768 94157488 93301304 92707360 92384616 92325312 92524128 
1476.299 92985432 93714256 94702488 95918120 97304984 98796448 100320064 
1479.674 101817912 103258152 104636272 105978048 107329160 108749224 
1482.567 110297800 112034384 114026392 116346792 119075336 122283552 
1485.460 126009408 130224872 134800592 139512352 144018576 147889584 
1488.353 150680672 151953744 151384944 148859456 144516128 138736688 
1491.246 132023992 124891288 117725216 110745200 104056272 97670440 91574256 
1494.621 85790936 80391928 75507056 71297944 67900208 65381436 63724852 
1497.997 62857584 62678784 63090124 64010808 65367720 67089260 69103856 
1501.372 71328520 73674112 76053680 78359560 80466336 82220704 83401128 
1504.747 83726944 82882592 80607608 76867088 71971152 66508332 61063500 
1508.122 55998304 51411536 47242296 43390268 39785172 36401580 33260688 
1511.498 30403288 27858828 25638002 23724252 22084364 20679274 19472420 
1514.873 18431604 17525662 16725965 16010959 15370172 14808248 14339095 
1518.248 13973841 13710172 13527326 13388397 13255218 13103365 12939992 
1521.623 12802822 12740786 12783166 12924666 13132632 13365299 13592347 
1524.999 13802205 14007785 14236266 14516527 14861699 15264764 15704205 
1528.374 16158398 16615717 17077448 17554814 18059992 18599684 19172286 
1531.749 19771514 20392786 21039816 21726022 22467150 23266662 24111324 
1535.124 24972228 25817792 26618358 27352538 28011122 28590332 29092400 
1538.500 29520174 29873830 30147890 30334710 30436304 30466976 30448992 
1541.875 30401584 30328774 30217614 30042422 29780136 29421632 28982298 
1545.250 28497448 28011052 27555034 27136242 26738714 26332960 25893118 
1548.625 25408960 24894956 24383872 23914664 23511364 23174594 22884360 
1552.000 22613830 22343122 22068014 21800536 21562264 21370722 21228916 
1555.376 21122076 21021836 20895996 20709924 20432136 20042324 19544888 
1558.751 18986782 18449478 18013606 17717654 17553364 17485264 17471950 
1562.126 17476780 17470364 17435596 17369136 17283136 17200050 17143518 
1565.501 17128076 17151826 17198498 17244556 17271448 17271172 17251002 
1568.877 17229938 17232352 17275964 17364998 17492026 17644354 17811506 
1572.252 17985424 18159550 18325936 18471156 18579626 18639180 18649972 
1575.627 18631018 18618050 18649558 18745170 18899630 19088872 19285090 
1579.002 19466218 19620452 19747240 19852078 19942680 20023484 20095382 
1582.378 20156222 20204780 20242202 20272336 20298236 20318824 20327018 
1585.753 20311604 20261158 20170660 20045136 19900290 19758408 19643226 
1589.128 19576220 19571992 19640800 19789860 20023138 20339970 20729456 
1592.503 21168204 21617702 22029180 22356342 22560638 22622698 22545142 
1595.879 22350098 22071570 21746260 21410020 21092474 20817948 20609538 
1599.254 20487010 20466518 20559162 20768140 21090770 21521072 22053372 
1602.629 22682390 23400254 24193394 25036458 25890830 26711794 27447016 
1606.004 28046678 28470666 28688512 28685858 28463978 28039926 27442390 
1609.380 26706508 25874760 24991074 24098958 23240584 22447052 21735774 
1612.755 21108544 20553220 20049334 19573760 19107984 18641498 18176790 
1616.130 17730804 17331650 17009698 16785644 16664984 16637992 16685298 
1619.505 16780994 16899034 17017692 17122010 17209976 17293618 17397622 
1622.881 17548568 17764180 18045970 18379958 18745376 19124882 19510750 
1626.256 19903238 20306986 20724070 21150392 21575984 21988782 22380518 
1629.631 22749946 23101064 23439070 23765268 24074268 24353592 24587616 
1633.006 24761568 24864850 24895342 24860712 24781636 24684756 24598206 
1636.382 24541404 24519774 24526224 24546348 24562652 24556796 24512130 
1639.757 24418430 24274222 24088766 23878604 23662980 23454878 23255930 
1643.132 23055954 22835498 22572888 22249296 21857540 21406574 20924088 
1646.507 20450438 20028202 19690030 19449620 19302928 19233204 19217100 
1649.883 19225516 19221810 19163040 18997928 18681274 18204190 17629722 
1653.258 17086890 16694801 16496239 16452085 16492007 16550587 16586214 
1656.633 16579261 16525496 16430922 16305028 16156301 15988063 15799239 
1660.008 15586009 15345079 15076392 14784662 14479664 14174880 13885602 
1663.384 13624312 13398684 13209479 13050916 12910568 12772382 12618379 
1666.759 12430980 12197314 11912789 11584346 11229901 10874284 10542415 
1670.134 10251611 10008466 9809854 9646632 9505789 9372068 9229384 9062252 
1673.991 8860250 8624711 8373423 8136865 7945417 7816595 7747813 7722280 
1677.849 7716951 7713611 7703392 7689160 7680964 7690171 7721707 7770008 
1681.706 7820475 7854178 7857417 7831843 7801717 7805833 7880158 8035730 
1685.564 8256125 8512245 8778252 9039551 9289837 9528412 9757123 9976731 
1689.421 10187224 10389098 10584275 10776822 10970747 11167239 11361678 
1692.796 11543240 11695161 11799978 11845569 11834196 11787585 11743907 
1696.172 11740911 11793544 11888678 11991397 12061365 12058673 11958255 
1699.547 11761711 11508739 11265026 11086063 10991001 10959839 10955116 
1702.922 10938295 10881928 10770675 10601693 10384720 10139467 9889573 
1706.297 9653678 9441243 9251690 9078357 8911993 8744003 8569319 8386361 
1710.155 8197234 8005962 7816662 7632065 7452468 7276214 7100973 6925535 
1714.012 6750302 6577729 6409631 6246202 6085356 5924400 5763840 5611697 
1717.870 5483431 5396498 5361308 5377376 5432866 5510879 5593438 5666814 
1721.727 5724826 5768507 5805242 5844599 5894842 5959166 6035594 6118286 
1725.584 6201431 6280154 6351460 6412960 6461856 6494614 6508202 6502249 
1729.442 6479950 6447059 6408723 6365481 6309872 6226102 6093621 5896858 
1733.299 5637241 5343059 5062754 4845917 4715498 4662712 4658291 4669310 
1737.157 4670348 4645766 4592352 4517282 4435932 4364370 4313802 4287901 
1741.014 4283082 4293455 4313233 4339135 4368788 4400116 4430242 4456519 
1744.872 4476839 4490432 4498701 4503388 4506233 4506836 4503287 4492406 
1748.729 4470947 4437137 4391246 4336626 4278665 4223858 4179093 4149287 
1752.586 4136274 4138114 4149621 4162634 4167552 4155977 4123228 4071116 
1756.444 4008208 3947517 3901143 3874330 3863565 3858384 3846082 3814994 
1760.301 3759744 3683181 3595405 3510854 3441815 3395662 3372187 3366477 
1764.159 3371118 3379166 3384776 3382438 3368146 3339430 3296827 3244380 
1768.016 3189870 3140873 3101393 3070525 3041495 3005294 2954883 2890069 
1771.874 2820029 2761870 2732027 2738563 2778076 2838371 2905580 2967927 
1775.731 3020408 3063785 3101626 3137435 3171679 3200985 3220545 3226721 
1779.588 3220178 3206159 3193107 3188635 3195244 3210064 3226287 3237136 
1783.446 3238137 3230059 3217040 3205758 3200484 3202754 3210765 3221313 
1787.303 3232362 3243312 3254294 3264777 3271788 3270286 3253927 3218609 
1791.161 3165304 3101927 3041428 2996085 2973265 2972498 2986977 3007329 
1795.018 3025880 3038692 3044431 3044231 3038792 3028182 3011766 2989279 
1798.875 2962389 2935034 2912184 2898942 2897341 2906480 2922692 2942073 
1802.733 2961989 2981773 3002591 3025746 3050971 3077366 3102094 3123552 
1806.590 3141007 3155458 3168641 3181592 3193942 3203956 3209563 3210231 
1810.448 3207994 3206926 3212033 3226354 3249321 3277697 3305775 3329013 
1814.305 3345374 3355758 3364073 3374858 3391889 3416768 3448695 3486203 
1818.163 3527222 3570683 3615919 3662095 3707742 3751021 3789791 3823050 
1822.020 3850729 3873895 3893754 3911173 3926552 3940462 3954104 3969920 
1825.877 3990652 4018107 4051383 4087037 4119381 4142930 4155174 4158954 
1829.735 4162567 4176417 4209605 4264578 4336960 4417321 4496089 4566099 
1833.592 4625169 4675774 4723269 4773718 4830772 4895743 4968230 5047434 
1837.450 5134464 5232277 5344032 5472022 5615859 5771965 5934511 6097217 
1841.307 6255413 6405595 6547186 6681420 6812228 6945197 7086458 7241443 
1845.165 7412324 7596491 7786470 7971605 8139634 8278684 8380822 8442170 
1849.022 8463894 8450075 8406428 8337416 8245251 8131464 7997625 7847599 
1852.879 7687237 7523226 7361063 7202970 7047627 6891836 6732769 6569824 
1856.737 6406100 6246471 6095503 5955639 5826331 5704716 5588437 5476787 
1860.594 5371237 5274534 5188749 5113074 5044317 4978050 4910923 4842566 
1864.452 4775058 4711847 4654842 4602799 4551433 4495688 4432853 4365541 
1868.309 4302625 4255844 4235066 4243498 4276691 4324645 4375013 4419631 
1872.167 4453372 4475467 4486916 4488557 4480321 4461306 4431480 4392686 
1876.024 4348473 4303796 4261901 4223356 4185349 4143399 4093960 4036133 
1879.881 3972595 3908130 3847820 3793836 3745473 3699622 3653140 3604927 
1883.739 3557053 3513025 3476617 3449230 3429024 3411692 3392757 3369716 
1887.596 3342736 3314756 3289482 3270352 3259102 3256030 3261071 3274625 
1891.454 3297061 3328078 3365642 3405046 3440112 3465729 3479590 3483264 
1895.311 3482395 3483364 3491013 3506244 3526754 3548668 3569346 3588690 
1899.168 3609237 3633928 3663866 3696681 3727426 3750453 3762150 3763588 
1903.026 3759076 3754764 3755666 3763220 3775352 3788588 3799953 3809379 
1906.883 3819607 3834315 3855877 3883591 3913413 3940361 3960791 3973598 
1910.741 3981055 3986806 3993394 4001620 4009981 4017104 4022522 4027571 
1914.598 4034795 4045196 4056768 4064527 4062420 4046467 4017906 3984165 
1918.456 3955675 3940528 3941331 3952298 3963399 3963533 3946681 3913847 
1922.313 3873127 3835586 3809913 3799117 3799418 3803997 3806939 3806772 
1926.170 3806504 3811785 3826827 3851364 3881016 3908866 3929729 3942301 
1930.028 3949790 3957314 3969853 3987810 4008710 4028508 4044862 4058473 
1933.885 4073490 4093559 4119549 4147948 4171499 4182640 4178290 4161263 
1937.743 4139953 4124098 4120652 4130554 4149052 4168254 4181636 4187925 
1941.600 4190468 4196022 4210107 4233828 4263975 4296100 4327121 4358212 
1945.458 4394359 4440551 4498969 4566401 4635718 4698583 4751240 4794589 
1949.315 4834759 4879055 4931130 4988642 5043948 5087192 5111699 5117097 
1953.172 5109453 5097317 5088432 5085482 5085281 5081929 5069894 5048741 
1957.030 5022025 4997255 4981335 4977514 4985223 5001009 5021690 5045892 
1960.887 5074855 5109721 5149552 5191130 5228655 5258670 5282013 5303546 
1964.745 5330883 5369895 5420687 5477122 5527960 5563131 5577496 5573703 
1968.602 5559137 5541988 5528027 5516853 5504873 5489269 5470814 5455145 
1972.459 5451588 5467593 5505108 5560279 5625459 5695785 5771462 5858335 
1976.317 5964877 6094193 6238572 6379839 6494816 6564207 6578873 6542880 
1980.174 6468784 6373080 6269430 6164729 6061062 5959469 5863339 5780091 
1984.032 5719655 5688567 5687862 5710423 5743661 5773477 5792045 5796814 
1987.889 5792045 5783953 5775357 5765586 5750376 5725430 5691387 5654528 
1991.747 5625996 5616396 5631702 5670037 5722610 5779890 5832308 5876370 
1995.604 5912442 5943076 5969647 5991953 6007205 6012950 6009893 6001930 
1999.461 5994237 5991583 5994271 5998336 5997026 5983588 5955975 5917178 
2003.319 5874322 5835700 5808735 5796881 5801313 5822502 5861694 5920638 
2007.176 5999411 6092580 6189096 6272086 6326345 6341710 6318411 6265968 
2011.034 6201363 6142784 6103736 6090228 6102358 6135223 6183584 6242101 
2014.891 6307687 6375400 6439829 6495320 6538776 6571607 6600673 6635897 
2018.749 6685188 6750268 6825725 6899343 6959337 6998194 7016579 7022910 
2022.606 7029342 7044630 7071336 7104948 7137249 7160053 7171405 7173561 
2026.463 7173325 7176795 7185351 7196030 7204149 7205025 7197748 7186227 
2030.321 7174740 7167935 7168171 7174975 7188719 7213076 7253741 7318670 
2034.178 7412190 7530407 7660966 7787313 7892473 7966272 8009404 8030229 
2038.036 8042717 8058581 8085181 8121707 8163503 8202468 8232486 8249978 
2041.893 8253119 8241570 8215332 8175321 8124239 8068472 8017673 7981830 
2045.750 7970255 7986994 8030803 8095916 8172653 8251701 8323163 8377106 
2049.608 8405211 8399401 8356095 8277840 8176199 8069349 7977848 7921222 
2053.465 7909142 7939410 7997895 8064927 8122585 8159790 8177211 8182782 
2057.323 8188016 8200576 8222018 8247378 8269295 8281588 8281858 8273078 
2061.180 8259367 8244103 8228097 8209423 8185483 8156379 8124813 8094903 
2065.038 8070126 8050886 8032490 8008864 7973933 7926453 7869866 7812445 
2068.895 7761643 7722313 7694859 7675535 7659887 7645790 7634527 7629974 
2072.752 7635809 7651692 7673140 7692195 7701301 7696343 7679750 7657492 
2076.610 7637832 7626906 7625793 7631290 7638405 7643126 7644576 7645790 
2080.467 7650039 7660224 7676243 7694758 7711824 7724978 7733748 7740291 
2084.325 7747105 7755099 7762553 7766736 7763970 7753750 7738301 7722179 
2088.182 7710003 7704202 7703392 7703595 7700626 7691925 7678300 7663866 
2092.040 7653547 7650714 7656480 7668992 7685416 7703763 7723494 7745350 
2095.897 7769806 7795038 7817539 7832789 7837680 7833024 7823376 7815617 
2099.754 7816123 7828098 7850804 7879922 7910728 7940592 7970593 8004172 
2103.612 8045383 8096220 8155401 8218979 8282635 8342888 8400009 8455887 
2107.469 8512718 8571752 8631640 8689441 8742888 8791979 8839251 8888860 
2111.327 8944632 9006702 9072301 9135236 9189921 9233175 9265804 9291834 
2115.184 9316817 9345355 9378906 9415982 9453670 9489025 9520859 9550089 
2119.042 9578169 9607165 9638229 9672075 9709447 9752446 9803482 9864998 
2122.899 9938218 10020673 10107790 10193771 10273764 10345357 10409935 
2126.274 10470587 10530635 10592186 10654662 10716163 10775498 10832090 
2129.649 10888349 10947742 11013600 11087524 11169619 11258497 11353278 
2133.025 11454746 11563894 11680967 11804506 11928591 12045422 12148108 
2136.400 12233268 12302252 12361566 12418331 12477285 12538669 12597333 
2139.775 12646282 12680704 12699775 12707861 12711545 12716970 12724852 
2143.150 12732119 12732665 12720792 12695510 12660371 12622165 12587441 
2146.526 12559678 12537100 12515103 12488674 12455769 12416660 12374350 
2149.901 12329965 12281767 12224884 12153832 12065487 11963058 11854013 
2153.276 11748366 11653909 11572776 11501219 11433280 11366882 11307840 
2156.651 11271963 11280805 11350828 11488325 11678891 11893786 12098568 
2160.027 12261726 12363816 12400908 12380043 12314251 12218476 12108278 
2163.402 11995586 11892118 11807025 11744179 11701594 11670075 11635972 
2166.777 11584721 11506493 11399128 11268529 11126411 10983660 10848667 
2170.152 10724076 10606989 10493905 10383906 10278141 10182509 10103280 
2173.528 10044375 10006296 9986293 9978766 9978121 9979748 9978664 9968866 
2177.385 9945235 9901233 9834019 9746483 9647817 9551173 9471313 9417810 
2181.242 9392619 9390046 9398544 9405926 9405079 9393127 9372068 9345355 
2185.100 9314786 9279513 9237744 9188568 9134153 9080184 9034037 9000986 
2188.957 8982178 8974059 8969595 8962322 8948319 8928160 8905973 8886527 
2192.815 8872662 8864883 8861535 8860183 8859946 8861299 8865221 8872256 
2196.672 8879898 8884802 8882908 8872932 8856565 8839183 8827382 8825420 
2200.530 8834483 8850410 8867183 8878005 8878478 8867893 8847265 8819774 
2204.387 8787313 8750360 8709960 8667604 8625320 8587196 8556781 8535492 
2208.244 8521942 8513055 8504270 8493762 8482172 8472509 8468623 8472915 
2212.102 8484740 8500384 8515522 8526132 8531471 8533836 8536235 8542217 
2215.959 8553166 8568238 8585980 8605177 8624779 8644552 8663886 8680246 
2219.817 8689204 8686433 8668787 8636845 8595139 8550732 8510792 8480010 
2223.674 8458150 8442000 8426359 8407035 8382713 8355285 8328095 8304013 
2227.531 8284155 8268113 8254437 8243461 8235965 8234681 8241502 8255753 
2231.389 8274090 8291078 8301480 8302864 8296819 8288309 8283817 8288714 
2235.246 8304790 8330121 8360318 8390179 8415954 8435920 8449873 8458421 
2239.104 8462035 8461258 8456968 8451224 8447305 8448487 8456528 8470651 
2242.961 8487375 8501432 8508866 8507784 8500249 8491430 8487004 8491599 
2246.819 8506297 8529613 8557491 8586690 8614843 8641273 8666455 8690285 
2250.676 8711955 8729771 8742414 8749311 8751779 8752320 8752760 8753807 
2254.533 8754213 8751204 8742583 8727505 8707053 8684336 8662264 8642220 
2258.391 8623157 8602438 8577058 8545528 8509101 8470347 8433554 8401969 
2262.248 8376768 8357920 8344746 8336843 8335390 8342314 8358763 8384200 
2266.106 8415346 8446191 8470144 8482780 8482342 8470854 8453082 8434230 
2269.963 8419062 8409569 8405617 8405346 8406596 8407035 8404941 8399671 
2273.821 8390922 8379267 8365891 8352785 8342111 8335965 8334883 8338328 
2277.678 8344577 8350927 8355858 8358528 8359980 8361669 8365519 8372005 
2281.535 8380822 8390415 8399266 8406157 8410515 8412440 8411967 8408691 
2285.393 8401664 8390854 8376058 8359236 8342348 8328465 8319549 8315800 
2289.250 8315800 8317590 8318705 8317219 8313199 8307222 8300669 8294962 
2293.108 8290807 8288984 8289794 8293746 8301041 8311781 8324885 8338565 
2296.965 8350927 8359980 8364945 8366904 8367682 8369302 8373153 8379200 
2300.823 8385753 8391159 8394063 8394705 8394739 8396530 8402137 8412575 
2304.680 8427136 8444129 8461596 8478557 8494876 8511467 8529140 8548300 
2308.537 8568744 8589732 8610449 8631065 8652732 8676663 8704112 8735078 
2312.395 8768278 8801548 8832927 8861029 8885614 8907800 8928701 8949334 
2316.252 8969899 8989789 9007717 9023346 9036540 9048111 9059715 9072910 
2320.110 9089252 9109553 9133104 9157840 9180311 9194897 9195845 9177637 
2323.967 9136995 9073959 8993003 8901949 8810170 8727370 8660979 8614234 
2327.824 8586926 8575132 8573915 8578004 8583783 8589596 8595105 8600884 
2331.682 8607711 8616566 8628362 8644011 8664562 8690320 8720811 8754619 
2335.539 8789748 8824000 8856632 8887981 8919435 8952750 8988943 9027237 
2339.397 9065872 9102887 9136826 9167891 9197875 9228707 9261099 9293729 
2343.254 9322876 9343188 9350738 9344339 9326939 9305510 9289938 9289465 
2347.112 9310858 9357644 9429086 9521605 9629151 9744957 9861812 9973171 
2350.969 10073843 10161276 10235089 10297039 10350446 10398328 10442211 
2354.344 10482195 10517599 10547168 10571068 10591066 10609841 10630587 
2357.719 10655817 10686413 10722208 10762115 10805015 10849551 10894872 
2361.095 10939213 10980465 11016387 11044935 11065532 11079196 11088781 
2364.470 11097891 11109244 11124779 11144326 11167818 11194132 11223407 
2367.845 11256253 11292367 11330864 11368923 11402495 11427769 11442771 
2371.220 11447976 11446785 11444268 11445560 11454065 11471109 11495368 
2374.596 11525036 11557701 11592241 11628111 11665719 11705475 11747685 
2377.971 11792419 11839985 11891165 11947016 12008938 12077308 12151958 
2381.346 12231598 12314114 12397636 12481207 12564384 12647408 12730208 
2384.721 12812377 12892239 12967952 13037838 13100941 13157699 13209342 
2388.097 13257165 13301748 13342883 13379342 13409790 13433540 13450902 
2391.472 13463137 13472194 13479405 13486071 13492188 13497726 13502647 
2394.847 13507501 13513039 13520661 13531873 13547426 13568313 13595697 
2398.222 13630262 13672763 13723646 13782265 13847152 13916325 13987528 
2401.598 14059632 14132947 14208876 14290125 14379404 14478397 14587485 
2404.973 14705959 14832350 14964814 15102156 15242938 15386375 15531542 
2408.348 15677754 15825011 15974415 16127517 16286280 16452292 16625425 
2411.723 16803622 16983510 17160442 17330306 17490130 17638452 17775190 
2415.099 17900338 18013916 18115468 18204328 18280212 18343666 18396066 
2418.474 18439176 18474576 18503206 18525474 18541450 18552170 18559740 
2421.849 18567072 18577794 18594842 18619986 18653118 18693278 18739286 
2425.224 18790596 18847582 18912402 18987612 19076132 19180044 19301406 
2428.600 19440956 19599028 19775398 19968596 20176562 20396156 20624408 
2431.975 20858690 21097516 21341416 21591548 21849524 22116648 22392974 
2435.350 22677642 22969448 23267430 23571704 23883050 24202678 24531692 
2438.725 24870080 25217262 25571822 25932826 26299692 26672084 27049908 
2442.101 27432474 27818662 28206960 28596702 28987434 29380220 29776802 
2445.476 30178294 30584884 30995450 31406906 31815860 32219064 32614284 
2448.851 33000496 33377606 33745376 34103924 34452828 34791716 35120592 
2452.226 35439972 35750848 36054524 36351788 36642912 36927340 37203904 
2455.602 37470928 37726408 37967860 38192224 38395784 38575320 38727472 
2458.977 38850072 38941832 39002688 39033132 39033784 39005148 38947916 
2462.352 38863772 38755400 38626960 38484184 38333096 38179668 38029192 
2465.727 37886288 37754816 37639208 37544292 37475116 37436940 37434088 
2469.103 37469156 37542884 37654420 37801840 37982828 38195408 38437556 
2472.478 38706644 38999348 39311620 39637988 39973024 40311956 40650132 
2475.853 40984132 41310736 41626824 41929172 42214780 42480300 42723392 
2479.228 42941412 43131984 43292992 43422232 43518184 43580308 43609648 
2482.604 43608588 43580344 43528988 43457208 43367492 43260960 43138608 
2485.979 43001696 42852684 42694548 42530800 42364672 42197512 42029208 
2489.354 41857468 41678724 41489004 41284608 41062576 40821396 40560888 
2492.729 40281564 39984760 39671820 39343764 39001016 38643476 38269764 
2496.104 37878512 37468364 37038680 36590028 36124628 35645088 35155872 
2499.480 34660924 34163708 33667060 33173166 32682546 32195404 31711194 
2502.855 31229238 30749306 30271788 29798130 29331368 28875590 28434934 
2506.230 28014234 27616326 27242842 26893366 26565906 26257946 25966804 
2509.605 25690800 25429162 25181482 24947592 24726668 24517670 24319740 
2512.981 24131988 23955206 23790676 23640902 23507446 23391758 23293510 
2516.356 23211712 23144256 23089778 23047218 23016368 22997328 22989782 
2519.731 22992820 23005292 23025276 23051762 23083696 23121226 23164668 
2523.106 23214612 23270786 23332492 23398646 23467364 23536478 23604028 
2526.482 23667460 23724428 23773106 23811850 23839608 23856132 23861590 
2529.857 23855990 23839400 23811152 23770692 23717674 23652694 23576950 
2533.232 23492826 23403016 23309346 23213564 23116230 23017520 22917576 
2536.607 22817480 22718278 22622522 22532300 22449006 22373504 22305728 
2539.983 22244728 22189314 22138300 22090292 22043996 21998332 21952254 
2543.358 21905660 21858932 21812660 21768206 21726648 21687914 21651136 
2546.733 21615020 21577620 21538204 21496178 21452384 21408174 21364840 
2550.108 21323216 21283336 21245302 21208492 21172830 21138632 21106386 
2553.484 21076718 21050006 21026392 21005734 20988172 20973776 20961850 
2556.859 20952250 20943212 20932780 20918454 20897978 20869884 20833730 
2560.234 20789864 20739188 20682924 20621976 20557284 20489930 20421646 
2563.609 20354172 20289590 20229322 20173334 20121064 20070744 20021192 
2566.985 19971926 19923706 19878610 19839036 19806644 19782368 19765758 
2570.360 19755804 19751680 19752822 19759898 19773422 19793744 19820204 
2573.735 19851210 19884578 19918466 19952012 19984972 20018558 20053844 
2577.110 20091114 20130364 20170730 20211272 20251610 20292332 20334416 
2580.486 20379384 20428766 20483364 20543528 20609086 20679622 20754758 
2583.861 20833800 20915778 20999544 21083708 21167298 21249792 21331674 
2587.236 21413744 21497188 21583052 21671474 21762180 21854334 21947132 
2590.611 22039988 22132756 22225302 22317414 22408464 22497578 22583708 
2593.987 22666120 22744570 22819156 22890542 22959004 23024996 23088904 
2597.362 23151072 23212480 23274422 23338330 23405640 23476702 23551274 
2600.737 23628622 23707874 23788646 23871462 23957972 24050066 24149222 
2604.112 24256634 24372306 24495198 24624050 24757394 24894254 25034140 
2607.488 25177232 25324024 25475468 25632274 25795216 25964378 26139164 
2610.863 26317928 26498316 26677404 26852478 27021276 27182520 27335988 
2614.238 27482206 27621692 27754972 27882252 28003702 28119210 28229128 
2617.613 28333734 28433590 28528514 28618184 28702104 28779810 28851438 
2620.989 28917802 28980386 29040712 29099876 29157950 29214472 29268378 
2624.364 29318712 29365648 29410000 29453294 29497302 29543512 29592352 
2627.739 29643680 29696400 29749514 29802316 29854062 29904178 29952278 
2631.114 29997648 30039972 30079102 30115678 30150588 30185042 30219886 
2634.490 30255552 30291256 30326074 30358444 30387512 30412920 30435736 
2637.865 30457058 30478882 30502624 30529570 30560390 30595478 30634838 
2641.240 30678786 30726864 30779216 30835524 30895468 30958870 31025448 
2644.615 31095350 31168964 31246542 31328476 31414952 31506326 31602104 
2647.990 31702180 31805768 31911988 32019806 32128182 32236372 32343768 
2651.366 32450936 32558530 32667864 32780260 32896512 33017300 33142626 
2654.741 33272282 33406052 33543446 33684536 33828968 33976600 34127292 
2658.116 34280724 34436832 34595432 34756572 34920356 35086388 35254360 
2661.491 35423148 35591856 35759912 35926736 36092328 36257268 36422048 
2664.867 36587292 36752884 36919112 37085808 37253180 37421592 37591728 
2668.242 37763812 37938064 38114696 38293212 38473652 38655900 38840652 
2671.617 39028712 39220696 39417080 39617916 39822724 40030756 40240960 
2674.992 40452460 40664796 40877056 41089016 41300752 41512080 41723840 
2678.368 41936832 42152052 42370664 42593700 42821672 43055256 43294932 
2681.743 43541184 43795056 44057440 44328896 44609664 44899648 45197884 
2685.118 45504052 45817468 46138368 46467104 46804168 47149876 47504216 
2688.493 47866724 48236908 48614072 48997724 49387688 49783584 50185080 
2691.869 50591676 51003052 51419256 51841048 52269676 52706400 53152100 
2695.244 53606728 54069792 54539696 55015412 55496280 55982656 56475056 
2698.619 56974164 57480244 57992404 58509408 59029696 59552276 60076660 
2701.994 60602828 61130700 61659480 62187492 62712124 63230916 63741424 
2705.370 64242476 64733132 65212840 65680936 66135720 66575220 66997080 
2708.745 67399728 67782488 68145624 68490056 68816592 69125344 69416200 
2712.120 69688776 69943072 70179632 70399576 70603912 70792952 70966112 
2715.495 71121576 71256672 71368936 71456152 71516808 71550608 71558104 
2718.871 71540568 71500368 71441152 71367608 71285496 71201632 71121696 
2722.246 71051056 70993656 70952456 70929392 70926704 70946208 70990256 
2725.621 71060888 71159080 71285096 71438144 71616360 71817840 72041032 
2728.996 72284224 72546152 72825360 73120352 73429200 73749808 74080760 
2732.372 74420728 74768880 75123336 75482096 75842264 76200080 76552104 
2735.747 76895520 77228320 77549648 77859408 78157520 78443696 78718104 
2739.122 78980368 79231616 79473376 79708224 79939296 80169896 80402888 
2742.497 80640960 80886416 81141488 81408056 81688184 81983088 82292624 
2745.873 82616120 82951648 83296512 83647880 84002496 84356928 84706848 
2749.248 85047064 85371568 85674088 85948376 86189984 86396160 86566224 
2752.623 86701080 86803160 86875320 86920200 86939952 86935864 86908256 
2755.998 86855768 86775728 86664912 86518904 86334184 86107888 85838376 
2759.374 85525624 85170448 84774632 84340232 83869560 83365880 82832832 
2762.749 82275288 81698616 81108456 80510600 79910304 79311992 78720328 
2766.124 78139920 77575760 77033384 76518040 76034416 75586736 75177104 
2769.499 74807136 74477288 74187344 73937072 73725272 73550424 73409976 
2772.875 73300560 73217960 73157912 73115960 73087888 73070048 73058176 
2776.250 73048528 73036144 73015872 72982592 72931088 72857176 72756952 
2779.625 72628000 72468936 72279960 72062784 71820656 71558496 71282168 
2783.000 70997512 70710160 70424592 70143848 69869776 69602776 69342416 
2786.375 69087272 68834760 68581656 68323352 68055200 67772728 67472640 
2789.751 67153064 66814564 66459448 66091084 65713732 65331592 64949064 
2793.126 64569944 64198716 63839944 63498212 63178524 62884964 62621212 
2796.501 62389724 62191888 62028384 61899292 61804508 61743464 61715508 
2799.876 61719520 61753892 61816504 61905560 62018676 62154072 62309632 
2803.252 62483376 62673464 62877344 63092424 63315816 63544660 63775808 
2806.627 64005928 64232252 64451048 64659372 64853720 65030604 65186812 
2810.002 65318888 65423652 65498040 65539308 65545164 65514220 65445572 
2813.377 65339492 65197132 65020680 64813524 64580396 64327648 64062224 
2816.753 63792156 63525944 63271204 63035412 62825568 62647356 62505952 
2820.128 62406480 62352700 62347456 62391908 62485140 62624508 62805160 
2823.503 63020976 63264644 63528552 63804896 64085380 64362308 64627840 
2826.878 64874612 65096580 65288388 65446072 65567516 65651448 65698160 
2830.254 65708840 65686404 65634952 65559424 65465756 65359480 65245568 
2833.629 65127836 65008512 64889080 64770444 64654068 64541416 64435168 
2837.004 64337752 64251924 64180276 64125432 64090484 64079576 64097664 
2840.379 64151084 64246848 64391980 64593932 64860260 65198556 65617724 
2843.755 66128084 66740140 67464936 68311216 69282488 70374016 71569832 
2847.130 72841656 74144936 75423632 76613648 77643904 78450840 78982112 
2850.505 79202784 79102232 78692568 78008088 77095904 76013536 74821896 
2853.880 73575576 72325200 71112400 69966424 68909080 67951392 67096256 
2857.256 66339224 65670372 65077252 64545104 64059496 63607872 63178792 
2860.631 62763192 62353576 61943772 61528588 61103732 60666032 60213204 
2864.006 59744576 59261264 58766684 58266500 57769380 57284968 56824324 
2867.381 56398608 56016584 55685892 55411124 55194352 55035080 54930500 
2870.757 54875680 54862896 54882784 54924296 54975324 55025340 55065620 
2874.132 55090524 55098044 55089056 55066112 55031996 54989120 54938960 
2877.507 54881696 54817748 54747416 54671800 54591880 54509228 54425240 
2880.882 54340748 54257428 54176644 54100788 54032224 53973396 53926236 
2884.258 53892024 53871092 53863516 53868916 53887636 53919744 53965516 
2887.633 54024724 54096284 54178292 54268352 54364100 54463628 54565916 
2891.008 54670788 54778656 54890156 55006044 55127088 55253952 55386996 
2894.383 55526592 55673012 55825884 55985564 56152460 56327680 56512940 
2897.759 56710776 56923356 57151760 57395752 57653960 57923524 58201896 
2901.134 58487004 58778028 59075096 59378976 59690020 60008560 60334412 
2904.509 60668128 61011292 61367320 61741212 62138976 62566796 63030780 
2907.884 63536452 64089412 64696676 65365604 66105084 66923940 67828384 
2911.260 68820976 69897296 71046448 72248576 73475696 74695480 75868424 
2914.635 76953392 77912728 78711640 79325704 79742584 79962640 79998728 
2918.010 79871952 79609824 79239288 78783448 78260352 77680152 77046592 
2921.385 76359328 75616192 74815952 73960728 73056960 72116568 71155296 
2924.760 70190776 69241368 68323504 67449256 66626908 65859624 65146736 
2928.136 64484252 63866384 63286840 62739268 62218808 61722420 61249260 
2931.511 60800628 60380480 59994180 59647672 59347064 59097492 58902284 
2934.886 58763272 58680128 58650848 58671748 58737364 58840892 58974092 
2938.261 59128320 59296052 59470612 59647824 59826024 60005400 60187208 
2941.637 60372408 60560924 60751160 60939152 61118912 61282872 61421820 
2945.012 61524888 61581736 61582804 61521336 61395412 61209240 60973392 
2948.387 60702916 60417112 60135492 59875008 59649156 59465976 59328224 
2951.762 59234260 59179276 59157064 59160024 59181324 59214968 59255908 
2955.138 59300420 59345888 59390064 59431212 59467608 59497704 59520696 
2958.513 59536656 59547220 59555160 59564056 59577432 59597880 59626384 
2961.888 59663068 59706404 59754692 59806440 59860480 59916160 59972912 
2965.263 60030244 60087584 60144736 60201824 60259564 60318956 60380788 
2968.639 60445672 60513312 60582828 60653384 60724676 60796968 60871216 
2972.014 60948648 61029980 61115364 61204012 61294664 61386288 61478084 
2975.389 61569784 61661160 61750568 61834992 61908924 61965404 61995860 
2978.764 61992728 61950380 61865596 61738884 61573792 61376596 61155032 
2982.140 60917956 60673844 60429224 60188996 59955072 59725984 59497820 
2985.515 59264568 59020280 58759404 58478744 58177540 57857236 57520564 
2988.890 57169864 56806044 56427544 56030340 55608528 55156352 54669848 
2992.265 54148304 53595220 53018316 52428424 51836528 51252748 50683640 
2995.641 50131676 49594564 49067164 48542924 48015396 47480304 46935972 
2999.016 46383696 45826268 45268120 44713184 44164976 43625732 43097188 
3002.391 42579956 42074220 41580188 41097976 40627828 40170336 39726168 
3005.766 39296244 38881416 38482268 38098744 37730528 37376048 37033880 
3009.142 36702112 36379352 36064284 35756100 35454172 35157632 34865776 
3012.517 34577744 34292700 34010352 33730944 33455364 33184756 32920386 
3015.892 32663326 32414414 32173924 31942122 31718716 31503302 31295218 
3019.267 31093678 30897886 30706914 30520434 30338402 30161104 29989342 
3022.643 29824142 29666102 29516664 29377028 29248992 29135130 29038090 
3026.018 28960160 28902998 28865852 28846552 28840178 28840108 28839010 
3029.393 28828778 28801726 28751770 28673610 28564252 28422658 28249992 
3032.768 28049364 27825266 27583312 27329178 27067752 26803486 26539630 
3036.144 26278360 26021472 25770464 25526242 25289640 25061206 24840606 
3039.519 24627558 24421234 24220686 24025308 23834464 23648076 23466176 
3042.894 23289140 23117592 22952262 22793978 22643466 22500926 22366318 
3046.269 22238658 22116962 21999902 21886600 21776150 21668618 21563970 
3049.645 21462304 21363380 21266528 21171020 21076090 20981148 20885946 
3053.020 20790314 20694496 20598454 20502400 20406816 20312504 20220854 
3056.395 20133418 20051694 19976540 19908200 19845972 19788576 19735104 
3059.770 19684552 19636918 19592650 19552166 19516294 19485520 19460120 
3063.146 19440436 19427338 19421518 19423770 19434512 19452842 19476752 
3066.521 19503574 19529326 19550466 19563638 19566376 19557192 19535632 
3069.896 19502258 19458352 19405546 19346128 19282146 19215056 19145760 
3073.271 19074434 19000628 18924098 18844988 18764264 18683490 18604700 
3076.646 18529552 18459054 18392714 18329634 18267772 18205640 18141656 
3080.022 18075260 18006182 17935006 17862394 17789274 17716688 17645560 
3083.397 17576654 17510414 17446874 17385654 17326444 17268966 17213802 
3086.772 17161994 17114910 17073828 17039368 17010594 16986096 16963458 
3090.147 16940960 16917190 16892110 16866618 16842060 16819742 16800074 
3093.523 16783268 16768837 16756544 16746109 16738120 16733024 16731439 
3096.898 16733747 16739704 16749071 16761331 16775725 16791948 16809546 
3100.273 16827732 16845986 16863520 16879710 16894176 16906648 16917292 
3103.648 16926284 16933828 16940478 16946714 16953536 16961976 16973176 
3107.024 16987784 17005736 17026444 17048396 17069970 17089750 17106948 
3110.399 17121458 17133900 17145482 17157408 17170714 17186328 17205150 
3113.774 17227250 17252622 17280136 17308238 17334444 17356410 17372272 
3117.149 17381068 17382688 17378654 17370376 17359202 17346168 17331616 
3120.525 17315374 17297688 17278964 17260344 17242970 17227524 17214044 
3123.900 17201946 17190052 17177780 17164888 17152478 17142036 17135142 
3127.275 17132798 17135072 17140690 17147826 17154650 17159684 17162716 
3130.650 17164302 17166128 17169646 17176506 17187432 17202668 17221456 
3134.026 17242210 17263208 17282654 17298996 17311892 17321788 17330236 
3137.401 17339272 17350756 17366238 17386104 17409934 17436492 17464534 
3140.776 17492958 17520900 17547948 17574274 17599736 17624648 17649252 
3144.151 17674030 17699466 17726282 17754792 17785030 17816650 17848894 
3147.527 17881244 17913736 17947024 17981970 18019788 18061098 18105484 
3150.902 18151882 18198420 18243444 18285844 18325278 18362124 18397658 
3154.277 18433090 18469392 18507252 18546532 18587200 18628874 18671314 
3157.652 18714346 18758142 18802878 18848966 18896896 18946838 18998792 
3161.028 19052658 19107880 19163872 19220562 19278336 19338022 19400798 
3164.403 19467916 19539654 19615320 19693254 19771028 19846076 19916490 
3167.778 19981502 20041492 20097882 20151988 20205372 20258970 20313026 
3171.153 20367680 20422792 20477980 20533036 20588066 20642546 20696026 
3174.529 20748432 20799422 20849132 20897594 20945332 20992520 21039572 
3177.904 21086284 21132962 21179648 21226932 21275296 21325374 21377650 
3181.279 21432472 21489842 21549798 21612374 21677362 21744902 21814334 
3184.654 21885624 21958390 22032352 22107338 22183664 22261678 22341656 
3188.030 22423744 22507558 22592678 22678340 22764054 22849644 22935494 
3191.405 23021888 23109344 23197976 23287846 23378750 23470408 23562502 
3194.780 23655002 23747768 23840764 23933780 24027058 24120744 24215712 
3198.155 24312802 24412998 24516758 24624190 24734490 24846430 24958930 
3201.531 25070996 25182430 25293502 25404394 25514998 25625174 25734392 
3204.906 25842054 25948056 26052886 26157356 26262556 26368800 26476164 
3208.281 26584010 26691392 26797812 26903168 27008018 27112894 27218816 
3211.656 27326074 27434802 27545078 27656828 27770762 27887622 28007944 
3215.031 28131406 28257276 28383640 28508628 28630500 28748656 28863230 
3218.407 28975392 29086520 29197958 29310168 29423652 29538228 29653898 
3221.782 29770840 29889376 30009862 30131944 30255090 30378130 30499960 
3225.157 30619832 30737144 30852138 30965274 31077162 31188544 31300094 
3228.532 31412068 31524926 31638776 31753364 31868450 31983066 32096394 
3231.908 32207788 32316674 32423270 32527604 32630072 32730524 32829002 
3235.283 32924928 33018478 33109724 33199810 33289988 33381722 33476338 
3238.658 33574268 33675656 33780184 33887284 33996484 34107076 34218520 
3242.033 34329812 34439880 34547856 34653528 34757468 34860788 34965172 
3245.409 35072276 35182816 35296980 35414124 35533348 35654296 35777288 
3248.784 35902948 36031952 36164848 36300708 36438156 36575320 36710264 
3252.159 36842068 36970740 37097248 37223072 37349688 37478260 37609576 
3255.534 37744008 37881660 38022284 38165668 38311312 38458120 38605416 
3258.910 38752252 38898304 39043976 39189872 39336468 39484608 39634068 
3262.285 39784736 39936008 40088052 40240920 40395548 40552744 40713264 
3265.660 40877344 41044472 41214216 41385736 41559004 41734124 41911692 
3269.035 42092068 42274784 42459328 42644320 42828180 43009924 43189188 
3272.411 43366320 43543020 43720924 43902012 44088096 44279616 44476724 
3275.786 44678588 44884000 45091384 45299488 45507696 45716072 45925696 
3279.161 46137888 46354020 46574976 46801104 47031560 47265460 47501556 
3282.536 47739336 47978392 48219652 48464196 48713364 48968012 49228828 
3285.912 49495700 49768052 50044888 50325060 50607684 50892544 51179492 
3289.287 51469460 51763396 52062352 52367116 52677892 52994100 53314688 
3292.662 53639420 53967280 54298804 54634676 54976112 55323800 55678280 
3296.037 56039652 56407776 56782404 57163364 57550676 57944276 58343424 
3299.413 58747152 59154136 59563256 59974056 60387220 60804480 61227860 
3302.788 61659900 62102272 62556080 63021624 63498600 63986504 64484872 
3306.163 64992740 65509140 66032984 66563368 67099660 67642688 68193768 
3309.538 68754360 69326024 69908896 70502224 71103896 71711912 72325392 
3312.914 72944888 73572320 74210496 74862048 75528224 76208568 76901416 
3316.289 77604480 78315752 79034064 79758824 80489944 81226928 81969280 
3319.664 82715240 83463848 84214144 84965624 85718200 86471560 87225376 
3323.039 87978840 88731336 89482616 90233200 90983888 91735568 92488008 
3326.415 93240104 93988904 94731208 95463600 96183368 96888312 97576392 
3329.790 98245464 98893424 99517640 100116480 100688944 101235088 101755288 
3333.165 102249656 102716256 103152592 103554592 103919152 104245160 
3336.058 104533792 104788336 105013024 105210760 105381856 105524664 
3338.951 105634992 105708440 105741584 105732240 105679536 105583272 
3341.844 105443176 105258424 105028168 104751640 104428720 104060104 
3344.737 103646448 103187808 102683848 102133272 101535472 100890536 
3347.630 100200608 99469144 98700656 97900272 97071656 96217904 95340800 
3351.006 94441968 93522344 92583416 91626384 90652800 89664040 88661920 
3354.381 87649296 86630088 85608504 84589920 83578864 82578496 81590736 
3357.756 80615944 79653968 78704520 77768208 76845568 75937872 75045896 
3361.131 74169624 73308880 72463344 71633360 70820128 70025240 69250192 
3364.507 68495840 67761880 67047112 66349564 65668172 65002516 64353584 
3367.882 63722856 63111736 62520340 61947784 61391328 60848080 60314840 
3371.257 59789292 59270300 58757352 58250548 57750648 57258128 56774136 
3374.632 56299392 55835192 55382288 54940424 54509040 54086040 53669488 
3378.008 53257264 52848504 52443452 52043336 51649900 51263968 50885948 
3381.383 50514624 50147816 49783508 49419844 49056184 48692756 48330556 
3384.758 47970252 47612608 47257404 46904336 46553144 46203852 45857236 
3388.133 45514280 45176192 44843584 44516112 44193108 43872944 43554300 
3391.509 43236440 42919428 42603896 42291692 41984132 41681456 41383660 
3394.884 41089452 40797048 40505528 40214456 39924780 39638568 39358092 
3398.259 39085012 38819964 38561852 38308272 38056424 37803432 37547328 
3401.634 37287624 37024932 36760888 36497724 36237636 35982636 35734048 
3405.010 35492824 35259140 35032116 34810128 34590700 34371272 34149548 
3408.385 33924396 33695996 33465672 33235688 33008180 32784440 32564816 
3411.760 32348334 32133676 31919512 31705208 31491044 31278056 31067126 
3415.135 30859110 30653966 30451408 30250224 30049416 29848452 29647404 
3418.510 29446558 29247006 29050028 28857388 28670354 28490478 28318278 
3421.886 28153536 27995078 27840704 27688010 27534768 27379252 27221286 
3425.261 27061722 26902356 26744494 26589436 26437250 26286984 26137088 
3428.636 25986152 25833298 25678530 25522940 25367544 25213892 25063170 
3432.011 24916010 24772514 24632290 24495022 24360180 24227202 24095596 
3435.387 23965114 23835442 23706580 23578420 23451696 23326652 23203602 
3438.762 23082404 22962602 22843182 22722922 22600846 22476012 22348738 
3442.137 22219756 22090012 21960584 21831964 21703380 21573998 21441940 
3445.512 21305954 21166184 21023922 20882226 20745202 20616416 20497850 
3448.888 20389696 20289694 20194298 20099304 20001174 19897758 19788992 
3452.263 19675920 19559896 19442862 19325620 19208302 19090430 18971760 
3455.638 18851944 18731538 18611270 18492314 18375292 18260928 18148874 
3459.013 18038646 17929724 17821346 17713028 17605118 17497856 17392276 
3462.389 17288686 17187570 17088372 16990506 16892386 16792532 16690118 
3465.764 16585216 16478825 16372839 16269390 16169403 16073361 15980260 
3469.139 15888210 15795667 15701182 15605003 15507917 15411505 15316453 
3472.514 15223068 15130288 15036360 14939539 14838967 14735025 14629497 
3475.890 14524784 14423109 14326321 14234793 14147837 14063431 13979555 
3479.265 13893779 13804360 13711027 13614021 13514816 13415633 13318865 
3482.640 13226319 13138745 13055422 12974710 12894594 12813128 12729492 
3486.015 12644372 12559474 12476978 12398624 12324715 12254398 12185898 
3489.391 12116727 12045013 11970244 11892731 11813461 11734000 11655270 
3492.766 11577506 11500470 11423449 11345149 11265264 11183422 11099863 
3496.141 11015163 10930480 10847037 10766327 10689469 10616666 10547508 
3499.516 10480498 10413533 10344236 10271152 10193229 10111284 10027217 
3502.892 9943507 9863100 9788401 9721238 9662487 9612145 9568854 9530275 
3506.749 9493258 9453772 9408363 9354699 9292613 9224206 9153374 9085225 
3510.606 9023854 8971184 8927044 8888590 8852066 8814126 8772268 8726052 
3514.464 8676494 8624914 8572867 8521165 8470246 8419805 8369945 8321339 
3518.321 8275104 8232216 8193351 8157629 8123666 8088962 8051054 8007986 
3522.179 7958781 7903575 7843213 7779420 7713780 7647712 7582532 7519383 
3526.036 7459513 7404033 7354290 7311594 7276180 7248215 7226754 7210549 
3529.894 7197714 7186766 7175986 7163960 7149948 7132533 7110640 7082619 
3533.751 7047257 7003548 6951358 6892374 6829057 6765479 6705579 6652382 
3537.608 6607872 6571776 6542274 6517182 6494345 6472114 6450018 6428294 
3541.466 6407042 6385959 6363834 6338953 6308998 6272422 6228455 6177904 
3545.323 6123529 6068320 6016175 5970621 5933368 5904818 5883389 5865757 
3549.181 5847790 5825156 5794665 5754674 5706159 5651910 5596559 5544606 
3553.038 5499269 5461923 5431457 5405691 5381603 5357215 5330916 5302909 
3556.896 5273091 5242002 5209171 5174130 5136040 5094366 5049479 5002652 
3560.753 4955696 4910454 4868132 4828863 4791875 4754790 4714728 4668305 
3564.610 4612511 4545273 4466462 4378360 4286127 4196925 4118311 4055363 
3568.468 4010683 3981958 3964837 3952298 3938522 3918729 3890311 3852734 
3572.325 3807440 3756502 3702596 3647594 3593000 3539548 3487673 3437440 
3576.183 3389651 3344806 3303204 3265278 3231161 3200684 3173581 3148883 
3580.040 3125855 3103462 3081003 3057144 3031585 3003959 2973699 2940672 
3583.897 2903812 2862018 2814126 2758903 2696285 2627709 2556744 2488191 
3587.755 2427611 2379567 2346185 2326564 2317936 2315538 2314105 2309009 
3591.612 2296651 2275100 2244091 2205192 2161701 2117648 2076729 2041906 
3595.470 2014509 1993871 1978127 1964613 1950634 1934192 1914224 1890861 
3599.327 1865471 1839848 1816257 1796560 1782021 1772805 1767914 1766018 
3603.185 1765020 1762691 1757535 1747321 1730189 1703942 1666522 1616533 
3607.042 1554079 1481860 1404800 1330046 1264909 1213338 1176093 1149348 
3610.899 1126791 1101412 1068461 1026644 980050 935851 901285 882360 880202 
3615.239 891457 908889 923565 927384 914567 883323 835914 779381 723255 
3619.579 676295 645433 633686 639161 656749 680542 704470 724118 737493 
3623.918 745326 749774 752462 753690 750604 736896 704005 643940 553558 
3628.258 438916 316711 209258 136699 107533 117940 154697 202330 247217 
3632.597 279343 294595 294230 283355 268800 256831 251195 251891 256997 
3636.937 263429 268004 268999 266048 259351 249869 238199 224740 210120 
3641.277 195369 182275 173060 169977 173657 183303 196164 207667 212706 
3645.616 206772 186385 150123 99115 35421 -37738 -116318 -195446 -268667 
3649.956 -328068 -364950 -372598 -348761 -297210 -226743 -148978 -76864 
3653.813 -21470 9774 14844 -2418 -31774 -58444 -69774 -57318 -19714 37542 
3658.635 105511 173690 233027 276459 300397 304873 293036 271187 245460 
3662.975 221889 204684 195236 193048 196860 204949 216054 229215 243205 
3667.314 256566 268137 279708 298143 338098 421304 572170 806900 1130346 
3671.654 1533962 2002992 2519150 3064485 3620596 4158118 4633240 4990988 
3675.511 5172822 5143115 4902579 4484740 3938890 3315657 2664246 2027558 
3679.369 1444858 949864 560625 278846 90067 -29256 -104061 -153383 -187233 
3683.708 -209356 -220749 -224127 -226345 -237506 -268302 -326909 -414375 
3687.566 -524757 -643880 -755362 -845916 -908280 -942534 -952849 -944419 
3691.423 -921076 -885531 -840790 -789793 -737368 -688542 -646923 -614499 
3695.281 -591503 -575752 -564502 -555104 -545904 -537002 -530383 -528729 
3699.138 -535811 -554541 -586540 -630745 -682951 -736243 -781789 -812382 
3702.995 -823428 -814498 -788999 -752682 -712459 -674052 -642027 -619462 
3706.853 -607948 -608246 -621282 -647287 -686326 -737136 -797797 -863938 
3710.710 -930169 -990306 -1037214 -1064682 -1068979 -1049014 -1007199 
3714.085 -949279 -883580 -818897 -763333 -723309 -700848 -694000 -697176 
3717.943 -703462 -706637 -704090 -696845 -689270 -686425 -690759 -702171 
3721.800 -716925 -729892 -736971 -737798 -734887 -734424 -741469 -758636 
3725.658 -784269 -812580 -835002 -843270 -833283 -805800 -766442 -723772 
3729.515 -687616 -666245 -665120 -684804 -721060 -766541 -812679 -854183 
3733.373 -890689 -926961 -969677 -1022802 -1084612 -1146315 -1194957 
3736.748 -1218450 -1211643 -1177047 -1123644 -1061740 -999298 -940716 
3740.123 -886358 -835366 -788801 -752120 -736905 -758405 -829050 -951163 
3743.980 -1105996 -1257172 -1361263 -1391881 -1350330 -1259815 -1152164 
3747.356 -1056055 -994273 -978074 -1007563 -1071491 -1152098 -1230311 
3750.731 -1291960 -1330775 -1345475 -1336622 -1306000 -1255520 -1189604 
3754.106 -1114820 -1039990 -973678 -922200 -888838 -872767 -871081 -878984 
3757.964 -892872 -910330 -929540 -947857 -961015 -963197 -949345 -918431 
3761.821 -874421 -825280 -781657 -752881 -743586 -752484 -772528 -793828 
3765.678 -807057 -808545 -799979 -788999 -784104 -791480 -813242 -846114 
3769.536 -882654 -914067 -932748 -935029 -921142 -894095 -858779 -819955 
3773.393 -782153 -748812 -722284 -703362 -691883 -687086 -688344 -695721 
3777.251 -710144 -732406 -762407 -796771 -830240 -855010 -864335 -855836 
3781.108 -831695 -798822 -765979 -741105 -729264 -730752 -741734 -755692 
3784.966 -766111 -768691 -762175 -747787 -728073 -705446 -681628 -658205 
3788.823 -636601 -618900 -607220 -603249 -606691 -615657 -626907 -637097 
3792.680 -644905 -651588 -660984 -678088 -706439 -745802 -791910 -835565 
3796.538 -866782 -878422 -869262 -844725 -815226 -793596 -792637 -819955 
3800.395 -876537 -952287 -1029413 -1085604 -1103319 -1078068 -1017314 
3803.771 -937608 -858349 -798789 -772925 -785923 -832588 -896608 -955494 
3807.628 -988290 -984323 -945675 -883249 -811026 -741172 -681132 -632664 
3811.485 -594051 -562615 -537432 -520885 -519131 -538458 -583429 -652184 
3815.343 -734754 -813804 -871444 -896641 -889764 -861557 -828488 -808446 
3819.200 -814895 -854414 -923192 -1006769 -1081671 -1124173 -1121265 
3822.575 -1073044 -992587 -897997 -808082 -736706 -690692 -670049 -667700 
3826.433 -673920 -677526 -671902 -656286 -635079 -615492 -604374 -605764 
3830.290 -619628 -642490 -668263 -690924 -706306 -712327 -709614 -699823 
3834.148 -685995 -671108 -658966 -653507 -658768 -677460 -709515 -751128 
3838.005 -794853 -831596 -854282 -859242 -847701 -824552 -796441 -769981 
3841.863 -749375 -736905 -732042 -732207 -733564 -732207 -725493 -712062 
3845.720 -692512 -668693 -643350 -618867 -596830 -577175 -558975 -540874 
3849.577 -522739 -507317 -501690 -516120 -562284 -650199 -779904 -937674 
3853.435 -1094164 -1216335 -1281422 -1285188 -1239034 -1161714 -1070730 
3856.810 -978108 -891318 -813605 -745869 -688641 -642424 -608047 -586010 
3860.667 -576348 -577705 -588260 -606227 -630282 -659165 -691387 -722846 
3864.525 -747159 -757280 -747622 -717653 -673093 -625120 -588360 -575388 
3868.382 -594547 -644740 -715668 -787312 -838971 -858316 -844857 -808479 
3872.240 -763168 -722549 -694861 -681396 -677129 -673854 -664094 -643582 
3876.097 -613176 -578069 -545639 -523037 -516054 -527537 -556957 -599246 
3879.955 -645567 -685432 -708887 -710045 -688906 -651853 -609900 -575421 
3883.812 -559670 -569796 -604639 -654367 -702039 -730752 -728734 -695324 
3887.669 -638553 -573403 -514995 -476140 -464522 -481104 -519595 -567943 
3891.527 -613176 -644442 -656121 -648478 -625484 -592628 -555401 -517940 
3895.384 -483388 -454427 -433110 -421260 -420300 -430429 -450290 -477066 
3899.242 -506820 -535546 -560795 -581940 -600569 -618966 -639777 -663730 
3903.099 -689005 -711500 -725956 -727411 -713915 -685995 -647684 -604077 
3906.957 -560332 -520621 -486896 -459657 -437678 -419704 -404345 -390607 
3910.814 -378292 -366870 -355879 -344722 -332505 -319360 -306216 -295521 
3914.671 -290124 -292938 -305123 -325982 -352204 -379152 -401663 -416262 
3918.529 -420896 -415633 -401498 -380477 -354555 -325784 -297441 -273269 
3922.386 -257640 -254428 -265455 -289826 -322936 -357700 -386402 -402954 
3926.244 -405040 -394281 -375345 -353826 -334624 -321082 -313566 -311348 
3930.101 -312705 -316116 -320751 -326347 -332505 -338233 -342404 -343629 
3933.958 -341808 -337670 -333266 -330485 -330949 -334359 -339027 -342139 
3937.816 -341676 -336279 -327505 -318533 -313566 -316248 -328797 -350184 
3941.673 -377398 -405404 -428145 -441584 -443206 -433210 -414143 -389911 
3945.531 -364983 -343199 -327638 -319725 -319261 -324757 -333763 -343464 
3949.388 -352005 -357898 -360911 -360812 -357865 -351972 -342868 -330551 
3953.246 -315387 -298633 -282177 -268236 -258898 -254990 -256348 -261613 
3957.103 -268700 -275190 -279329 -279726 -276117 -268766 -258467 -246579 
3960.960 -234658 -224425 -217172 -213926 -214655 -218265 -223530 -228498 
3964.818 -231777 -232505 -230485 -226379 -221014 -215119 -209224 -203627 
3968.675 -198957 -195645 -194320 -195281 -198394 -202732 -206839 -208893 
3972.533 -207601 -202236 -192962 -181370 -168851 -156993 -146858 -139074 
3976.390 -133410 -129733 -127712 -127249 -128011 -129766 -131886 -133708 
3980.248 -134834 -134933 -133807 -132052 -130131 -128574 -127613 -127712 
3984.105 -128839 -131588 -135762 -141426 -148448 -155900 -162856 -168420 
3987.962 -171898 -173090 -172329 -170043 -166566 -161862 -155503 -147123 
3991.820 -136457 -124036 -110819 -98098 -87531 -79812 -75671 -74644 -76665 
3996.159 -81435 -88790 -98860 -111647 -126917 -143380 -159842 -174283 
4000.017 -185146 -191207 
##END=
