
##TITLE=1708_1_a
##JCAMP-DX=5.01  $$ Nicolet v. 1
##DATATYPE=INFRARED SPECTRUM
##ORIGIN=UniL
##OWNER=Nicolet
##LONGDATE=2011/09/08
##TIME=11:51:27
##SPECTROMETER/DATA SYSTEM=Nicolet iS5
##DATA PROCESSING=
Ratio against background
%Transmittance->Absorbance
Truncated
ElementMultiply or ElementDivide
##COMMENTS=
Number of sample scans: 32
Collection length: 51.14 sec
Sample gain: 2.0
Background collected on: Jeu Sep 08 11:48:24 2011 (GMT+02:00);
Number of background scans: 32
Background gain: 2.0
Sample spacing:  1.000
Number of scan points: 12415
Resolution points: 8192
Number of FFT points: 65536
Apodization: N-B fort;
Phase correction: Mertz;
Laser frequency: 15798.0 cm-1
Number of rejected sample scans: 0
Number of rejected background scans: 0
Bench serial number: ASB1000141;
##RESOLUTION=4.000
##XUNITS=1/CM
##YUNITS=ABSORBANCE
##FIRSTX=649.893372
##LASTX=4000.122314
##FIRSTY=0.104814
##MAXX=4000.122314
##MINX=649.893372
##MAXY=0.325808
##MINY=-0.002334
##XFACTOR=1.000000
##YFACTOR=1.000000E-009
##NPOINTS=6950
##DELTAX=0.482117
##ZPD=6100
##XYDATA=(X++(Y..Y))
649.893 104813848 104443976 104171320 104017328 103976280 104020024 
652.786 104112736 104229528 104365984 104533920 104749992 105021672 
655.679 105340384 105687096 106045640 106415648 106817248 107284496 
658.571 107848648 108519832 109282080 110097856 110927688 111746080 
661.464 112553312 113370352 114225480 115135712 116097768 117087472 
664.357 118072400 119021944 119906448 120695576 121343376 121778104 
667.250 121917288 121703552 121150456 120340568 119375048 118312328 
670.142 117153904 115860144 114383904 112699448 110821576 108809712 
673.035 106745344 104717824 102789344 100983928 99297032 97709320 96204584 
676.410 94777120 93430952 92171488 90998888 89904096 88873256 87893760 
679.785 86959952 86073712 85241648 84469000 83755872 83097584 82487056 
683.159 81919264 81393464 80911968 80476064 80081512 79717144 79365400 
686.534 79008784 78635856 78244608 77842960 77444456 77061832 76700936 
689.909 76358896 76025416 75688960 75339680 74973472 74590816 74196032 
693.284 73794032 73390944 72995528 72622008 72289392 72020888 71835232 
696.659 71738600 71716792 71732784 71733520 71655400 71443888 71066784 
700.034 70519568 69826816 69033352 68195360 67362888 66575924 65859772 
703.408 65224616 64670332 64191460 63780180 63428304 63126296 62864320 
706.783 62631280 62416848 62214408 62021964 61843548 61687968 61569100 
710.158 61503892 61511828 61615948 61837932 62192884 62681688 63282052 
713.533 63942192 64580940 65105548 65425656 65474152 65227860 64708984 
716.908 63983352 63139668 62285576 61532752 60984680 60748644 60922528 
720.282 61580056 62755080 64407348 66407664 68518608 70435392 71839224 
723.657 72441336 72077600 70737728 68577352 65865172 62928124 60080316 
727.032 57538532 55421100 53745376 52460276 51482256 50728140 50137588 
730.407 49669784 49299936 49011708 48788320 48614112 48477160 48370924 
733.782 48294896 48251384 48242388 48266044 48317372 48389776 48480052 
737.156 48587800 48715700 48866328 49039116 49229944 49432724 49642552 
740.531 49858464 50083704 50324168 50583112 50858904 51142400 51419328 
743.906 51674116 51891188 52057380 52159740 52181936 52103700 51902428 
747.281 51557472 51059692 50417264 49659196 48828808 47978132 47157780 
750.656 46405488 45746116 45191452 44743372 44398472 44150852 43993928 
754.031 43920052 43921076 43988316 44112340 44282772 44488176 44713184 
757.405 44940220 45151708 45331632 45472152 45575548 45655636 45732716 
760.780 45829804 45965880 46150860 46386868 46670556 47000060 47379484 
764.155 47826108 48370704 49064232 49975844 51182768 52767344 54788536 
767.530 57254760 60091844 63126528 66099340 68673592 70527832 71427672 
770.905 71288728 70220688 68505192 66539152 64694524 63247204 62300452 
774.279 61771920 61430828 60977012 60159160 58825152 56977944 54750460 
777.654 52368536 50073776 48055996 46440328 45264700 44500472 44078084 
781.029 43917628 43949380 44117692 44387132 44735772 45149280 45619492 
784.404 46142496 46718188 47349772 48042524 48801852 49632636 50540640 
787.779 51533068 52619916 53815020 55134648 56595144 58213148 60004524 
791.154 61986040 64178548 66607052 69299672 72285208 75584928 79207112 
794.528 83140392 87353552 91795032 96394592 101077288 105765080 110389344 
797.903 114907848 119315000 123654944 128015384 132523360 137310816 
800.796 142467360 148000880 153787248 159563056 164897104 169260720 
803.689 172122192 173009184 171664368 168106944 162660128 155871552 
806.581 148402800 140907600 133843912 127440568 121674608 116337048 
809.474 111122280 105744576 100046184 94020792 87813240 81645912 75771328 
812.849 70397008 65644240 61560240 58121852 55266300 52911376 50977080 
816.224 49394004 48099784 47043560 46183656 45486352 44930188 44502972 
819.598 44200004 44018972 43956712 44007164 44163104 44418880 44773312 
822.973 45230536 45798508 46485396 47295900 48229536 49280560 50439144 
826.348 51691360 53019256 54400228 55804032 57198820 58556652 59862876 
829.723 61128296 62395348 63743456 65274024 67105612 69356408 72113944 
833.098 75419768 79237696 83441920 87786680 91911424 95399160 97783520 
836.473 98662560 97795472 95143224 90904800 85457776 79311072 72972480 
839.847 66870056 61333396 56540908 52550128 49327476 46785528 44814084 
843.222 43300020 42148148 41275900 40614768 40114256 39735684 39453948 
846.597 39256744 39138088 39094944 39122500 39212100 39353772 39538896 
849.972 39763460 40028356 40337368 40694200 41099212 41549376 42040124 
853.347 42569284 43140036 43761304 44445088 45203032 46044084 46972704 
856.721 47992896 49111276 50340464 51702332 53227188 54950240 56913760 
860.096 59164352 61749536 64718672 68107832 71924688 76124152 80590376 
863.471 85128520 89451712 93234232 96144344 97887288 98282272 97278992 
866.846 94976600 91593656 87444432 82886728 78242936 73795168 69746160 
870.221 66206724 63222332 60781688 58841200 57339752 56214984 55412404 
873.596 54883012 54588008 54496868 54583428 54829664 55225168 55769108 
876.970 56468448 57335900 58383636 59614832 61016020 62548540 64151244 
880.345 65736400 67199512 68440288 69367224 69920616 70084976 69891848 
883.720 69416128 68756072 68023848 67317424 66707336 66237212 65922400 
887.095 65760032 65740184 65853372 66094512 66460832 66948212 67547920 
890.470 68243552 69014360 69837056 70688720 71551744 72409704 73248352 
893.844 74053568 74811032 75507408 76133232 76683336 77158112 77561536 
897.219 77901392 78187864 78433936 78657584 78879312 79120640 79400008 
900.594 79726776 80098488 80500712 80912368 81311224 81681896 82021712 
903.969 82340928 82661616 83010096 83416384 83908992 84512072 85249704 
907.344 86142792 87208808 88461616 89908904 91552208 93388800 95414232 
910.719 97625672 100023656 102611880 105396208 108384112 111584200 115009912 
914.093 118683536 122637968 126917992 131575568 136657440 142197808 
916.986 148204416 154651456 161465840 168520480 175636800 182553888 
919.879 188947408 194455712 198685072 201306912 202125104 201138736 
922.771 198580832 194907872 190777152 186896288 183976576 182637040 
925.664 183270624 186027696 190749136 197000944 204057696 210996864 
928.557 216894320 220871072 222305232 220931344 216818352 210316144 
931.450 201913120 192161264 181559520 170523680 159418864 148538928 
934.342 138134992 128435968 119618544 111819760 105134736 99606408 95245360 
937.717 92036728 89948320 88932128 88914520 89790408 91394528 93497064 
941.092 95827504 98063488 99889768 101049568 101357680 100747016 99265592 
944.467 97067800 94371920 91419600 88451024 85652176 83150472 81015808 
947.841 79262352 77869912 76797840 76003120 75444568 75087216 74903112 
951.216 74865944 74950520 75134512 75397776 75725056 76107648 76539816 
954.591 77017720 77536384 78088504 78666160 79262752 79875176 80504584 
957.966 81154264 81827288 82523272 83238072 83964344 84695864 85429248 
961.341 86165864 86909920 87666648 88438872 89225944 90024792 90832424 
964.716 91648072 92474184 93314736 94173040 95049304 95940104 96840400 
968.090 97745960 98656160 99573728 100503776 101449704 102411496 103385512 
971.465 104366736 105352288 106344152 107349064 108376416 109434200 
974.358 110525608 111648632 112798424 113971248 115167112 116390200 
977.251 117646792 118940104 120267656 121620416 122984216 124345160 
980.143 125693080 127021360 128325744 129600808 130836248 132018744 
983.036 133134304 134173216 135134880 136027776 136866448 137665664 
985.929 138437712 139190416 139928832 140659632 141393520 142144064 
988.821 142926224 143750352 144619520 145529520 146472592 147441936 
991.714 148435712 149457136 150512272 151605408 152735584 153896464 
994.607 155079584 156278816 157493136 158726416 159983856 161267952 
997.500 162574544 163894736 165217712 166537008 167853520 169175808 
1000.392 170516208 171884736 173287216 174724304 176195264 177702928 
1003.285 179256064 180867264 182550208 184312608 186154224 188068416 
1006.178 190047424 192088864 194199056 196391312 198680608 201075952 
1009.070 203575968 206167392 208830064 211542656 214283616 217030096 
1011.963 219754656 222415952 224962000 227338176 229495424 231407920 
1014.856 233079136 234542608 235850320 237060912 238232560 239412576 
1017.748 240641600 241957728 243394288 244981392 246739872 248676144 
1020.641 250783920 253049456 255463248 258028384 260765104 263705008 
1023.534 266881968 270319072 274021248 277974560 282153312 286528160 
1026.427 291064992 295724480 300450912 305155264 309720608 314002016 
1029.320 317834624 321065664 323552608 325168192 325807616 325376160 
1032.213 323799424 321042592 317122304 312123488 306186624 299504640 
1035.106 292290336 284744640 277065792 269429376 261990192 254901648 
1037.999 248299152 242297904 236996784 232460912 228726944 225804912 
1040.892 223675152 222284624 221530976 221261520 221248800 221190352 
1043.785 220760336 219614400 217462240 214134352 209593904 203955376 
1046.678 197443152 190367808 183057744 175805888 168869744 162428736 
1049.571 156587200 151390544 146828400 142853520 139394992 136376224 
1052.464 133723480 131370712 129267976 127375352 125659672 124092880 
1055.357 122646976 121294568 120012840 118783104 117593408 116437240 
1058.250 115309512 114204696 113115336 112032848 110952024 109873464 
1061.144 108806216 107766768 106775000 105852168 105015848 104278896 
1064.037 103650488 103134608 102729640 102424080 102194272 101999248 
1066.930 101780720 101475064 101016072 100351664 99456064 98332176 97013152 
1070.305 95551328 94015032 92472872 90984136 89598296 88346968 87245264 
1073.680 86293360 85479432 84783328 84179752 83645304 83159984 82708832 
1077.055 82282288 81872736 81472320 81071840 80661064 80231672 79780920 
1080.431 79314696 78847288 78398488 77991624 77649016 77388584 77225992 
1083.806 77173736 77243280 77446800 77795152 78297416 78960096 79786016 
1087.181 80775464 81926592 83236072 84696536 86293648 88004928 89797416 
1090.556 91630520 93466992 95276104 97042160 98765496 100457544 102131352 
1093.932 103791384 105427128 107012456 108513960 109899368 111154456 
1096.825 112291912 113358040 114424224 115574424 116887808 118407368 
1099.718 120121528 121944928 123728160 125260648 126301528 126640736 
1102.611 126118320 124669112 122331768 119241784 115602872 111637544 
1105.504 107577072 103617672 99901656 96528024 93543016 90952808 88734096 
1108.879 86845536 85236032 83849992 82636840 81551632 80555040 79617984 
1112.254 78715760 77829288 76944728 76052936 75151256 74244104 73342768 
1115.630 72463616 71623672 70839712 70124104 69484048 68922472 68438816 
1119.005 68031024 67695504 67427784 67221608 67068644 66959968 66885600 
1122.380 66835424 66798328 66760116 66699260 66588432 66391684 66069552 
1125.755 65589212 64928092 64082532 63068784 61922640 60692056 59426992 
1129.131 58175832 56976052 55850492 54809964 53853688 52972948 52154808 
1132.506 51385576 50652996 49947780 49265604 48606848 47975988 47379148 
1135.881 46822952 46311624 45846780 45427380 45051316 44716784 44423136 
1139.256 44170660 43959900 43790480 43660392 43567120 43508256 43483684 
1142.632 43495112 43546060 43640128 43779080 43961444 44183056 44438076 
1146.007 44720124 45023824 45344912 45678856 46020948 46365484 46706788 
1149.382 47040716 47365880 47684120 47999408 48316372 48638904 48968460 
1152.757 49305060 49648160 49997928 50355344 50722068 51098344 51482072 
1156.133 51868788 52251664 52623320 52977028 53307348 53609128 53877656 
1159.508 54106380 54287388 54413488 54478204 54477788 54411572 54281008 
1162.883 54088740 53837108 53528460 53165656 52752788 52296884 51806924 
1166.258 51293388 50767052 50237972 49714472 49205152 48718072 48262680 
1169.634 47849524 47488212 47186848 46950888 46782432 46681660 46648456 
1173.009 46683984 46791656 46976400 47243512 47597672 48042748 48581980 
1176.384 49220512 49965700 50827652 51818944 52952548 54240160 55692560 
1179.759 57319524 59131284 61140616 63361788 65809920 68500336 71444392 
1183.135 74650264 78119688 81846896 85811448 89970656 94257592 98565936 
1186.510 102754912 106665240 110115912 112935744 114984656 116156216 
1189.403 116399208 115717944 114172504 111866960 108937944 105545672 
1192.296 101843632 97975464 94068312 90218232 86500064 82968016 79653968 
1195.671 76575784 73738304 71136448 68758432 66588552 64610892 62810516 
1199.046 61175176 59697280 58371468 57194436 56162604 55270436 54510356 
1202.422 53872328 53344924 52917328 52579564 52321740 52133888 52004044 
1205.797 51917592 51859752 51815584 51772764 51724240 51667064 51601796 
1209.172 51531164 51458084 51386020 51318968 51263484 51228964 51227432 
1212.547 51272956 51379308 51557692 51817676 52165160 52604472 53138284 
1215.923 53767428 54490256 55301824 56194732 57159664 58187388 59271784 
1219.298 60410256 61603612 62854476 64166568 65543392 66988924 68509344 
1222.673 70113552 71811816 73615152 75529800 77555040 79680040 81884984 
1226.048 84142592 86418640 88676584 90877112 92977632 94938632 96724912 
1229.424 98310936 99688144 100865872 101872912 102750848 103554464 104346560 
1232.799 105191128 106159944 107327296 108764496 110544536 112730888 
1235.692 115373120 118507600 122153384 126315056 130983176 136136480 
1238.585 141738720 147730272 154033200 160543744 167136272 173686208 
1241.478 180068608 186170208 191899408 197172272 201910192 206038864 
1244.371 209479392 212154768 213995808 214936400 214921184 213908048 
1247.264 211872016 208816672 204780352 199839088 194093984 187656528 
1250.157 180635232 173117680 165173568 156865376 148257328 139432496 
1253.050 130499928 121582096 112819344 104354392 96308632 88789584 81874176 
1256.426 75601528 69981376 64992780 60593988 56727992 53332896 50348796 
1259.801 47716480 45385224 43312392 41461188 39804276 38320140 36990836 
1263.176 35800964 34734640 33775136 32907020 32116584 31393796 30732982 
1266.551 30130878 29585010 29091692 28645578 28240656 27872324 27539392 
1269.927 27244746 26993948 26794042 26651190 26569322 26552098 26603774 
1273.302 26731630 26947128 27262988 27691506 28240162 28907284 29679264 
1276.677 30528290 31415202 32287228 33082516 33741508 34208088 34443252 
1280.052 34433208 34190772 33753112 33171594 32505394 31805768 31109660 
1283.427 30439716 29804376 29204584 28639206 28108818 27616184 27165376 
1286.803 26759082 26397920 26080470 25805236 25571682 25380332 25231588 
1290.178 25123726 25051832 25008728 24987040 24982548 24995988 25033088 
1293.553 25101996 25210028 25361292 25556674 25794654 26075300 26402144 
1296.928 26782870 27228448 27749992 28357218 29058246 29859172 30764990 
1300.304 31777856 32893152 34093600 35343308 36590676 37765008 38789204 
1303.679 39594976 40126724 40355256 40279748 39926816 39344452 38593392 
1307.054 37744732 36866124 36017912 35250368 34594968 34066004 33661444 
1310.429 33367302 33163510 33029310 32948698 32909628 32902944 32920278 
1313.805 32950840 32982584 33004570 33008788 32991808 32954916 32900874 
1317.180 32831576 32746174 32641392 32514178 32364290 32196582 32019484 
1320.555 31842634 31674414 31518620 31375844 31245864 31130516 31035484 
1323.930 30970470 30945492 30969260 31046626 31178646 31365800 31609480 
1327.306 31913274 32281372 32714482 33207502 33746128 34310920 34881756 
1330.681 35441448 35980872 36497832 36994192 37471216 37925912 38349960 
1334.056 38733052 39065180 39340716 39560096 39729004 39857152 39955876 
1337.431 40038784 40122580 40226528 40374312 40589592 40890960 41289564 
1340.807 41786472 42374900 43044972 43788204 44599712 45476716 46416952 
1344.182 47416176 48467568 49564552 50702776 51880700 53097464 54344652 
1347.557 55597536 56811672 57917088 58826668 59455452 59725872 59588836 
1350.932 59031328 58078444 56789504 55246428 53551700 51808044 50110440 
1354.308 48544520 47171740 46030528 45135752 44480764 44044528 43799344 
1357.683 43719932 43785088 43978452 44286516 44694712 45187148 45749944 
1361.058 46374112 47059804 47815824 48654988 49584424 50597412 51668892 
1364.433 52757500 53812244 54772488 55577916 56168560 56485016 56481204 
1367.809 56130100 55432280 54419044 53148840 51697480 50137548 48534700 
1371.184 46938112 45377644 43875768 42453664 41137860 39965540 38975792 
1374.559 38197976 37641700 37292856 37121792 37094796 37189720 37403172 
1377.934 37753368 38274724 39013960 40028936 41381692 43141352 45376176 
1381.310 48130136 51396952 55082624 59002972 62865012 66306448 68968688 
1384.685 70504792 70657680 69308336 66517636 62552676 57836792 52895020 
1388.060 48190848 44037636 40585192 37830288 35683648 34019884 32721166 
1391.435 31689416 30849612 30153216 29568800 29080248 28684228 28384560 
1394.811 28186454 28090896 28091180 28174184 28325034 28528762 28773296 
1398.186 29050346 29353382 29678766 30024562 30391172 30779502 31190074 
1401.561 31620670 32065998 32517996 32966140 33401974 33819692 34217052 
1404.936 34593068 34946536 35273732 35570564 35836120 36076020 36303408 
1408.312 36538200 36801748 37110240 37472624 37888672 38353076 38860036 
1411.687 39407612 39997184 40630120 41302464 42002676 42712388 43415388 
1415.062 44104968 44790540 45499896 46276088 47170412 48227648 49475908 
1418.437 50909008 52479084 54100976 55673012 57105996 58333076 59318728 
1421.813 60058132 60575208 60928020 61206340 61528400 62006944 62722312 
1425.188 63705816 64938100 66373116 67961496 69673376 71496144 73427944 
1428.563 75465848 77596872 79800992 82062776 84384408 86789888 89312624 
1431.938 91984104 94816600 97803808 100926688 104175280 107566368 111143248 
1435.313 114968160 119089984 123510184 128153968 132895168 137608016 
1438.207 142201760 146624416 150829872 154755296 158284256 161247392 
1441.100 163462992 164741792 164933328 163953232 161781408 158473360 
1443.993 154150512 149009008 143292352 137256608 131172296 125276920 
1446.886 119767384 114804896 110486040 106834024 103788984 101232128 
1449.779 99015976 97008104 95135216 93395736 91857176 90615080 89760056 
1453.154 89330896 89301384 89583232 90049288 90569152 91018168 91321584 
1456.529 91480624 91587232 91785208 92207048 92947672 94047080 95514128 
1459.905 97342416 99510312 101976992 104670680 107499320 110332056 112996864 
1463.280 115307648 117067992 118127976 118437880 118072048 117204728 
1466.173 116035912 114754104 113495072 112340104 111340544 110518296 
1469.066 109870728 109368000 108950424 108533488 108017344 107325176 
1471.959 106437072 105414968 104384440 103488896 102838504 102482304 
1474.852 102427776 102664832 103184232 103983856 105060328 106395792 
1477.745 107948856 109654736 111440744 113229056 114958656 116596352 
1480.638 118139544 119619016 121088408 122616952 124274272 126128152 
1483.531 128253176 130727800 133635088 137046768 140996256 145442720 
1486.424 150234032 155115344 159704928 163530048 166108496 166977040 
1489.317 165810448 162521504 157303280 150605808 142992944 135021824 
1492.210 127098384 119442136 112148440 105216880 98625016 92394248 86601568 
1495.586 81387872 76927560 73364344 70767328 69113264 68319864 68275928 
1498.961 68874208 70027504 71656376 73682472 76026128 78594400 81286296 
1502.336 84002816 86620744 88996096 90952512 92236344 92527608 91469824 
1505.711 88776168 84424288 78786824 72547096 66371224 60662372 55522448 
1509.087 50874624 46599800 42614712 38886964 35436268 32303538 29517232 
1512.462 27085702 24989320 23191754 21652250 20333166 19201064 18221502 
1515.837 17360340 16589141 15891097 15268402 14736910 14313068 13999984 
1519.212 13780760 13618534 13471442 13308614 13130480 12970887 12879337 
1522.588 12888655 12996594 13171908 13371893 13563903 13734794 13897268 
1525.963 14079859 14313891 14614248 14974246 15371305 15782712 16196607 
1529.338 16616166 17055632 17530594 18050078 18612516 19209134 19830122 
1532.713 20473466 21146808 21863254 22627270 23429244 24245210 25048006 
1536.089 25811532 26518320 27162730 27745366 28271526 28744548 29159226 
1539.464 29499464 29744936 29887884 29940174 29927962 29877486 29798022 
1542.839 29679938 29498436 29230314 28866488 28423082 27936418 27451356 
1546.214 27000120 26589294 26202404 25809810 25386092 24921730 24431294 
1549.590 23946592 23504542 23126714 22811438 22538372 22281626 22023672 
1552.965 21762806 21512890 21295410 21126598 21007958 20923948 20847984 
1556.340 20750830 20602624 20374972 20046386 19612410 19104002 18587926 
1559.715 18140686 17809262 17598598 17484990 17433490 17409726 17383792 
1563.091 17336858 17263414 17173162 17086820 17026996 17008354 17029648 
1566.466 17075930 17125354 17160338 17172712 17167474 17158960 17165370 
1569.841 17199118 17262312 17350100 17456118 17576930 17711338 17857594 
1573.216 18009910 18155196 18275720 18355762 18389846 18391158 18389810 
1576.592 18420578 18502446 18631502 18786720 18943618 19082916 19195870 
1579.967 19283740 19353020 19411366 19462302 19505516 19538788 19561594 
1583.342 19577226 19591680 19609532 19629604 19642706 19635288 19593344 
1586.717 19511028 19393868 19259216 19131184 19034068 18988754 19008140 
1590.093 19100784 19272620 19528182 19867928 20283064 20751840 21236918 
1593.468 21690840 22068258 22332306 22465404 22471266 22372040 22200262 
1596.843 21989896 21773850 21579674 21431704 21354400 21369852 21496806 
1600.218 21747792 22126376 22629292 23249426 23979646 24812504 25736816 
1603.594 26734274 27772244 28803318 29773820 30622820 31293188 31740640 
1606.969 31933636 31860820 31530804 30971288 30223438 29333920 28355806 
1610.344 27340292 26335178 25384334 24518056 23751898 23084850 22502358 
1613.719 21981880 21498338 21030704 20564650 20097500 19640626 19218692 
1617.094 18862706 18598024 18437828 18379682 18408650 18501130 18631260 
1620.470 18776030 18918286 19053836 19192718 19356936 19571056 19850690 
1623.845 20196276 20594284 21025662 21476160 21940546 22420848 22920196 
1627.220 23437462 23962280 24477706 24967492 25421924 25842196 26237038 
1630.595 26616738 26986052 27340858 27668304 27950692 28171462 28317608 
1633.971 28384526 28377204 28311736 28210778 28099804 27998860 27917408 
1637.346 27853882 27798314 27736216 27650188 27523578 27345764 27115644 
1640.721 26844020 26549668 26254284 25972466 25706022 25443322 25162590 
1644.096 24838958 24450958 23989100 23461490 22896166 22334992 21822800 
1647.472 21395052 21068162 20840404 20696790 20615062 20566734 20515216 
1650.847 20416646 20217172 19867026 19350526 18723408 18111082 17636174 
1654.222 17348376 17214976 17169540 17148204 17110050 17036162 16923322 
1657.597 16778274 16610932 16429752 16237536 16032446 15809927 15565575 
1660.973 15297919 15009298 14705822 14397181 14095193 13811577 13555733 
1664.348 13332838 13141750 12974882 12819407 12659144 12476807 12258590 
1667.723 11997663 11697714 11372698 11043236 10730461 10449679 10207339 
1671.098 10002024 9827613 9674345 9529835 9379888 9209314 9006499 8770678 
1674.956 8516705 8273888 8073096 7934517 7858530 7830629 7828841 7834172 
1678.813 7836297 7835488 7839873 7860082 7901685 7961211 8026887 8082041 
1682.671 8114044 8122856 8127480 8159620 8249506 8406765 8617986 8859304 
1686.528 9109350 9356358 9594970 9824360 10044781 10254765 10451986 10635035 
1690.385 10805118 10967247 11127600 11290700 11455256 11613340 11749898 
1693.761 11847918 11893616 11885580 11839848 11789458 11768724 11793475 
1697.136 11853911 11919873 11954237 11920247 11793781 11576043 11304066 
1700.511 11040245 10837831 10716095 10656937 10626038 10587874 10516853 
1703.886 10398363 10228474 10014162 9771457 9520691 9279140 9057448 8857985 
1707.744 8676968 8507648 8341909 8174072 8001034 7823376 7644340 7468412 
1711.601 7298890 7136575 6979674 6825051 6669778 6512877 6356504 6203548 
1715.459 6056157 5914794 5777439 5643417 5516853 5408173 5330480 5293919 
1719.316 5299890 5340979 5404349 5475881 5544103 5603809 5655871 5706629 
1723.174 5764176 5835129 5921511 6020509 6126250 6232354 6334145 6428395 
1727.031 6512204 6582406 6634551 6664932 6671931 6658035 6628663 6589436 
1730.888 6542039 6480421 6390834 6253564 6052662 5787479 5482625 5183954 
1734.746 4940145 4776599 4688769 4652028 4636556 4619008 4584248 4528063 
1738.603 4455247 4377189 4306406 4251261 4215326 4196590 4192074 4199066 
1742.461 4216296 4242795 4276624 4314538 4353024 4388836 4420200 4446978 
1746.318 4469073 4486012 4495620 4494215 4478179 4444435 4391982 4322168 
1750.176 4238880 4147848 4056400 3972862 3904653 3856077 3827897 3816298 
1754.033 3813824 3809680 3793769 3758641 3703331 3634596 3564603 3506378 
1757.890 3466864 3445022 3432431 3417402 3388850 3340766 3274025 3196011 
1761.748 3117812 3048769 2994550 2955617 2929130 2910717 2897407 2886000 
1765.605 2873292 2856015 2830868 2796551 2755235 2712689 2675514 2648144 
1769.463 2630109 2615242 2594475 2559244 2506786 2443472 2384064 2344187 
1773.320 2333060 2349617 2384298 2425012 2461765 2490457 2512751 2533148 
1777.177 2555678 2581309 2606575 2626309 2635710 2634209 2625842 2618075 
1781.035 2617675 2627442 2644977 2663913 2677615 2681982 2676948 2665813 
1784.892 2654245 2646277 2643277 2644544 2648577 2654978 2664613 2678315 
1788.750 2695718 2713155 2724192 2720924 2697352 2652744 2593309 2531081 
1792.607 2478093 2443072 2426945 2425245 2431210 2438740 2445338 2450269 
1796.465 2454368 2457467 2458200 2454268 2444405 2428977 2411218 2395859 
1800.322 2387396 2388062 2397158 2411685 2428811 2446604 2465231 2485858 
1804.179 2509019 2534114 2559011 2580909 2598242 2611242 2621576 2631909 
1808.037 2643177 2654511 2663179 2666246 2662112 2652711 2642077 2635543 
1811.894 2636510 2645210 2658712 2672847 2684082 2691884 2698552 2708588 
1815.752 2726326 2754534 2792816 2838705 2889135 2941940 2995985 3051505 
1819.609 3108367 3165571 3221347 3273223 3319931 3361301 3397966 3430894 
1823.467 3460218 3485635 3506879 3525351 3544325 3567977 3599982 3640744 
1827.324 3686923 3731804 3767565 3789090 3796577 3797312 3801758 3821111 
1831.181 3860791 3919163 3988980 4061751 4130621 4193245 4251461 4309987 
1835.039 4373909 4446242 4527628 4617132 4713823 4818510 4933845 5062653 
1838.896 5206791 5365400 5534840 5710053 5886278 6060491 6231345 6399711 
1842.754 6567167 6736538 6910453 7091644 7282077 7481390 7686664 7890820 
1846.611 8084371 8255888 8394300 8491633 8544042 8552085 8519712 8452035 
1850.469 8353562 8226543 8072657 7894532 7697220 7488099 7275809 7066891 
1854.326 6864805 6668701 6475645 6283045 6090833 5902232 5722240 5554842 
1858.183 5400960 5257832 5120651 4985357 4850675 4718781 4593792 4479283 
1862.041 4375950 4281108 4190301 4100148 4010582 3924580 3847218 3782505 
1865.898 3730367 3687224 3646892 3604092 3558222 3513893 3479423 3462656 
1869.756 3466664 3488241 3520006 3552843 3580906 3601118 3613480 3618692 
1873.613 3616721 3605762 3583545 3548968 3503639 3451401 3397733 3346409 
1877.470 3297662 3248453 3193575 3129059 3053941 2972131 2889169 2811825 
1881.328 2743364 2683782 2630109 2578976 2528548 2480126 2436208 2398957 
1885.185 2368539 2341954 2314805 2283161 2246523 2207323 2170758 2141289 
1889.043 2121710 2111255 2106794 2105362 2105728 2109058 2117581 2132365 
1892.900 2152244 2173522 2192038 2205092 2212985 2219113 2227739 2241693 
1896.758 2260112 2279697 2295918 2306144 2311307 2315771 2324365 2340489 
1900.615 2363575 2389328 2411918 2427245 2434775 2437674 2441106 2449170 
1904.472 2462432 2478493 2492856 2502120 2505620 2505686 2505953 2508786 
1908.330 2514218 2519350 2521050 2518317 2513118 2510385 2515184 2530115 
1912.187 2553512 2579942 2603209 2618809 2625576 2625342 2621109 2614508 
1916.045 2603975 2586809 2560477 2526115 2489857 2459999 2443005 2440839 
1919.902 2447803 2454401 2450169 2429677 2393560 2349617 2308076 2276899 
1923.760 2258879 2250353 2244391 2235365 2221877 2206557 2195168 2191671 
1927.617 2196300 2205458 2213118 2215416 2211819 2205558 2201662 2203960 
1931.474 2212419 2223975 2234666 2242759 2249820 2260112 2277098 2300715 
1935.332 2325864 2344686 2349650 2338790 2316737 2293753 2280463 2283394 
1939.189 2301747 2328563 2353547 2368839 2372504 2368006 2362942 2362576 
1943.047 2368239 2376901 2384431 2389428 2395859 2411018 2442439 2493356 
1946.904 2559278 2629842 2692984 2740530 2770440 2787514 2799486 2812758 
1950.761 2828600 2843974 2853747 2854814 2848777 2841573 2839339 2845242 
1954.619 2856148 2864320 2860684 2839605 2802754 2757502 2714523 2682249 
1958.476 2663713 2655745 2652645 2649711 2646010 2645310 2651778 2667346 
1962.334 2689883 2713089 2731727 2743964 2752734 2764171 2783779 2811525 
1966.191 2841173 2862352 2866287 2849077 2815160 2773375 2731560 2694385 
1970.049 2659145 2619975 2572576 2518784 2466430 2428044 2413850 2426545 
1973.906 2461166 2508052 2560211 2617709 2688450 2783812 2910216 3061415 
1977.763 3218676 3355992 3452169 3496491 3493485 3457112 3404846 3349113 
1981.621 3294156 3237236 3174282 3105764 3037992 2981405 2945276 2933466 
1985.478 2940972 2957018 2969028 2970730 2962056 2949946 2941639 2941673 
1989.336 2947944 2954516 2955250 2949846 2943841 2948812 2975267 3027214 
1993.193 3099758 3181425 3259235 3323069 3369849 3402809 3426954 3445990 
1997.051 3459817 3464259 3454974 3431229 3396564 3358129 3322736 3293722 
2000.908 3268449 3241309 3204656 3156693 3100191 3043330 2995751 2965092 
2004.765 2953315 2959654 2979837 3011232 3053140 3104963 3163635 3222381 
2008.623 3269751 3295492 3293655 3266747 3224017 3180557 3149117 3137202 
2012.480 3144478 3165471 3193074 3223082 3255530 3292587 3337093 3388416 
2016.338 3442951 3496224 3546429 3595271 3648596 3712153 3786349 3867644 
2020.195 3946380 4014027 4065731 4104296 4138381 4177922 4228207 4286997 
2024.052 4345093 4392250 4420099 4428802 4424517 4418325 4418626 4428568 
2027.910 4445104 4462946 4478279 4491570 4507774 4532382 4568410 4614085 
2031.767 4663951 4713087 4761892 4816198 4886896 4981469 5100401 5233417 
2035.625 5364192 5474539 5553398 5600654 5625593 5643450 5665606 5698303 
2039.482 5739229 5781065 5815988 5839763 5853432 5860854 5866429 5871836 
2043.340 5875699 5875161 5869787 5861895 5857899 5865354 5890947 5937735 
2047.197 6005257 6088951 6183617 6281767 6374493 6452406 6505276 6525726 
2051.054 6512978 6474098 6424561 6383167 6368642 6390800 6448337 6527811 
2054.912 6610462 6679165 6723986 6746600 6757167 6768610 6790250 6824446 
2058.769 6865815 6906346 6938160 6958092 6968024 6971964 6973681 6973782 
2062.627 6970112 6959775 6941493 6917725 6892442 6869585 6851003 6833567 
2066.484 6812363 6782274 6742057 6694576 6646596 6604743 6572583 6549742 
2070.342 6532554 6516712 6500802 6487517 6482170 6489939 6512036 6544629 
2074.199 6579210 6607805 6623852 6626914 6620992 6612581 6607333 6607771 
2078.056 6612750 6620151 6628192 6637444 6650330 6669104 6694576 6724154 
2081.914 6753836 6779514 6799505 6815055 6829730 6847032 6868474 6892139 
2085.771 6914156 6930585 6939440 6942099 6942032 6942470 6944692 6946442 
2089.629 6943715 6932908 6913011 6886955 6860260 6839222 6827744 6826364 
2093.486 6832187 6841780 6852821 6865310 6881400 6903619 6931831 6964152 
2097.344 6995904 7022775 7043250 7058842 7072852 7089287 7109933 7134218 
2101.201 7159649 7184138 7207484 7233256 7265466 7308224 7362546 7426143 
2105.058 7494470 7563279 7630008 7695230 7761542 7831136 7904215 7978556 
2108.916 8050346 8117116 8179170 8239915 8304317 8376531 8456968 8541946 
2112.773 8624576 8698128 8758744 8806755 8846149 8882164 8919265 8959414 
2116.631 9001053 9041480 9078459 9111144 9140954 9170259 9201970 9237778 
2120.488 9279208 9326871 9381852 9445238 9517439 9597240 9681460 9765425 
2124.345 9845136 9918115 9985208 10049495 10115013 10184341 10258090 
2127.721 10333819 10408849 10481584 10552328 10623490 10698027 10777094 
2131.096 10859912 10943256 11023931 11101087 11176758 11255437 11341408 
2134.471 11436410 11537183 11637299 11729712 11810021 11878905 11940817 
2137.846 12000797 12061842 12121838 12174244 12212002 12230575 12230643 
2141.222 12217215 12197416 12176220 12153594 12124939 12084122 12027640 
2144.597 11957268 11880267 11806106 11741966 11688898 11641894 11590642 
2147.972 11525614 11442874 11342428 11229322 11108972 10984884 10856209 
2151.347 10720883 10577281 10426735 10274069 10124544 9980258 9838730 
2154.723 9693556 9538946 9376333 9218181 9086207 9008766 9007819 9090537 
2158.580 9243261 9436772 9635452 9807549 9933234 10006263 10029014 10009348 
2162.438 9955169 9876828 9784301 9690337 9607842 9546093 9507177 9483810 
2166.295 9462508 9425768 9360251 9261776 9134491 8990060 8841448 8698906 
2170.152 8567866 8447575 8336302 8232318 8136258 8050784 7978219 7918928 
2174.010 7871452 7832856 7800773 7774933 7755065 7740460 7726563 7705517 
2177.867 7667373 7604853 7517394 7413201 7306977 7215367 7151059 7117983 
2181.725 7111179 7119060 7129535 7134352 7130580 7120105 7106430 7091072 
2185.582 7073727 7052679 7028130 7002537 6981796 6971392 6974624 6988833 
2189.439 7006882 7020216 7021529 7008329 6983412 6952368 6921091 6893149 
2193.297 6869012 6847402 6828586 6814012 6807381 6811454 6827341 6851071 
2197.154 6876351 6895977 6905739 6905840 6900723 6895943 6895337 6899242 
2201.012 6903787 6904157 6896684 6880727 6859688 6837169 6816401 6797082 
2204.869 6776922 6753701 6727284 6700364 6678795 6667961 6670821 6685558 
2208.727 6707396 6730211 6750907 6769518 6789341 6814046 6844541 6877866 
2212.584 6907389 6926377 6930955 6922404 6907322 6893351 6887157 6891601 
2216.441 6904696 6922438 6940685 6957924 6974691 6992975 7013414 7034629 
2220.299 7053420 7066419 7072279 7071976 7069046 7066453 7065005 7061805 
2224.156 7051971 7031396 6998901 6957924 6915368 6878404 6851610 6835048 
2228.014 6824715 6815627 6805160 6793784 6786110 6787423 6800852 6825792 
2231.871 6856995 6887830 6913112 6931629 6945331 6959102 6976509 6998598 
2235.729 7023314 7046617 7064769 7077095 7085885 7094608 7107137 7124651 
2239.586 7145906 7168171 7188012 7203980 7215940 7225238 7232650 7238613 
2243.443 7242791 7245250 7247474 7252797 7265128 7287704 7321197 7362984 
2247.301 7408044 7450816 7487795 7518439 7544432 7568640 7592917 7617295 
2251.158 7639417 7656885 7668115 7674017 7677491 7681807 7688991 7698637 
2255.016 7707777 7712735 7710172 7698704 7679278 7653951 7625422 7595075 
2258.873 7563886 7532464 7501650 7473907 7451289 7435615 7427289 7424795 
2262.730 7425773 7427997 7431031 7435918 7444480 7458233 7476502 7496459 
2266.588 7513719 7524002 7525249 7518641 7507988 7497706 7492043 7492818 
2270.445 7499526 7510078 7521777 7533171 7543151 7551243 7557682 7561863 
2274.303 7563818 7563515 7561998 7561087 7562571 7567089 7574574 7583037 
2278.160 7590287 7595075 7597334 7599053 7602560 7610248 7622624 7638945 
2282.018 7657155 7674928 7691284 7705922 7719716 7733275 7746531 7758135 
2285.875 7767209 7772504 7774022 7773078 7771256 7769840 7768794 7766871 
2289.732 7762823 7755335 7744474 7731960 7720054 7711150 7706394 7705787 
2293.590 7708485 7713005 7718536 7724641 7731184 7737829 7743698 7747476 
2297.447 7748049 7744946 7739010 7731690 7724573 7718435 7712802 7706225 
2301.305 7696951 7684135 7668419 7651624 7635809 7622893 7613350 7606202 
2305.162 7600267 7594569 7589646 7586814 7587994 7594501 7606303 7622252 
2309.020 7639990 7657930 7675366 7692734 7710745 7729903 7749263 7766972 
2312.877 7780330 7788055 7789945 7788291 7785458 7784209 7785593 7788595 
2316.734 7790889 7789607 7783400 7772066 7757224 7741775 7728553 7719885 
2320.592 7716748 7718671 7723629 7728722 7729228 7719986 7695905 7653311 
2324.449 7590961 7511460 7420582 7325982 7235614 7156078 7090499 7039007 
2328.307 6999036 6967351 6941460 6920148 6904056 6894159 6891196 6895034 
2332.164 6904628 6918802 6937117 6959809 6987587 7020620 7058337 7098818 
2336.021 7139977 7180062 7218332 7255223 7292084 7330026 7368983 7408179 
2339.879 7446603 7483885 7520630 7558491 7599289 7643733 7690779 7738402 
2343.736 7784108 7827019 7869901 7917342 7975486 8049535 8141423 8248966 
2347.594 8365992 8484943 8597301 8695086 8772606 8825928 8853385 8855686 
2351.451 8835903 8799418 8752218 8700630 8649724 8602506 8559925 8521773 
2355.309 8487004 8455177 8426799 8402779 8384638 8373221 8368999 8372173 
2359.166 8382915 8401833 8429940 8467915 8515015 8569285 8627619 8686771 
2363.023 8744138 8799283 8853724 8909897 8970102 9035897 9106745 9181428 
2366.881 9258154 9336079 9415101 9495459 9577255 9659607 9740620 9818124 
2370.738 9891369 9960458 10027896 10096565 10169586 10248693 10334329 
2374.114 10425446 10521164 10620775 10724110 10831682 10943596 11059551 
2377.489 11178595 11299542 11421850 11545962 11672900 11803928 11939557 
2380.864 12078876 12219567 12358702 12493244 12621653 12743413 12859063 
2384.239 12969180 13074134 13173102 13265296 13349854 13427115 13497829 
2387.615 13563903 13626638 13686133 13741566 13790952 13832716 13866034 
2390.990 13891932 13912356 13929976 13947221 13965697 13985783 14007683 
2394.365 14031501 14057476 14086123 14117817 14152664 14190012 14229178 
2397.740 14270505 14314918 14363993 14419924 14484083 14556545 14635940 
2401.115 14720184 14807048 14895474 14985632 15078897 15177500 15283023 
2404.491 15396296 15517772 15647113 15783915 15927909 16078345 16234029 
2407.866 16393209 16553892 16714772 16875852 17038472 17205150 17378206 
2411.241 17558230 17743814 17931450 18115986 18292688 18458120 18610890 
2414.616 18751292 18879974 18997582 19104176 19199264 19282458 19354720 
2417.992 19417498 19473184 19523918 19570916 19614142 19653246 19687674 
2421.367 19718218 19746720 19776264 19809766 19850134 19898556 19955586 
2424.742 20021332 20096042 20180554 20276224 20384454 20506394 20642824 
2428.117 20794102 20960630 21143018 21341626 21556204 21785626 22027472 
2431.493 22278556 22536382 22799110 23067064 23341616 23624950 23918724 
2434.868 24223490 24538320 24861378 25191208 25527086 25869308 26218806 
2438.243 26576368 26941946 27314712 27693024 28075556 28460796 28848392 
2441.618 29237686 29628108 30018490 30407696 30795222 31180888 31565972 
2444.994 31952322 32341126 32733060 33126674 33520002 33910064 34294492 
2448.369 34671940 35041852 35404272 35758836 36104824 36440748 36765684 
2451.744 37079280 37382264 37676500 37964316 38247580 38527452 38804096 
2455.119 39077108 39345576 39608260 39863800 40110184 40344532 40563728 
2458.495 40764032 40942440 41097248 41227588 41333584 41415844 41475004 
2461.870 41511388 41525716 41519956 41497060 41461880 41420256 41378704 
2465.245 41343240 41319484 41311720 41324000 41359860 41422588 41514924 
2468.620 41639260 41796940 41988296 42212956 42470072 42758524 43076880 
2471.996 43423444 43795092 44187644 44596444 45015628 45440108 45865668 
2475.371 46287996 46703760 47108920 47499192 47869688 48216208 48534480 
2478.746 48821980 49076588 49296412 49479512 49623460 49726104 49785884 
2482.121 49803168 49780352 49721164 49631000 49514564 49376296 49219696 
2485.497 49047728 48863512 48670664 48472532 48271900 48070168 47866724 
2488.872 47658828 47442416 47213336 46967904 46704276 46420972 46118172 
2492.247 45795412 45452656 45088808 44703160 44295212 43865136 43413740 
2495.622 42941924 42450304 41939352 41409284 40860492 40293924 39711900 
2498.998 39117532 38515032 37908272 37301020 36696452 36096288 35501524 
2502.373 34912704 34330388 33755188 33188154 32630820 32085512 31554856 
2505.748 31041500 30548338 30077574 29630554 29207278 28806896 28427574 
2509.123 28068026 27726718 27403498 27099032 26814060 26549174 26304832 
2512.499 26080576 25875498 25689042 25520374 25369056 25234996 25117724 
2515.874 25016452 24930750 24859764 24803208 24760902 24732876 24718812 
2519.249 24717970 24729088 24750520 24781318 24820962 24869554 24927344 
2522.624 24994832 25071454 25155640 25244932 25336318 25426774 25513312 
2526.000 25593788 25666192 25729188 25781750 25823170 25852814 25870468 
2529.375 25875604 25866952 25842898 25801440 25741106 25661342 25563458 
2532.750 25450700 25327046 25197248 25064960 24932572 24801034 24670832 
2536.125 24541826 24415170 24292198 24175110 24065650 23964730 23872164 
2539.500 23786966 23707700 23633100 23562502 23495098 23430294 23367140 
2542.876 23304522 23241702 23178332 23114728 23051934 22990828 22931828 
2546.251 22874230 22816920 22758536 22698238 22636588 22574912 22515340 
2549.626 22459124 22406718 22357074 22308868 22260316 22210760 22160512 
2553.001 22111036 22064284 22021826 21984704 21953092 21926954 21905696 
2556.377 21888794 21875520 21864332 21853254 21840082 21822242 21798064 
2559.752 21766430 21727276 21680878 21627418 21566790 21499242 21425058 
2563.127 21345872 21264092 21183476 21107222 21037486 20975340 20919498 
2566.502 20869294 20823164 20781138 20744540 20715000 20694044 20682334 
2569.878 20678754 20681638 20689074 20700160 20715206 20735504 20762440 
2573.253 20796746 20837660 20883270 20931146 20979340 21026148 21071502 
2576.628 21115362 21158358 21200558 21241962 21282604 21323042 21364632 
2580.003 21409150 21458266 21513830 21576332 21645528 21720414 21800048 
2583.379 21883428 21969542 22057940 22147992 22239078 22330808 22423186 
2586.754 22516666 22612154 22710564 22812486 22918028 23026952 23138070 
2590.129 23250754 23364204 23477786 23591154 23703640 23814370 23922366 
2593.504 24026568 24126242 24221036 24311400 24397680 24480230 24559392 
2596.880 24635480 24708920 24780686 24852080 24924398 24998868 25075984 
2600.255 25155920 25238752 25324166 25412932 25506074 25605210 25711540 
2603.630 25825668 25947352 26075720 26209864 26348978 26492962 26642278 
2607.005 26797180 26957810 27123932 27294776 27469852 27649022 27832686 
2610.381 28021338 28215128 28413568 28614682 28816454 29015842 29210894 
2613.756 29400214 29583236 29759874 29930126 30093520 30249832 30398420 
2617.131 30539238 30672776 30799740 30920870 31036660 31147106 31251990 
2620.506 31351094 31444554 31533014 31617354 31698294 31776000 31850122 
2623.882 31920012 31985172 32046128 32103776 32160294 32217208 32276128 
2627.257 32337304 32400276 32463684 32526210 32587030 32645642 32701802 
2630.632 32755356 32805808 32852836 32895866 32935042 32971002 33004608 
2634.007 33037248 33069820 33102502 33135186 33166620 33196128 33222810 
2637.383 33247024 33269134 33290416 33312206 33335816 33362470 33393386 
2640.758 33429634 33471900 33520468 33575304 33635876 33701364 33771052 
2644.133 33844476 33921532 34002864 34088976 34180808 34278756 34383032 
2647.508 34493040 34608136 34726888 34847864 34969552 35090844 35210984 
2650.884 35330084 35448708 35568160 35690052 35815644 35945528 36079728 
2654.259 36217936 36359248 36503344 36650088 36800160 36953964 37112224 
2657.634 37274948 37441996 37612576 37785752 37960808 38137088 38314024 
2661.009 38491460 38668936 38845872 39022588 39198828 39374852 39551056 
2664.385 39727620 39904332 40080824 40256552 40431112 40604728 40778080 
2667.760 40952380 41128496 41307276 41489112 41673508 41860024 42048296 
2671.135 42238412 42430904 42626444 42826096 43030452 43239328 43452884 
2674.510 43670504 43891532 44115528 44341592 44569308 44798032 45027316 
2677.885 45257052 45487644 45719864 45955012 46194528 46439520 46691068 
2681.261 46949668 47215772 47489616 47771104 48060216 48356780 48660472 
2684.636 48971096 49288472 49612796 49944436 50283912 50631436 50986952 
2688.011 51349812 51719316 52094964 52476504 52864368 53259472 53662548 
2691.386 54073992 54493300 54919296 55350824 55786928 56227276 56672528 
2694.762 57123604 57581468 58046784 58519536 58999252 59485620 59978160 
2698.137 60476976 60982008 61493392 62010308 62532240 63057868 63586280 
2701.512 64116292 64647108 65177844 65707332 66233888 66755824 67271424 
2704.887 67779392 68278992 68769736 69250816 69721456 70180104 70624816 
2708.263 71053896 71466496 71862520 72243136 72609704 72963736 73306088 
2711.638 73637176 73956952 74265104 74562056 74847480 75121600 75383592 
2715.013 75632088 75865152 76080088 76274640 76446872 76595704 76720224 
2718.388 76820776 76898176 76954024 76991448 77014752 77029464 77042168 
2721.764 77058704 77084896 77125184 77182880 77260304 77359128 77480936 
2725.139 77626704 77797096 77992224 78211752 78454936 78720608 79008024 
2728.514 79316200 79644256 79990600 80353336 80729816 81116968 81511936 
2731.889 81912432 82316768 82723584 83131608 83538744 83942792 84340552 
2735.265 84729320 85106800 85471120 85821016 86155800 86474624 86776864 
2738.640 87062736 87332888 87589456 87835680 88075496 88313096 88552248 
2742.015 88796168 89047752 89309608 89584376 89874800 90182744 90509480 
2745.390 90854680 91216712 91592624 91978696 92371056 92765152 93156456 
2748.766 93539064 93906096 94250344 94564344 94841872 95078584 95272640 
2752.141 95424056 95534560 95606696 95642992 95645472 95615944 95555536 
2755.516 95464176 95340640 95182320 94985344 94745056 94456872 94117568 
2758.891 93725360 93280760 92785624 92243064 91656912 91031208 90370952 
2762.267 89680936 88967664 88237776 87497856 86754968 86015664 85285272 
2765.642 84569920 83875184 83207096 82571800 81975088 81421800 80915800 
2769.017 80458920 80051832 79694568 79386408 79126168 78912096 78741856 
2772.392 78611952 78517856 78454656 78416992 78399560 78397656 78406192 
2775.768 78420248 78434456 78442592 78438496 78416152 78370664 78298368 
2779.143 78196760 78064480 77900992 77707096 77484576 77236472 76967592 
2782.518 76684048 76391920 76097624 75806080 75520848 75243488 74974576 
2785.893 74713112 74457344 74204408 73950704 73691152 73420096 73132072 
2789.269 72822144 72487888 72128888 71747632 71348200 70935952 70516912 
2792.644 70096344 69679792 69272456 68879568 68506624 68159120 67842256 
2796.019 67560192 67316336 67113272 66952428 66834660 66760652 66730560 
2799.394 66743656 66798948 66894172 67026616 67193440 67391368 67617568 
2802.770 67869024 68142832 68435672 68744040 69063776 69391360 69723200 
2806.145 70056272 70387376 70714056 71032360 71338560 71627376 71892712 
2809.520 72129160 72330840 72492632 72610968 72683032 72707440 72683808 
2812.895 72612960 72496192 72335568 72133936 71894936 71623392 71325984 
2816.271 71010080 70684704 70359600 70044592 69749120 69482728 69253064 
2819.646 69067072 68930704 68848080 68821872 68852544 68938520 69075888 
2823.021 69258744 69479768 69730168 70000872 70282696 70566344 70842992 
2826.396 71104360 71342464 71550872 71724024 71857872 71950336 72000752 
2829.771 72010368 71981432 71918392 71826120 71710504 71577528 71432792 
2833.147 71281040 71126176 70971064 70817560 70667424 70522760 70385160 
2836.522 70256632 70138744 70033032 69940968 69864296 69805920 69770128 
2839.897 69762464 69790208 69861184 69983352 70164256 70411616 70732576 
2843.272 71135312 71628944 72223144 72927640 73750088 74693120 75751088 
2846.648 76907304 78133448 79385096 80607328 81738176 82709552 83461512 
2850.023 83945608 84130528 84008568 83593568 82920576 82036240 80997160 
2853.398 79862272 78683672 77508848 76375720 75309608 74328208 73438888 
2856.773 72642104 71932120 71299352 70732504 70218976 69746432 69303704 
2860.149 68880112 68466080 68053032 67633400 67200792 66749988 66277652 
2863.524 65782160 65263860 64725212 64171060 63608372 63046908 62497152 
2866.899 61970984 61480604 61036080 60646600 60318612 60055468 59857892 
2870.274 59723704 59647636 59621220 59634104 59673940 59727204 59781916 
2873.650 59828156 59858500 59869304 59859680 59830624 59783932 59721500 
2877.025 59644976 59555468 59454196 59342696 59222600 59095748 58964144 
2880.400 58829548 58693400 58557944 58424988 58297264 58177312 58067764 
2883.775 57970476 57886956 57817868 57763476 57723964 57699860 57691004 
2887.151 57697816 57719500 57755000 57802652 57860568 57926972 58000924 
2890.526 58081740 58168788 58261988 58360556 58463692 58570984 58682288 
2893.901 58798096 58919516 59048256 59185616 59333240 59492536 59664512 
2897.276 59850592 60052236 60270376 60505392 60756456 61021852 61298900 
2900.652 61584904 61877552 62175560 62478708 62787316 63101740 63422552 
2904.027 63750096 64085492 64430832 64789288 65165564 65564932 65992908 
2907.402 66455044 66956676 67503568 68102560 68760888 69486768 70287328 
2910.777 71167440 72127168 73160504 74255152 75390760 76540016 77672032 
2914.153 78750080 79736616 80597632 81302752 81831256 82173744 82332752 
2917.528 82321824 82161848 81879224 81499184 81043328 80528264 79963320 
2920.903 79352320 78695312 77990992 77239168 76442848 75608976 74749200 
2924.278 73878824 73014112 72172000 71366944 70609216 69904968 69255440 
2927.654 68658104 68107208 67595728 67116480 66662408 66228332 65810880 
2931.029 65408552 65022252 64655332 64312780 64001128 63727380 63498944 
2934.404 63321836 63200368 63136680 63130052 63177340 63272544 63408172 
2937.779 63575424 63765100 63970068 64184160 64403808 64627840 64856336 
2941.155 65089956 65329284 65573140 65818788 66061184 66292556 66503464 
2944.530 66682412 66816264 66892744 66901096 66834344 66691496 66478252 
2947.905 66207528 65896488 65566592 65239676 64934284 64665952 64444476 
2951.280 64274168 64154856 64082532 64051352 64053812 64082460 64130620 
2954.656 64192072 64261912 64336256 64411804 64486332 64557908 64625688 
2958.031 64689792 64751252 64812332 64875612 64943524 65017640 65098464 
2961.406 65185428 65277448 65373308 65472232 65573992 65678352 65785132 
2964.781 65893636 66002392 66109864 66214860 66316948 66416472 66514240 
2968.156 66611104 66707604 66803776 66899432 66994756 67090764 67189224 
2971.532 67292160 67401048 67516336 67637232 67761336 67886264 68010168 
2974.907 68132176 68252008 68369816 68484280 68592056 68687448 68762944 
2978.282 68809912 68821024 68791080 68718104 68603392 68451576 68269264 
2981.657 68064344 67845240 67619192 67391944 67166912 66944344 66721476 
2985.033 66492772 66250904 65988696 65699512 65379664 65028220 64647108 
2988.408 64240320 63812116 63365808 62902464 62420520 61916452 61385944 
2991.783 60826128 60236804 59621560 58988020 58346836 57708376 57081884 
2995.158 56472600 55880788 55302272 54729300 54153520 53567296 52966100 
2998.534 52348836 51718156 51078816 50436580 49797408 49165820 48544928 
3001.909 47936840 47342420 46761912 46195412 45642896 45104540 44580728 
3005.284 44072476 43580672 43106368 42650348 42212520 41792052 41386904 
3008.659 40994912 40613312 40240556 39875020 39516180 39163692 38817176 
3012.035 38476260 38140200 37808272 37480248 37156436 36837920 36526160 
3015.410 36222472 35928032 35643468 35368900 35104100 34848436 34601032 
3018.785 34361088 34127292 33898208 33672648 33450320 33231430 33017478 
3022.160 32810778 32613888 32429196 32258820 32103814 31965342 31844276 
3025.536 31741996 31659838 31599146 31559844 31540424 31536396 31540782 
3028.911 31544984 31538822 31511602 31454812 31361386 31227600 31053102 
3032.286 30841074 30597006 30327992 30041818 29745576 29444714 29143208 
3035.661 28843330 28546346 28252996 27964226 27681088 27404908 27136736 
3039.037 26877222 26626496 26383766 26148172 25918652 25694280 25475048 
3042.412 25260948 25052638 24851168 24657048 24471148 24293774 24124806 
3045.787 23963750 23809716 23661826 23519058 23381198 23248030 23119864 
3049.162 22996802 22878770 22764892 22653938 22544550 22435328 22325924 
3052.538 22216130 22106850 21999134 21893952 21791932 21693592 21598932 
3055.913 21508052 21421088 21338216 21259500 21184832 21114004 21046598 
3059.288 20982468 20921724 20865052 20813326 20767410 20727998 20695468 
3062.663 20670032 20651822 20641224 20638586 20644560 20659154 20681394 
3066.039 20709300 20740160 20770330 20796016 20814124 20821772 20816940 
3069.414 20798484 20765916 20719622 20660406 20590116 20510910 20424876 
3072.789 20334206 20240500 20145010 20048396 19951248 19854540 19759136 
3076.164 19666176 19576464 19490302 19407312 19326866 19247474 19168512 
3079.540 19088838 19008140 18926140 18842808 18758004 18672108 18585400 
3082.915 18498744 18413282 18330186 18250354 18174546 18103136 18035952 
3086.290 17973510 17916290 17865086 17820758 17783650 17753238 17728146 
3089.665 17706162 17685176 17663298 17639624 17614124 17587280 17559954 
3093.041 17532666 17506032 17480264 17455944 17433940 17415590 17402312 
3096.416 17395244 17395070 17401588 17413902 17430526 17449772 17470088 
3099.791 17490026 17508654 17525350 17540116 17552882 17564266 17574790 
3103.166 17585038 17595700 17606948 17619300 17632930 17648218 17665576 
3106.542 17684970 17706090 17728386 17750236 17770498 17787964 17802014 
3109.917 17813060 17822346 17831322 17841748 17855178 17872268 17893192 
3113.292 17917846 17945400 17974960 18005282 18034638 18061132 18083066 
3116.667 18098956 18108042 18110322 18106348 18097230 18083862 18067038 
3120.042 18047454 18025590 18002416 17979172 17957348 17938354 17922506 
3123.418 17909628 17898612 17887562 17875444 17861428 17846132 17831010 
3126.793 17817720 17807778 17802186 17800632 17802704 17807018 17812508 
3130.168 17818342 17824142 17830010 17836086 17842680 17850346 17859216 
3133.543 17869712 17881832 17895298 17909972 17925234 17940980 17957038 
3136.919 17973580 17991124 18009704 18029700 18050700 18072876 18095880 
3140.294 18120064 18145972 18174062 18204466 18236982 18270846 18304784 
3143.669 18337410 18368034 18396518 18423550 18450032 18476756 18504416 
3147.044 18533460 18563788 18595916 18630396 18668028 18709710 18755548 
3150.420 18804850 18855992 18906794 18955282 19000142 19041130 19078796 
3153.795 19114736 19150230 19186658 19224476 19263546 19303762 19344810 
3157.170 19386626 19429662 19474430 19521666 19571404 19624020 19679004 
3160.545 19735832 19794194 19853568 19914442 19976818 20041596 20109472 
3163.921 20180380 20254040 20329518 20405220 20479334 20550790 20618848 
3167.296 20683758 20746418 20807868 20869226 20930972 20993250 21055988 
3170.671 21118944 21182224 21246208 21310966 21376570 21442358 21507738 
3174.046 21571214 21632224 21690666 21746852 21801756 21856492 21911970 
3177.422 21968392 22025208 22081890 22137882 22193148 22248110 22303670 
3180.797 22361296 22422034 22486794 22556206 22630202 22708224 22789544 
3184.172 22872762 22957012 23041488 23126156 23211012 23297004 23384904 
3187.547 23475128 23567784 23662212 23757918 23853960 23950234 24047126 
3190.923 24145228 24245456 24348054 24453446 24561144 24670446 24781458 
3194.298 24893588 25007150 25122358 25239174 25357184 25476066 25595438 
3197.673 25715162 25835408 25956602 26078888 26202228 26326024 26449822 
3201.048 26572986 26695232 26817338 26939900 27063344 27187564 27312170 
3204.424 27436356 27559588 27681970 27804706 27929386 28057280 28188820 
3207.799 28323654 28459698 28594792 28727310 28856468 28982758 29107776 
3211.174 29233112 29360012 29488968 29619808 29751820 29884904 30019200 
3214.549 30155276 30293742 30434812 30577808 30721850 30865264 31006552 
3217.925 31144970 31280260 31413030 31544630 31676158 31808942 31944084 
3221.300 32082088 32222916 32366042 32510568 32655146 32798700 32940120 
3224.675 33079118 33215620 33350412 33483926 33617084 33750316 33884024 
3228.050 34018556 34153996 34290624 34428152 34565868 34702732 34837380 
3231.426 34968368 35095120 35217272 35335868 35451152 35564164 35674872 
3234.801 35783192 35888840 35991780 36093156 36194740 36298872 36407240 
3238.176 36521224 36640608 36764348 36891160 37019304 37147920 37276212 
3241.551 37403968 37530564 37655792 37779244 37901112 38022468 38144576 
3244.927 38269260 38397812 38530456 38666584 38804672 38943172 39081420 
3248.302 39219572 39358708 39500248 39645392 39793960 39945272 40097760 
3251.677 40249972 40401188 40551324 40701296 40852300 41005180 41160880 
3255.052 41319956 41482516 41648816 41818904 41992748 42169688 42349036 
3258.427 42529448 42709464 42888672 43066964 43244856 43423224 43603128 
3261.803 43785088 43969620 44156976 44347240 44540968 44738196 44938488 
3265.178 45141412 45345684 45549644 45752960 45955532 46158416 46363640 
3268.553 46573388 46788740 47010180 47236644 47466072 47696620 47926624 
3271.928 48155384 48383220 48611664 48842044 49076032 49314860 49558872 
3275.304 49807920 50061280 50317692 50575780 50834432 51093272 51352796 
3278.679 51614444 51879728 52150512 52427752 52711636 53000912 53294348 
3282.054 53590456 53888724 54189368 54493492 54802712 55118208 55440108 
3285.429 55768388 56101672 56438716 56778512 57120392 57464468 57811468 
3288.805 58162272 58518244 58880280 59248920 59624412 60006504 60394796 
3292.180 60788924 61188908 61594868 62008244 62429700 62860148 63299412 
3295.555 63746572 64199872 64657108 65117052 65578804 66042976 66510728 
3298.930 66983468 67462800 67949136 68442840 68944032 69452712 69969384 
3302.306 70494584 71029320 71574280 72129712 72695800 73272712 73860360 
3305.681 74458608 75066696 75683672 76308336 76939152 77575760 78218896 
3309.056 78870416 79532776 80208000 80896840 81599048 82312728 83035808 
3312.431 83767480 84508248 85260192 86025800 86807208 87604736 88416656 
3315.807 89240104 90071672 90908888 91751080 92598384 93451992 94312672 
3319.182 95180432 96054096 96932256 97813816 98697664 99583696 100471488 
3322.557 101360904 102250664 103139656 104026760 104911000 105791584 
3325.450 106667528 107537936 108400736 109253112 110092728 110917384 
3328.343 111725680 112517040 113290128 114043320 114773608 115477456 
3331.236 116151544 116793496 117401976 117976912 118518048 119023992 
3334.129 119492264 119919416 120302456 120640064 120932856 121183352 
3337.022 121394816 121569344 121706928 121805560 121861840 121872496 
3339.916 121835296 121749464 121615416 121433648 121203760 120924360 
3342.809 120593920 120210240 119772496 119280416 118734408 118135368 
3345.702 117483608 116779752 116025096 115221936 114374024 113485992 
3348.595 112562416 111607464 110623864 109612944 108575560 107512768 
3351.488 106425552 105316352 104187744 103042232 101882672 100711672 
3354.381 99532776 98350328 97169152 95994536 94830824 93680872 92545768 
3357.756 91425368 90318816 89225736 88146608 87082904 86036904 85010312 
3361.131 84004104 83018672 82053168 81107496 80181336 79275000 78388888 
3364.507 77523280 76678120 75852800 75046728 74259832 73492656 72746024 
3367.882 72020816 71317544 70635256 69972416 69326600 68695440 68077024 
3371.257 67469848 66873424 66287152 65710500 65143080 64584284 64034344 
3374.632 63493692 62963396 62444392 61936892 61440104 60952536 60471948 
3378.008 59996764 59525784 59059152 58597716 58142684 57694336 57252908 
3381.383 56817296 56386196 55958344 55532880 55109632 54688900 54271020 
3384.758 53855900 53443540 53033256 52625080 52219076 51815996 51416716 
3388.133 51022056 50632816 50248352 49868012 49490280 49114060 48738756 
3391.509 48364552 47992528 47624624 47262760 46908548 46562364 46223420 
3394.884 45889424 45557628 45225684 44891788 44556204 44220912 43888380 
3398.259 43561736 43242552 42931280 42626372 42325220 42024684 41722712 
3401.634 41418360 41112220 40806220 40502688 40203808 39911124 39625284 
3405.010 39346268 39073920 38807500 38545916 38288220 38033136 37778996 
3408.385 37524532 37268848 37011436 36752776 36493400 36233852 35974752 
3411.760 35716272 35458452 35201572 34945996 34692796 34443004 34197872 
3415.135 33957896 33723316 33493552 33267270 33043146 32819818 32596138 
3418.510 32371790 32147020 31922936 31701430 31484630 31274278 31071824 
3421.886 30877360 30689490 30506252 30325080 30143772 29961046 29776838 
3425.261 29592068 29408156 29225990 29046026 28867798 28690212 28512060 
3428.636 28332460 28151628 27970130 27789236 27609616 27432190 27256990 
3432.011 27084362 26914236 26747136 26583588 26424012 26268504 26116398 
3435.387 25966346 25817158 25667352 25516756 25365718 25215610 25068084 
3438.762 24924222 24784336 24647652 24512410 24376408 24237994 24095946 
3442.137 23950724 23803206 23654828 23506642 23358960 23211186 23062068 
3445.512 22910660 22757140 22602452 22449458 22301404 22160652 22028448 
3448.888 21903780 21783850 21665206 21544296 21419070 21289008 21155680 
3452.263 21021070 20887198 20755176 20624930 20495626 20365874 20235050 
3455.638 20103156 19970884 19839140 19708788 19579722 19451318 19322674 
3459.013 19192962 19062144 18930778 18800248 18671762 18546774 18426384 
3462.389 18310556 18199146 18091184 17985460 17880484 17774502 17666334 
3465.764 17555054 17440700 17324132 17206942 17090784 16977000 16866378 
3469.139 16758163 16651832 16545838 16439594 16332654 16225429 16118130 
3472.514 16010959 15903333 15794395 15682908 15568185 15450369 15330938 
3475.890 15211916 15095809 14984946 14880386 14782194 14688925 14598622 
3479.265 14508784 14416909 14322075 14223768 14122952 14021337 13920669 
3482.640 13822660 13727408 13634194 13541512 13447552 13351391 13253168 
3486.015 13154216 13056891 12963377 12874729 12790775 12709874 12629943 
3489.391 12548900 12465691 12380862 12295230 12210195 12126233 12042730 
3492.766 11958187 11871073 11780129 11685562 11588803 11492509 11399060 
3496.141 11310459 11227283 11149324 11075083 11003065 10931228 10858757 
3499.516 10783854 10706178 10624645 10539155 10449882 10357945 10265146 
3502.892 10173758 10086119 10004194 9928827 9860388 9797755 9739942 9684645 
3506.749 9630065 9574240 9515509 9452857 9386863 9319051 9251520 9187249 
3510.606 9128367 9075345 9027812 8983463 8939491 8893494 8843849 8789680 
3514.464 8732036 8671796 8610314 8548705 8487680 8427677 8369100 8312558 
3518.321 8258894 8208714 8162254 8118871 8077384 8036406 7994487 7950142 
3522.179 7902900 7852491 7799255 7743630 7686360 7627817 7568606 7508932 
3526.036 7449974 7391934 7336024 7283357 7234536 7190269 7150486 7114749 
3529.894 7082315 7052073 7023213 6995062 6967519 6940281 6913449 6886147 
3533.751 6857366 6825758 6789812 6748922 6703123 6653930 6603767 6554754 
3537.608 6508874 6466935 6428866 6393927 6361177 6330346 6301265 6274237 
3541.466 6249463 6226202 6202775 6177332 6147489 6111666 6068992 6020274 
3545.323 5967363 5912913 5859443 5809775 5765150 5726202 5692193 5661040 
3549.181 5630158 5596694 5558030 5512926 5462090 5407636 5353458 5303579 
3553.038 5260917 5226274 5198038 5173258 5148412 5120215 5087125 5048943 
3556.896 5006305 4960555 4912565 4862838 4811139 4757772 4702938 4648244 
3560.753 4594930 4544904 4499002 4457189 4418158 4379297 4337596 4289708 
3564.610 4232858 4165277 4086635 3999346 3907662 3818103 3737051 3669347 
3568.468 3617389 3579736 3552576 3530295 3507514 3480158 3445356 3402508 
3572.325 3352285 3296426 3236902 3175818 3114875 3054975 2997320 2942640 
3576.183 2891303 2843608 2799419 2758169 2719324 2682482 2647311 2613375 
3580.040 2580409 2547612 2514118 2478060 2438573 2394526 2345452 2292021 
3583.897 2234766 2174588 2112287 2048131 1982887 1917552 1853957 1794996 
3587.755 1743762 1703277 1674471 1656710 1647297 1642109 1636587 1626377 
3591.612 1608850 1582312 1547196 1505566 1460849 1416734 1376246 1341147 
3595.470 1311236 1285114 1260457 1235302 1208521 1179914 1150378 1121310 
3599.327 1094868 1071948 1053614 1039763 1029866 1022758 1017146 1011632 
3603.185 1005289 996887 985894 971449 952520 927882 896305 856231 807398 
3607.524 750371 687677 623267 562018 506981 460044 420011 383828 347350 
3611.864 307327 262699 215192 169414 130037 101633 85295 79131 78037 75618 
3616.686 65510 42678 5831 -43436 -98993 -153151 -198195 -228465 -242009 
3621.025 -241049 -229856 -213827 -197467 -184153 -175177 -169845 -166996 
3624.883 -166036 -167758 -174813 -192134 -225451 -279263 -353727 -442412 
3628.740 -532204 -607220 -655393 -673357 -666575 -645799 -621712 -603150 
3632.597 -594878 -597658 -608312 -622109 -633888 -640207 -640406 -636171 
3636.455 -630480 -626245 -625716 -629818 -638123 -649934 -664094 -680272 
3640.312 -698103 -717057 -736078 -753212 -766475 -774281 -776232 -773884 
3644.170 -770510 -770080 -777059 -794225 -822899 -861888 -908280 -958073 
3648.027 -1007695 -1054667 -1096841 -1132005 -1157055 -1167497 -1159434 
3651.402 -1131543 -1085967 -1028851 -967826 -912248 -869824 -845750 -841352 
3655.260 -852992 -872503 -888011 -889995 -872106 -834738 -783211 -726055 
3659.117 -673093 -632300 -609635 -607055 -622870 -652151 -687450 -722085 
3662.975 -750367 -769055 -778051 -778845 -773520 -764061 -751326 -736144 
3666.832 -718811 -699657 -678187 -650232 -605930 -528795 -396433 -187166 
3670.689 111079 497693 960822 1484188 2050428 2643444 3245782 3826393 
3674.547 4336224 4712048 4887097 4822396 4522170 4028775 3401840 2700119 
3678.404 1977794 1279863 645234 106240 -321016 -636237 -855274 -1001976 
3682.262 -1101501 -1173082 -1226776 -1266786 -1293810 -1310295 -1321989 
3685.637 -1337580 -1366119 -1414637 -1484284 -1570394 -1662363 -1748240 
3689.012 -1818625 -1869336 -1901568 -1918194 -1923010 -1917435 -1902129 
3692.387 -1877650 -1845252 -1808033 -1769459 -1733224 -1701211 -1674740 
3695.763 -1653550 -1636484 -1622191 -1609614 -1598456 -1589575 -1584425 
3699.138 -1585482 -1594956 -1614862 -1645198 -1683520 -1724973 -1762628 
3702.513 -1790413 -1804173 -1803348 -1790149 -1769327 -1746029 -1724511 
3705.888 -1707812 -1697085 -1692597 -1693884 -1700848 -1713587 -1732498 
3709.264 -1757414 -1787773 -1821759 -1856898 -1889560 -1915786 -1931752 
3712.639 -1934754 -1922878 -1897114 -1860263 -1817272 -1773749 -1735699 
3716.014 -1707548 -1691507 -1686557 -1689296 -1695336 -1700749 -1703983 
3719.389 -1705699 -1708637 -1715535 -1727251 -1742662 -1758536 -1771703 
3722.765 -1780051 -1784539 -1787872 -1794636 -1807175 -1825785 -1846769 
3726.140 -1864849 -1873625 -1869072 -1850629 -1821759 -1788796 -1758503 
3729.515 -1737448 -1730122 -1738834 -1762628 -1798002 -1839841 -1882698 
3732.890 -1922944 -1959757 -1994423 -2028855 -2063119 -2094083 -2115616 
3736.266 -2121023 -2106350 -2072617 -2025623 -1973511 -1924066 -1881873 
3739.641 -1848089 -1821660 -1800147 -1783912 -1776784 -1787311 -1826082 
3743.016 -1900941 -2010353 -2137410 -2252234 -2323164 -2333612 -2289250 
3746.391 -2211227 -2125376 -2053391 -2011177 -2005109 -2033175 -2084752 
3749.767 -2145620 -2201304 -2241686 -2262749 -2263837 -2245642 -2209776 
3753.142 -2158676 -2096524 -2029481 -1964969 -1908891 -1865641 -1835617 
3756.517 -1816744 -1805624 -1798299 -1793086 -1790314 -1790677 -1794537 
3759.892 -1799949 -1802985 -1799685 -1788301 -1770878 -1752629 -1740385 
3763.268 -1739923 -1753289 -1777576 -1805921 -1829645 -1841391 -1839016 
3766.643 -1824894 -1806020 -1789258 -1779688 -1779028 -1785265 -1793977 
3770.018 -1800345 -1800510 -1792987 -1777939 -1757150 -1732300 -1705600 
3773.393 -1678833 -1653913 -1632820 -1616678 -1606577 -1602648 -1604926 
3776.769 -1612948 -1626680 -1645298 -1667149 -1689098 -1707118 -1716327 
3780.144 -1713719 -1699462 -1676754 -1651602 -1629816 -1616480 -1613311 
3783.519 -1619154 -1629882 -1640973 -1648334 -1650183 -1647245 -1640742 
3786.894 -1632358 -1622455 -1610835 -1596673 -1580001 -1562240 -1546194 
3790.270 -1534044 -1527374 -1526087 -1528629 -1532525 -1536421 -1540548 
3793.645 -1546557 -1557551 -1575412 -1599908 -1627770 -1653087 -1669327 
3797.020 -1672067 -1661075 -1640346 -1617404 -1601097 -1599809 -1618824 
3800.395 -1658303 -1710947 -1764674 -1803975 -1817371 -1801863 -1762727 
3803.771 -1711508 -1661339 -1624601 -1610340 -1620936 -1652163 -1692629 
3807.146 -1727911 -1745039 -1738438 -1710419 -1668238 -1620243 -1572870 
3810.521 -1529190 -1489237 -1451889 -1416586 -1385012 -1361693 -1352973 
3813.896 -1364335 -1398586 -1452682 -1517535 -1578879 -1622851 -1642261 
3817.271 -1638333 -1620012 -1599446 -1589080 -1597168 -1626746 -1673453 
3820.647 -1726095 -1768898 -1787278 -1774376 -1732597 -1672430 -1606345 
3824.022 -1546194 -1499738 -1470019 -1455258 -1449842 -1446539 -1439010 
3827.397 -1424182 -1402814 -1379231 -1358753 -1345937 -1342997 -1349570 
3830.772 -1363146 -1379859 -1396274 -1409881 -1419657 -1425932 -1428937 
3834.148 -1429697 -1429301 -1429598 -1432900 -1442081 -1459220 -1484548 
3837.523 -1515818 -1547911 -1574686 -1590830 -1593735 -1583930 -1564782 
3840.898 -1541043 -1517436 -1497261 -1482798 -1473981 -1469292 -1466122 
3844.273 -1461763 -1453739 -1441355 -1425106 -1406843 -1389107 -1374244 
3847.649 -1363741 -1357498 -1354525 -1353270 -1353270 -1356474 -1367638 
3851.024 -1394259 -1444096 -1522422 -1627241 -1745402 -1853962 -1929971 
3854.399 -1959889 -1945177 -1897081 -1831130 -1759889 -1691045 -1628331 
3857.774 -1572738 -1523544 -1480784 -1444360 -1415066 -1393434 -1379331 
3861.150 -1371998 -1370479 -1373914 -1382138 -1395548 -1414175 -1435906 
3864.525 -1456479 -1470514 -1472958 -1462159 -1440991 -1417015 -1399874 
3867.900 -1398751 -1419195 -1460211 -1513969 -1565871 -1601361 -1611825 
3871.275 -1597960 -1567192 -1530016 -1496105 -1471208 -1455291 -1444657 
3874.651 -1433429 -1416354 -1390891 -1358753 -1323739 -1291762 -1267480 
3878.026 -1254628 -1255058 -1267943 -1290408 -1317033 -1342039 -1359678 
3881.401 -1366350 -1361858 -1349405 -1334838 -1325259 -1327010 -1343988 
3884.776 -1375004 -1413250 -1447365 -1466485 -1463546 -1438680 -1398322 
3888.152 -1353435 -1314457 -1290474 -1285981 -1300748 -1328926 -1361164 
3891.527 -1387654 -1401360 -1399478 -1383723 -1358225 -1328001 -1296750 
3894.902 -1267546 -1242569 -1223670 -1212469 -1210619 -1218813 -1236556 
3898.277 -1261599 -1290308 -1318124 -1341775 -1359744 -1372725 -1383889 
3901.653 -1396076 -1411533 -1430126 -1448785 -1462721 -1467179 -1458461 
3905.028 -1435906 -1401360 -1359513 -1314919 -1271874 -1233615 -1201499 
3908.403 -1175957 -1156229 -1141721 -1131642 -1125627 -1123181 -1123842 
3911.778 -1126751 -1130716 -1134550 -1137227 -1138615 -1139441 -1141159 
3915.154 -1145092 -1152065 -1162078 -1173544 -1184052 -1190992 -1192446 
3918.529 -1187588 -1176948 -1161285 -1142349 -1121397 -1099749 -1079093 
3921.904 -1061476 -1048981 -1043594 -1046601 -1057344 -1073044 -1089933 
3925.279 -1103319 -1109466 -1107120 -1097105 -1082596 -1066797 -1052948 
3928.655 -1042932 -1036983 -1034768 -1035759 -1039164 -1045048 -1053311 
3932.030 -1063327 -1073672 -1082299 -1087289 -1087983 -1084811 -1080018 
3935.405 -1075820 -1074432 -1076349 -1080315 -1084183 -1085736 -1083621 
3938.780 -1078828 -1073804 -1072218 -1076977 -1089669 -1109301 -1132964 
3942.156 -1155832 -1173280 -1182169 -1181178 -1171430 -1155502 -1137062 
3945.531 -1119381 -1104740 -1094726 -1089471 -1088215 -1089405 -1091388 
3948.906 -1092677 -1092445 -1090594 -1087851 -1084447 -1080679 -1076283 
3952.281 -1070730 -1063062 -1053378 -1041842 -1029909 -1019066 -1010405 
3955.656 -1004819 -1002141 -1001447 -1001777 -1002174 -1001877 -1000984 
3959.032 -999596 -997579 -995001 -991761 -987761 -983364 -979298 -975893 
3962.889 -974140 -973777 -974769 -976289 -977909 -979265 -980124 -980785 
3966.747 -981414 -981612 -981248 -979562 -976620 -972653 -968355 -964619 
3970.604 -962040 -960486 -959428 -957709 -954337 -949180 -942468 -935194 
3974.461 -928053 -921638 -915852 -910231 -904015 -896906 -889367 -881828 
3978.319 -875148 -870023 -866352 -863839 -861656 -859507 -856861 -854216 
3982.176 -852000 -850181 -848892 -847933 -847106 -846676 -847040 -848495 
3986.034 -851471 -855406 -859441 -862450 -863310 -861656 -857622 -852529 
3989.891 -847404 -843105 -839765 -837086 -834176 -830472 -825974 -820947 
3993.749 -816383 -812878 -810860 -810298 -810927 -812779 -815788 -820220 
3997.606 -826371 -834275 -843270 -852463 -860466 -866517 -869791 
##END=
