
##TITLE=1708_3_b
##JCAMP-DX=5.01  $$ Nicolet v. 1
##DATATYPE=INFRARED SPECTRUM
##ORIGIN=UniL
##OWNER=Nicolet
##LONGDATE=2011/09/08
##TIME=13:43:45
##SPECTROMETER/DATA SYSTEM=Nicolet iS5
##DATA PROCESSING=
Ratio against background
%Transmittance->Absorbance
Truncated
ElementMultiply or ElementDivide
##COMMENTS=
Number of sample scans: 32
Collection length: 51.16 sec
Sample gain: 2.0
Background collected on: Jeu Sep 08 13:38:27 2011 (GMT+02:00);
Number of background scans: 32
Background gain: 2.0
Sample spacing:  1.000
Number of scan points: 12415
Resolution points: 8192
Number of FFT points: 65536
Apodization: N-B fort;
Phase correction: Mertz;
Laser frequency: 15798.0 cm-1
Number of rejected sample scans: 0
Number of rejected background scans: 0
Bench serial number: ASB1000141;
##RESOLUTION=4.000
##XUNITS=1/CM
##YUNITS=ABSORBANCE
##FIRSTX=649.893372
##LASTX=4000.122314
##FIRSTY=0.099735
##MAXX=4000.122314
##MINX=649.893372
##MAXY=0.277022
##MINY=-0.001139
##XFACTOR=1.000000
##YFACTOR=1.000000E-009
##NPOINTS=6950
##DELTAX=0.482117
##ZPD=6100
##XYDATA=(X++(Y..Y))
649.893 99734952 99629824 99590488 99632040 99750120 99926088 100137928 
653.268 100373704 100638768 100950392 101327344 101775352 102284880 
656.161 102833928 103400392 103974896 104563800 105184760 105853688 
659.054 106573496 107330776 108103184 108875184 109648256 110445392 
661.946 111299400 112239128 113269656 114368512 115488048 116574032 
664.839 117577464 118453152 119158856 119644248 119847592 119719888 
667.732 119259656 118540080 117675424 116763408 115834912 114860360 
670.624 113773696 112510248 111033704 109349512 107506864 105577568 
673.517 103638712 101743024 99911496 98143976 96433768 94783592 93210248 
676.892 91737816 90385720 89160840 88053336 87044392 86112776 85244184 
680.267 84431128 83669288 82952288 82268592 81602088 80939712 80276712 
683.642 79621488 78991768 78410712 77895920 77453608 77077584 76752688 
687.016 76461376 76188192 75923200 75661392 75398600 75129000 74844456 
690.391 74535624 74196072 73824536 73425472 73006504 72575792 72140704 
693.766 71706984 71282680 70880712 70517768 70213640 69984248 69833088 
697.141 69747792 69698736 69645720 69543272 69354784 69060664 68660360 
700.516 68171792 67623176 67048460 66476128 65928220 65418148 64950952 
703.890 64525924 64139144 63785552 63460132 63159056 62879600 62620528 
707.265 62381844 62163712 61966356 61789988 61635652 61506788 61412012 
710.640 61365868 61390372 61508280 61738308 62084844 62530516 63031776 
714.015 63518844 63913980 64141064 64144060 63902700 63433556 62787660 
717.390 62034540 61258876 60547480 59979000 59631708 59573556 59852988 
720.765 60488708 61448540 62640892 63901812 65025068 65796308 66023456 
724.139 65598420 64516044 62882356 60879760 58730536 56648708 54782600 
727.514 53212504 51948772 50954612 50170500 49538520 49016528 48576720 
730.889 48203064 47885412 47613792 47378852 47174440 46997812 46849672 
734.264 46732096 46644440 46582872 46540344 46509732 46487164 46473776 
737.639 46475104 46497928 46546908 46623740 46726048 46849596 46990536 
741.013 47146000 47313376 47489060 47667296 47839312 47995304 48126620 
744.388 48225948 48287452 48304632 48267012 48160048 47966956 47672768 
747.763 47272032 46772396 46196996 45578232 44952640 44352968 43800668 
751.138 43306684 42872868 42496636 42174400 41904392 41687000 41523308 
754.513 41414132 41359168 41355560 41398276 41479668 41587808 41708300 
757.888 41826420 41928076 42005484 42058156 42093640 42124160 42163040 
761.262 42220696 42301228 42404016 42526052 42666688 42830852 43032100 
764.637 43292588 43645660 44135372 44810852 45725648 46920948 48407708 
768.012 50145992 52032244 53905716 55553400 56769604 57401808 57392048 
771.387 56807628 55827920 54708068 53687596 52940984 52524924 52369808 
774.762 52304172 52110316 51607840 50689336 49359740 47719548 45938032 
778.136 44199088 42649692 41390912 40457556 39833472 39468424 39301940 
781.511 39278976 39354828 39500540 39699300 39941348 40222852 40543320 
784.886 40904944 41311176 41765496 42270036 42825512 43431280 44087804 
788.261 44797924 45568848 46412384 47342012 48374184 49524664 50808768 
791.636 52243144 53845776 55635800 57633908 59857288 62315252 65003672 
795.010 67902456 70973440 74160464 77400464 80626352 83778576 86821368 
798.385 89750032 92602976 95455424 98418120 101611160 105127936 109006720 
801.760 113190016 117512056 121674872 125290680 127949240 129258648 
804.653 128968400 127023400 123596408 119047440 113850216 108502816 
807.546 103381224 98702360 94496952 90645608 86943680 83184016 79240600 
810.920 75088080 70808904 66545792 62467692 58717072 55379884 52491460 
814.295 50038864 47982240 46268608 44846600 43672152 42705292 41913700 
817.670 41269924 40750788 40339952 40026392 39802424 39662088 39598604 
821.045 39604372 39672836 39799956 39986868 40238704 40564236 40972660 
824.420 41470596 42061624 42745544 43518004 44370104 45287536 46250032 
827.794 47230216 48198400 49128896 50006816 50837004 51648852 52499240 
831.169 53462540 54627348 56085572 57908876 60138992 62762164 65697588 
834.544 68775832 71741536 74296120 76104328 76875592 76432888 74739752 
837.919 71927192 68252584 64068944 59731688 55543348 51739208 48449048 
841.294 45717584 43524592 41811464 40501124 39512584 38775620 38227648 
844.669 37816260 37504120 37264552 37083824 36957716 36886868 36872040 
848.043 36910424 36994948 37116628 37268200 37446332 37652612 37891096 
851.418 38165668 38476980 38822392 39197232 39598060 40025124 40482832 
854.793 40978016 41517876 42107512 42750040 43448088 44207488 45038156 
858.168 45957372 46987768 48154976 49489424 51024180 52793012 54831320 
861.543 57166012 59804616 62718900 65832092 69012888 72067272 74773912 
864.917 76906672 78261744 78710760 78210840 76819312 74674976 71984712 
868.292 68989192 65908940 62940760 60228620 57853676 55852376 54221012 
871.667 52933124 51949780 51230600 50739312 50442608 50312968 50327512 
875.042 50466128 50714544 51063868 51512100 52062912 52724352 53504852 
878.417 54407892 55426372 56538304 57706292 58875044 59976300 60942584 
881.792 61710504 62236204 62505952 62538704 62384560 62110568 61794536 
885.166 61503696 61285280 61166744 61154844 61243996 61424036 61686632 
888.541 62027124 62442632 62929504 63480036 64081268 64717712 65372808 
891.916 66031672 66682800 67316424 67922792 68493080 69016768 69485024 
895.291 69891928 70235288 70516528 70739248 70908640 71031112 71114472 
898.666 71170952 71215104 71263784 71332856 71432632 71565336 71725432 
902.040 71901856 72082184 72257184 72424424 72588368 72759416 72950368 
905.415 73176624 73454312 73799448 74230664 74766048 75421984 76211656 
908.790 77142512 78216312 79430720 80782168 82267752 83887368 85642688 
912.165 87536720 89572976 91756152 94095016 96606368 99315360 102257160 
915.540 105472752 108999904 112868536 117091160 121657728 126526328 
918.432 131617472 136812416 141932000 146746528 150994208 154383952 
921.325 156664960 157674688 157383920 155929280 153610512 150879296 
924.218 148237664 146204256 145244960 145669312 147615760 151000352 
927.110 155536608 160728784 165937696 170517680 173844144 175457600 
930.003 175132656 172864176 168843504 163370112 156805696 149495056 
932.896 141741712 133826960 125989464 118440400 111375832 104949264 99279080 
936.271 94446216 90485608 87402536 85179512 83785888 83178800 83298280 
939.646 84062968 85348904 86986424 88778280 90492464 91904416 92834696 
943.020 93156456 92827680 91887760 90450800 88675376 86735392 84803152 
946.395 83010856 81448016 80160968 79155552 78412424 77898216 77579448 
949.770 77425296 77410672 77516544 77725128 78019704 78385352 78809272 
953.145 79282280 79799992 80359592 80958920 81593648 82256704 82939664 
956.520 83635416 84339664 85051984 85773992 86507664 87252792 88006792 
959.894 88766008 89528464 90295112 91070272 91859096 92665400 93488720 
963.269 94325192 95168336 96013008 96857992 97706000 98562360 99431576 
966.644 100315016 101210912 102115248 103025432 103942312 104871088 
969.537 105818520 106790384 107788296 108810216 109851704 110909976 
972.429 111986016 113084976 114214400 115380384 116584864 117825688 
975.322 119097608 120397088 121723672 123080456 124471616 125898432 
978.215 127356424 128835456 130320488 131796968 133253128 134679632 
981.108 136068944 137411120 138692096 139896224 141009136 142022832 
984.000 142939568 143770848 144534624 145248048 145925872 146578112 
986.893 147212144 147836496 148463168 149106240 149779888 150493440 
989.786 151249328 152043536 152869600 153722240 154600976 155509152 
992.678 156451088 157428048 158435744 159465312 160506272 161552016 
995.571 162601232 163657936 164726736 165809184 166901456 167994864 
998.464 169080624 170153856 171217264 172279280 173350720 174439520 
1001.356 175548736 176677200 177823968 178992112 180190768 181432896 
1004.249 182731136 184091584 185512928 186987200 188506592 190067792 
1007.142 191675856 193340672 195072736 196876416 198746624 200669440 
1010.035 202626512 204601408 206579808 208547776 210488096 212373056 
1012.927 214166528 215830640 217332912 218659680 219818416 220837136 
1015.820 221753456 222605232 223425536 224238368 225063552 225922368 
1018.713 226836704 227828912 228915440 230102160 231384336 232751616 
1021.605 234197424 235725744 237354656 239109968 241018304 243096592 
1024.498 245346704 247757504 250311040 252989472 255775216 258648128 
1027.391 261575824 264501600 267347104 270013184 272387328 274365760 
1030.284 275852768 276762304 277021952 276563168 275328128 273284192 
1033.177 270433024 266823296 262544064 257722224 252500272 247014896 
1036.070 241402800 235788640 230284928 225006800 220057744 215527184 
1038.963 211490976 207998400 205076624 202732560 200952816 199702064 
1041.856 198911760 198477936 198243584 197998992 197517040 196558448 
1044.750 194922976 192495072 189251920 185274592 180718352 175797200 
1047.643 170735888 165734688 160969008 156561216 152581632 149059104 
1050.536 145981968 143312112 140992640 138963952 137169440 135560224 
1053.429 134101528 132766560 131532968 130381312 129290056 128237200 
1056.322 127204016 126175240 125140904 124094952 123032104 121945848 
1059.215 120828728 119673488 118477216 117244528 115987616 114724632 
1062.108 113475368 112259600 111091976 109984728 108947224 107986792 
1065.001 107107728 106308352 105577232 104890280 104210568 103496976 
1067.894 102706640 101806640 100781664 99634832 98387360 97071944 95730056 
1071.269 94402760 93125704 91928744 90830872 89840440 88955712 88166496 
1074.645 87456640 86807536 86202472 85628728 85077776 84544472 84024568 
1078.020 83512280 83000384 82481608 81951000 81409328 80864232 80329888 
1081.395 79822808 79361032 78959976 78631456 78385312 78229880 78172792 
1084.770 78222032 78384328 78664248 79064232 79584552 80224704 80984024 
1088.146 81861936 82854960 83953696 85141624 86392800 87675360 88959656 
1091.521 90221120 91447416 92638824 93804760 94956728 96101632 97237088 
1094.896 98351080 99426288 100446352 101404712 102310080 103190496 104087680 
1098.271 105050024 106121272 107321656 108635384 109998472 111306120 
1101.164 112414560 113161984 113410008 113055752 112060936 110456208 
1104.057 108336400 105840624 103119528 100329208 97602648 95036848 92700424 
1107.433 90625936 88817592 87257984 85915264 84749984 83718624 82781544 
1110.808 81903464 81054104 80210184 79352680 78466448 77542048 76575272 
1114.183 75569392 74534480 73487272 72448112 71436384 70469600 69560464 
1117.558 68716640 67942480 67239360 66606896 66043244 65544240 65103972 
1120.934 64713752 64363772 64043940 63743724 63452652 63157944 62842376 
1124.309 62484676 62058964 61537944 60900228 60133132 59237756 58229064 
1127.684 57135168 55992272 54836656 53703532 52619616 51601532 50656604 
1131.059 49783584 48975212 48220428 47507728 46826568 46169284 45532384 
1134.435 44916480 44325960 43766768 43245844 42768724 42338956 41958404 
1137.810 41627776 41347396 41117644 40939056 40811568 40733976 40704060 
1141.185 40719088 40776228 40873776 41011264 41188712 41405856 41660708 
1144.560 41949356 42266568 42606380 42963468 43333848 43714804 44103792 
1147.936 44498236 44894912 45290664 45682944 46071128 46456040 46839744 
1151.311 47224564 47612088 48003332 48397852 48795808 49197692 49604068 
1154.686 50015108 50429616 50844380 51253940 51652212 52032132 52387560 
1158.061 52712720 53001736 53248088 53444364 53582512 53655316 53656812 
1161.437 53582736 53431360 53201496 52892588 52504660 52038632 51497440 
1164.812 50886696 50215468 49495032 48737608 47955892 47161216 46363384 
1168.187 45572052 44796088 44044344 43326196 42650060 42022964 41450508 
1171.562 40935996 40481996 40090600 39764404 39506816 39321636 39211916 
1174.938 39180188 39227804 39355624 39565468 39861040 40247464 40732152 
1178.313 41322944 42027676 42854440 43811040 44906192 46150416 47554232 
1181.688 49128784 50883900 52826764 54961860 57289960 59807316 62500752 
1185.063 65342844 68289888 71271088 74191904 76944376 79404432 81453576 
1188.438 82993280 83946984 84274848 83974472 83081376 81661424 79803736 
1191.814 77614976 75198696 72653336 70067448 67508824 65031344 62674188 
1195.189 60461020 58405240 56510452 54773128 53184120 51731744 50404128 
1198.564 49189788 48079904 47068520 46151704 45327364 44593248 43946376 
1201.939 43382288 42895324 42478660 42125764 41829776 41583212 41377940 
1205.315 41203760 41048480 40899808 40746564 40580388 40397620 40198792 
1208.690 39987700 39770104 39552000 39339116 39136676 38951220 38790364 
1212.065 38663400 38580792 38552976 38588500 38694184 38873880 39129640 
1215.440 39461784 39869572 40350460 40900500 41514524 42186120 42909300 
1218.816 43679956 44495960 45357452 46265808 47223160 48231720 49294296 
1222.191 50414884 51598848 52852472 54181708 55589364 57073348 58625324 
1225.566 60231208 61872320 63525752 65166952 66769116 68302568 69739272 
1228.941 71052768 72223056 73241016 74109568 74845240 75473696 76030352 
1232.317 76557128 77097760 77702736 78425480 79318592 80437024 81830368 
1235.692 83538944 85595024 88018808 90819512 93996600 97539600 101426640 
1239.067 105618976 110064168 114691616 119415528 124149808 128807768 
1241.960 133310232 137592192 141593632 145257872 148531552 151357488 
1244.853 153678864 155442992 156597936 157096960 156902176 155985088 
1247.746 154336784 151971824 148931312 145275184 141072832 136394416 
1250.639 131297632 125830296 120037216 113965992 107679512 101261448 
1253.532 94806672 88424576 82228032 76314064 70770448 65660968 61020292 
1256.908 56858880 53163072 49901652 47031188 44504736 42277448 40306176 
1260.283 38554932 36994228 35598692 34349108 33229678 32226164 31326198 
1263.658 30517484 29787482 29125420 28522110 27971084 27469110 27014224 
1267.033 26604936 26238692 25911758 25619760 25359326 25129274 24931064 
1270.409 24768234 24645372 24566474 24534286 24551080 24619350 24742978 
1273.784 24928152 25181376 25508920 25913728 26393834 26939794 27533462 
1277.159 28149720 28754426 29307050 29767896 30099164 30274026 30281948 
1280.534 30130274 29842988 29453578 29001356 28520376 28035898 27564106 
1283.910 27112224 26682548 26276566 25896740 25546624 25230080 24949242 
1287.285 24704536 24494426 24317812 24174164 24063796 23987384 23943408 
1290.660 23927966 23934864 23957588 23991096 24034798 24091778 24167858 
1294.035 24269456 24401396 24566578 24766306 25002342 25277876 25598180 
1297.411 25970216 26400454 26894424 27456722 28090154 28797902 29580576 
1300.786 30435344 31350628 32302898 33258542 34171240 34991064 35673216 
1304.161 36181200 36495272 36613892 36552940 36342136 36019640 35630700 
1307.536 35218964 34823592 34477688 34202136 34006840 33890432 33843400 
1310.912 33851356 33898744 33972444 34061564 34156900 34250928 34335228 
1314.287 34401576 34443288 34455772 34437152 34388380 34311028 34206296 
1317.662 34074212 33914440 33727472 33516136 33286840 33047758 32807346 
1321.037 32572422 32346692 32131464 31927858 31738214 31567932 31425000 
1324.413 31318008 31255014 31241698 31281258 31376094 31528666 31741388 
1327.788 32015630 32348980 32733954 33156608 33599576 34045900 34481384 
1331.163 34898596 35295184 35671884 36029508 36365984 36675792 36952160 
1334.538 37188420 37380528 37528216 37634472 37704796 37745600 37765476 
1337.914 37775232 37788212 37822008 37894964 38022356 38214764 38475132 
1341.289 38800148 39182908 39616352 40095320 40616188 41175960 41771772 
1344.664 42399632 43056024 43739428 44449928 45187812 45948568 46716968 
1348.039 47465148 48148568 48711584 49098956 49259704 49160584 48791508 
1351.415 48166748 47323796 46315308 45208032 44069724 42962956 41944316 
1354.790 41054416 40318684 39746864 39334948 39069636 38933316 38910008 
1358.165 38986304 39151036 39394588 39705256 40069488 40474720 40911352 
1361.540 41377172 41877428 42423160 43024488 43683436 44390692 45123660 
1364.916 45850680 46530716 47120552 47576156 47853336 47917784 47747988 
1368.291 47341572 46716420 45908092 44963552 43927420 42840176 41731644 
1371.666 40620372 39520860 38448560 37424048 36477400 35641812 34944848 
1375.041 34400748 34005408 33741472 33585256 33518784 33536072 33646188 
1378.417 33871380 34244300 34806720 35603476 36683360 38092816 39860604 
1381.792 41980484 44387208 46954724 49484932 51732900 53456020 54418932 
1385.167 54445224 53451072 51473080 48688232 45381916 41912712 38601756 
1388.542 35669656 33225458 31271286 29747740 28568958 27653296 26931650 
1391.917 26350212 25872756 25474098 25140086 24866394 24655400 24512832 
1395.293 24442440 24442582 24505538 24620332 24774022 24955384 25156448 
1398.668 25372110 25601378 25845642 26108162 26391334 26695514 27017680 
1402.043 27352150 27691152 28026250 28351666 28664338 28964518 29253634 
1405.418 29532056 29798164 30049274 30284328 30506428 30723984 30949868 
1408.794 31197978 31478930 31798638 32157082 32551602 32979046 33438258 
1412.169 33929700 34451644 34997816 35555608 36107596 36639452 37144600 
1415.544 37630028 38115928 38633480 39219136 39905024 40713048 41644552 
1418.919 42675648 43759032 44834508 45845196 46744240 47502000 48108000 
1422.295 48570676 48922808 49220328 49540152 49957780 50528508 51274748 
1425.670 52183468 53221644 54351408 55546808 56793128 58084164 59415672 
1429.045 60779628 62166196 63569784 64997972 66472808 68022960 69676440 
1432.420 71447944 73338184 75337240 77438280 79649712 81996336 84516976 
1435.796 87244776 90187240 93305040 96526120 99775392 102995304 106150168 
1439.171 109206968 112120944 114810424 117156336 119028048 120284880 
1442.064 120808120 120521968 119392712 117439272 114729072 111385080 
1444.957 107569264 103459216 99249648 95117480 91214872 87671512 84571408 
1448.332 81944800 79760144 77938816 76377112 74977608 73683616 72488240 
1451.708 71435288 70591528 70022056 69757136 69780744 70031360 70417968 
1455.083 70845520 71222400 71492168 71654616 71775696 71959536 72302112 
1458.458 72871872 73696960 74782656 76123952 77706152 79501312 81459408 
1461.833 83513600 85566984 87490064 89142976 90379920 91092376 91248720 
1465.208 90909904 90209376 89297600 88313752 87356592 86484216 85732240 
1468.584 85116104 84633448 84261408 83953408 83640840 83239160 82677200 
1471.959 81925024 81017048 80043984 79119096 78337136 77747560 77367000 
1475.334 77195904 77234056 77487072 77959672 78644192 79513248 80518736 
1478.709 81603928 82707264 83779904 84794280 85746168 86655776 87560712 
1482.085 88510328 89554400 90743352 92133472 93784736 95761288 98119928 
1485.460 100889824 104048608 107496216 111060784 114482056 117434152 
1488.353 119579704 120584336 120195112 118312160 115022864 110600872 
1491.246 105418984 99869496 94257016 88761944 83476976 78420360 73588296 
1494.621 69003880 64726480 60860696 57534636 54855456 52876008 51582764 
1497.997 50917988 50802660 51159768 51926816 53046920 54464000 56121016 
1501.372 57950860 59881092 61840340 63740276 65477932 66927456 67907224 
1504.747 68188736 67516456 65680780 62652604 58677128 54223792 49764484 
1508.122 45600388 41823100 38391912 35229424 32279126 29519146 26964756 
1511.498 24647160 22589048 20798066 19260670 17950062 16835448 15887352 
1514.873 15079822 14385707 13779324 13239811 12755561 12329147 11972799 
1518.248 11698599 11507786 11385658 11302467 11224461 11127839 11014144 
1521.623 10912030 10863242 10896775 11013974 11192398 11399264 11608643 
1524.999 11808489 12006452 12222362 12479024 12788557 13147249 13540692 
1528.374 13953789 14378925 14819322 15285219 15787866 16332790 16918292 
1531.749 17536632 18178518 18840144 19524196 20237828 20983060 21753748 
1535.124 22533592 23303648 24043834 24738804 25380612 25964096 26487364 
1538.500 26947128 27335566 27638252 27839328 27933732 27931966 27857310 
1541.875 27734912 27578404 27385710 27141850 26829920 26442850 25991992 
1545.250 25506600 25023928 24572680 24160572 23775592 23392912 22989256 
1548.625 22553938 22096950 21644692 21229854 20873500 20576670 20322124 
1552.000 20086082 19849858 19608596 19373602 19165742 19004712 18897970 
1555.376 18835852 18794954 18745272 18651598 18477344 18191508 17781784 
1558.751 17275480 16741838 16264057 15897043 15650857 15504449 15424551 
1562.126 15377999 15336636 15282268 15208244 15121608 15039551 14982202 
1565.501 14964231 14987587 15041608 15108297 15170671 15217338 15246918 
1568.877 15266961 15290505 15330079 15392108 15477700 15584430 15709668 
1572.252 15850889 16003843 16161665 16311839 16438734 16528042 16573858 
1575.627 16584976 16584804 16603187 16658580 16751859 16868962 16990748 
1579.002 17100606 17188950 17254242 17300100 17332512 17355272 17369756 
1582.378 17375204 17370756 17357618 17338824 17316686 17290446 17254554 
1585.753 17200634 17120148 17010112 16875404 16729718 16591104 16478378 
1589.128 16407007 16386602 16422732 16518852 16677482 16898552 17175712 
1592.503 17493442 17824176 18131532 18379856 18538752 18592214 18541484 
1595.879 18403360 18204364 17972682 17735980 17516278 17331342 17197808 
1599.254 17130282 17140896 17238246 17425488 17701052 18060614 18499782 
1602.629 19013816 19595702 20233800 20906946 21583958 22228648 22799948 
1606.004 23258936 23575306 23727086 23705216 23513112 23165646 22685428 
1609.380 22099774 21441000 20742628 20038820 19363866 18743750 18193962 
1612.755 17717274 17304444 16938618 16599365 16268633 15933855 15591607 
1616.130 15251380 14934017 14665687 14468291 14353239 14318616 14352999 
1619.505 14437496 14551713 14677134 14799301 14912996 15023394 15145178 
1622.881 15295859 15488070 15725506 16001128 16304374 16625736 16961494 
1626.256 17311720 17677172 18054914 18436514 18809452 19162592 19490474 
1629.631 19796134 20088026 20376154 20665548 20954408 21233194 21487998 
1633.006 21704250 21868584 21972750 22015308 22004050 21955636 21891896 
1636.382 21834996 21798308 21784614 21787648 21794614 21789250 21755318 
1639.757 21682236 21567522 21419208 21252646 21086420 20933648 20797232 
1643.132 20668780 20531232 20364034 20147788 19871708 19537746 19163318 
1646.507 18777898 18416498 18110148 17877654 17723832 17641834 17616678 
1649.883 17626340 17640072 17620680 17520314 17292722 16918292 16435774 
1653.258 15945164 15551769 15306636 15191807 15156775 15148746 15131523 
1656.633 15086581 15008440 14901235 14772458 14629464 14475279 14309027 
1660.008 14127230 13925768 13702102 13456335 13191923 12916064 12639153 
1663.384 12372952 12128925 11914629 11731754 11575567 11435219 11296243 
1666.759 11142150 10958208 10735692 10474456 10183765 9880150 9583080 
1670.134 9308659 9066989 8861231 8688663 8542318 8410987 8280777 8135650 
1673.991 7962730 7758472 7533812 7314222 7127717 6994557 6917523 6884800 
1677.849 6877395 6877731 6876149 6872513 6874971 6893990 6935904 6997992 
1681.706 7068238 7128020 7160626 7158335 7132500 7111179 7128761 7206540 
1685.564 7342629 7521102 7722887 7934720 8148175 8359676 8567764 8770442 
1689.421 8965941 9153272 9333980 9512088 9692742 9879031 10069367 10256156 
1693.279 10425513 10561698 10651470 10691677 10694631 10688281 10703800 
1696.654 10757225 10843232 10936223 11002894 11006123 10918248 10733042 
1700.029 10478428 10211444 9988699 9838832 9754344 9707278 9664757 9600559 
1703.886 9498067 9350535 9162037 8944971 8717059 8493255 8282602 8087476 
1707.744 7904587 7727845 7550906 7369253 7181409 6989069 6796072 6607872 
1711.601 6428798 6261026 6104172 5955606 5812462 5672353 5534471 5398344 
1715.459 5263030 5125378 4981938 4830739 4676109 4529804 4408350 4325280 
1719.316 4286295 4287265 4317115 4361793 4408283 4448652 4480455 4506869 
1723.174 4534525 4570017 4617367 4676511 4743837 4814958 4885388 4951774 
1727.031 5011299 5060843 5097149 5117533 5121556 5112068 5093863 5071838 
1730.888 5046563 5012238 4955059 4856136 4699655 4482832 4226534 3971525 
1734.746 3763320 3628148 3564736 3551975 3562498 3573021 3566407 3536107 
1738.603 3483899 3419807 3356259 3304072 3269184 3251824 3248753 3256264 
1742.461 3271487 3292320 3316726 3342736 3368280 3391521 3411592 3428123 
1746.318 3440780 3448929 3450866 3443986 3426219 3395495 3351551 3295458 
1750.176 3229992 3159663 3090180 3028115 2979337 2947444 2932966 2932499 
1754.033 2939338 2944241 2938437 2915320 2874092 2820362 2764805 2718723 
1757.890 2688383 2673014 2665346 2655278 2632843 2592242 2534014 2464531 
1761.748 2393593 2330395 2281029 2246556 2225174 2213251 2207157 2203294 
1765.605 2198198 2188041 2169726 2142754 2109357 2075730 2048531 2031986 
1769.463 2025028 2021034 2010515 1983685 1937288 1876286 1814660 1768147 
1773.320 1746989 1751513 1773836 1802449 1827603 1845572 1857518 1868765 
1777.177 1884106 1904872 1928002 1947838 1958755 1958888 1951366 1943378 
1781.035 1942446 1952365 1971603 1993571 2010981 2017871 2012512 1997832 
1784.892 1979458 1963415 1953297 1949935 1952265 1959387 1970738 1986415 
1788.750 2005588 2025095 2039609 2042006 2026426 1991008 1940117 1883574 
1792.607 1832461 1795529 1775600 1769378 1771241 1775766 1779492 1781555 
1796.465 1781555 1779559 1773803 1762126 1742664 1715884 1684783 1654880 
1800.322 1632231 1620923 1621754 1632729 1649991 1670180 1691369 1712924 
1804.179 1734746 1756670 1776997 1794065 1806508 1814394 1819152 1822945 
1808.037 1827237 1831962 1834890 1833593 1826505 1814494 1800453 1789041 
1811.894 1783784 1785614 1792435 1800353 1805843 1807307 1806076 1806076 
1815.752 1812131 1827470 1852659 1885936 1923609 1962483 2000395 2037246 
1819.609 2073866 2110889 2148048 2184079 2217048 2245157 2267006 2282361 
1823.467 2291321 2295418 2296984 2299482 2306977 2322733 2347518 2379100 
1827.324 2412451 2440173 2455434 2455101 2441306 2422413 2409919 2414517 
1831.181 2441306 2488790 2549445 2614542 2677248 2734361 2786547 2837338 
1835.039 2890436 2947644 3008463 3070692 3132830 3195143 3260871 3334288 
1838.896 3419673 3518537 3629517 3748180 3868781 3986439 4097974 4202312 
1842.754 4301387 4399212 4500709 4610770 4732615 4866222 5007880 5150625 
1846.611 5285971 5404818 5499101 5564440 5599546 5606964 5590686 5554842 
1850.469 5501551 5430685 5340677 5230868 5103217 4962566 4815796 4669310 
1854.326 4527628 4391514 4259559 4129483 4000316 3873260 3751322 3636768 
1858.183 3530696 3431596 3336625 3243412 3151753 3063585 2982406 2911217 
1862.041 2850211 2797051 2747599 2697985 2647277 2597208 2551078 2512118 
1865.898 2480859 2454501 2428111 2397091 2360011 2320002 2283627 2257514 
1869.756 2246090 2248721 2260578 2275766 2289822 2300481 2307876 2312906 
1873.613 2315371 2313539 2304845 2286492 2257947 2220811 2178351 2134096 
1877.470 2090146 2046067 2000262 1951167 1898948 1845738 1795229 1750216 
1881.328 1711527 1677032 1642807 1605658 1564687 1521692 1480896 1446719 
1885.185 1421022 1403038 1389110 1374651 1356968 1335298 1311169 1287274 
1889.043 1266106 1248593 1235269 1226197 1222443 1225633 1236930 1255505 
1892.900 1278368 1300036 1315556 1322136 1320874 1316121 1314094 1319511 
1896.758 1333536 1353578 1374485 1392002 1404002 1411747 1418196 1426441 
1900.615 1437278 1448914 1458289 1462544 1461746 1458721 1457491 1461414 
1904.472 1472019 1487047 1503172 1516971 1526580 1533064 1538451 1544469 
1908.330 1550787 1555010 1554545 1547296 1534161 1518234 1504137 1495858 
1912.187 1494395 1499182 1508160 1519199 1531801 1546199 1561395 1574663 
1916.045 1580915 1574165 1550854 1512283 1465536 1422119 1391902 1379836 
1919.902 1383459 1394994 1403537 1400844 1384058 1356403 1324762 1296712 
1923.760 1276441 1264311 1257433 1252814 1249657 1249557 1254807 1266571 
1927.617 1282755 1298175 1307679 1308244 1301332 1292159 1287806 1293190 
1931.474 1308676 1329880 1350022 1363283 1367106 1363283 1355140 1346299 
1935.332 1337425 1327122 1313196 1295150 1275876 1260689 1254076 1257765 
1939.189 1267402 1275942 1275676 1262683 1239256 1214069 1197822 1197490 
1943.047 1214236 1241183 1269130 1289700 1300135 1303725 1306782 1314924 
1946.904 1330545 1351285 1373122 1393033 1411714 1432923 1460782 1496290 
1950.761 1533829 1564986 1579053 1570606 1541144 1499615 1457125 1423249 
1954.619 1400179 1382363 1359727 1322602 1268166 1200646 1131675 1072546 
1958.476 1032091 1011599 1006120 1007614 1010636 1012662 1015120 1020500 
1962.334 1028903 1037771 1043018 1040527 1029966 1013360 994396 976596 
1966.191 960390 943156 922536 897799 871902 850123 836545 831266 829341 
1970.531 823133 805008 773008 732581 694049 669359 665874 684657 721529 
1974.870 770320 828312 898563 987987 1101877 1238558 1387249 1528609 1644171 
1979.210 1720242 1753010 1747854 1716018 1668717 1614404 1557139 1499182 
1983.067 1442497 1391105 1349822 1323399 1312365 1313662 1321738 1331376 
1986.925 1340416 1351085 1367970 1393731 1427205 1461347 1486814 1495459 
1990.782 1484853 1459951 1431959 1414041 1414706 1436480 1474413 1520828 
1994.640 1567381 1609549 1645667 1676134 1700350 1717215 1724201 1720276 
1998.497 1707568 1692101 1679527 1674305 1675336 1675502 1664792 1634193 
2002.354 1579618 1504569 1418496 1331276 1252083 1184632 1128851 1082611 
2006.212 1047403 1027043 1028272 1055474 1106893 1174232 1244772 1305320 
2010.069 1348127 1372823 1385022 1393332 1404634 1420989 1440569 1460416 
2013.927 1477638 1493364 1510321 1530038 1552284 1572668 1585804 1587899 
2017.784 1580616 1569941 1565153 1574032 1598640 1635789 1677299 1714787 
2021.642 1743229 1762824 1776731 1788941 1801617 1812231 1817888 1815925 
2025.499 1807507 1797026 1790871 1793067 1803514 1817388 1828768 1833759 
2029.356 1834624 1838517 1856253 1896319 1961518 2047965 2146883 2248721 
2033.214 2347818 2441872 2532548 2622242 2710621 2795484 2873925 2943841 
2037.071 3006161 3063551 3118246 3170043 3214771 3245348 3256398 3246316 
2040.929 3219644 3185697 3156660 3139939 3139571 3152588 3172613 3194409 
2044.786 3216273 3240107 3271354 3314956 3372320 3441181 3516232 3590661 
2048.644 3659690 3719138 3766328 3799217 3816532 3817702 3805635 3786884 
2052.501 3769670 3764056 3776957 3809746 3858150 3913379 3966041 4009312 
2056.358 4041484 4065296 4085397 4106135 4128246 4150123 4169392 4184513 
2060.216 4196523 4208635 4223490 4241758 4260696 4274918 4278899 4270300 
2064.073 4250625 4225196 4200404 4181034 4168455 4160025 4151227 4138883 
2067.931 4122225 4103025 4084562 4069578 4058540 4050112 4042152 4033791 
2071.788 4026133 4022020 4024127 4033758 4048942 4065865 4080447 4090482 
2075.646 4096603 4102088 4110383 4124131 4143064 4164608 4185818 4204954 
2079.503 4222386 4240119 4260563 4284320 4309351 4332944 4351686 4365140 
2083.360 4375147 4385690 4400919 4422342 4448016 4473625 4493411 4503187 
2087.218 4501580 4490097 4471182 4447682 4420869 4390644 4357208 4322135 
2091.075 4288737 4261700 4245238 4240855 4247045 4259659 4273646 4285793 
2094.933 4295598 4304231 4314505 4327589 4342382 4356371 4366612 4371666 
2098.790 4372737 4373775 4377925 4388502 4405840 4428333 4454042 4482196 
2102.647 4513800 4551233 4597040 4651693 4713522 4779178 4844878 4907773 
2106.505 4967459 5024506 5079515 5132218 5180937 5223759 5260347 5292176 
2110.362 5323872 5359999 5403812 5455313 5511014 5564507 5610522 5646338 
2114.220 5673159 5695382 5718279 5745474 5777775 5813167 5848596 5881543 
2118.077 5911569 5939885 5968438 5998201 6028606 6057870 6084481 6108608 
2121.935 6132703 6160361 6195045 6237967 6287180 6338482 6387438 6430816 
2125.792 6468549 6502820 6536422 6570935 6606089 6638891 6666884 6688149 
2129.649 6703325 6715809 6730043 6749595 6776485 6810310 6849556 6892610 
2133.507 6939069 6988059 7039512 7091274 7140112 7183195 7219039 7248249 
2137.364 7274361 7301182 7330599 7361097 7388361 7406157 7410269 7400158 
2141.222 7378857 7352672 7327162 7304787 7283660 7259502 7227091 7183936 
2145.079 7131590 7072784 7011730 6949978 6884834 6811857 6727014 6628394 
2148.937 6518931 6403813 6288155 6174375 6060558 5941531 5811353 5667284 
2152.794 5509202 5341013 5167055 4989714 4809832 4628284 4449087 4284019 
2156.651 4150992 4072588 4067270 4141158 4283551 4469909 4670315 4857275 
2160.509 5014718 5138421 5231103 5297709 5341684 5363488 5362817 5342053 
2164.366 5306464 5264606 5224496 5192036 5166451 5143148 5114918 5076431 
2168.224 5024707 4960857 4887634 4808057 4722800 4632102 4536467 4437974 
2172.081 4342348 4257518 4190401 4146041 4124399 4121856 4131591 4146476 
2175.938 4160895 4170228 4169693 4155843 4124465 4073992 4006403 3929394 
2179.796 3854038 3793301 3757438 3750620 3769737 3806203 3848656 3887703 
2183.653 3917425 3935380 3941766 3938489 3926017 3906158 3881284 3854640 
2187.511 3831507 3816398 3810816 3813557 3819941 3824387 3823050 3815696 
2191.368 3804365 3794404 3789892 3791229 3796610 3802861 3806638 3807908 
2195.226 3809512 3814827 3826961 3846249 3869750 3893553 3914817 3932236 
2199.083 3947717 3963667 3981155 3998511 4011954 4016000 4008309 3989649 
2202.940 3964637 3940528 3923543 3916622 3918829 3926620 3935714 3943638 
2206.798 3951061 3959587 3971124 3985703 4000784 4012322 4017104 4013793 
2210.655 4004563 3993528 3985970 3985469 3993461 4010114 4034828 4066534 
2214.513 4104831 4148550 4195721 4241323 4280840 4309518 4325816 4331672 
2218.370 4332141 4332911 4338499 4350146 4365675 4381239 4392485 4398141 
2222.228 4398945 4397572 4396970 4398443 4401455 4404300 4405840 4404802 
2226.085 4403162 4402258 4403129 4405907 4408718 4410024 4409287 4407848 
2229.942 4409087 4416216 4431614 4454443 4482129 4510151 4534726 4553677 
2233.800 4567271 4577216 4586023 4595868 4607521 4621553 4638900 4660066 
2237.657 4686458 4718547 4755259 4794187 4832582 4867528 4898155 4925802 
2241.515 4952512 4980329 5009556 5038987 5065435 5086790 5102178 5113309 
2245.372 5123802 5136979 5154984 5177818 5202699 5226207 5245926 5260817 
2249.229 5272086 5281543 5290566 5299454 5307805 5314950 5321256 5328736 
2253.087 5339872 5356880 5379959 5406596 5432262 5451655 5460681 5457896 
2256.944 5444106 5422432 5395626 5366809 5337390 5308812 5281946 5258301 
2260.802 5239453 5226341 5218896 5216012 5215744 5217186 5220304 5226944 
2264.659 5239185 5258402 5283857 5312468 5339470 5359999 5371439 5373820 
2268.517 5369459 5362448 5356209 5352921 5352820 5355169 5358926 5363891 
2272.374 5370231 5378450 5388279 5399182 5409247 5417433 5423707 5429041 
2276.231 5435852 5446622 5462459 5483431 5507994 5533296 5557157 5577898 
2280.089 5594378 5606629 5614651 5618612 5619216 5617739 5616195 5617269 
2283.946 5623512 5635596 5652682 5672084 5690078 5703339 5709953 5709885 
2287.804 5704716 5696725 5687997 5679571 5672118 5665874 5661141 5658858 
2291.661 5659966 5664632 5672320 5681081 5688534 5693066 5694006 5692428 
2295.519 5690548 5690716 5694174 5701056 5709986 5718883 5726068 5730365 
2299.376 5731440 5729324 5724188 5715727 5703306 5686688 5665975 5641873 
2303.233 5616195 5589713 5563400 5537122 5510779 5484135 5457661 5432665 
2307.091 5410790 5393512 5381335 5374189 5370868 5370298 5371740 5375061 
2310.948 5380093 5386467 5393345 5398578 5400390 5397572 5390091 5379054 
2314.806 5366708 5354297 5342187 5329306 5313507 5292444 5265612 5233585 
2318.663 5199178 5165647 5136510 5113811 5098390 5089103 5083638 5078979 
2322.521 5071033 5055613 5029065 4988373 4932370 4862637 4783634 4701095 
2326.378 4621787 4551601 4493377 4447447 4411932 4383180 4358379 4336759 
2330.235 4318420 4305268 4298777 4299111 4305001 4314170 4323841 4332442 
2334.093 4339370 4345427 4351853 4360053 4370930 4385088 4402760 4423547 
2337.950 4447113 4472052 4496826 4519224 4538107 4552873 4564659 4575575 
2341.808 4588300 4605010 4626677 4654038 4687697 4729969 4784840 4857510 
2345.665 4952411 5071101 5210311 5362415 5515343 5657247 5776398 5863809 
2349.522 5914088 5925744 5900854 5844230 5763370 5666814 5562493 5457527 
2353.380 5356846 5262996 5177013 5098624 5027121 4962734 4906064 4858951 
2357.237 4823535 4802060 4795125 4802495 4822229 4851512 4887265 4926942 
2361.095 4968599 5011836 5056619 5103821 5154112 5208601 5267793 5331721 
2364.952 5399853 5471284 5544908 5619820 5695752 5772704 5851585 5933335 
2368.810 6018224 6105887 6195448 6285768 6376275 6467069 6558993 6653695 
2372.667 6752321 6855110 6961695 7070966 7181612 7293364 7406966 7523260 
2376.524 7644239 7770851 7903305 8040928 8182445 8326135 8470347 8613727 
2380.382 8754889 8892784 9026391 9154355 9276026 9391061 9499421 9601271 
2384.239 9696842 9785690 9867303 9941099 10006466 10063874 10114131 10158461 
2388.097 10198317 10234750 10268438 10299413 10327881 10353873 10377560 
2391.472 10399313 10419132 10436713 10451715 10463662 10472928 10480396 
2394.847 10487897 10497401 10510572 10528225 10550426 10576433 10605495 
2398.222 10637277 10672185 10711068 10754847 10803929 10857908 10916210 
2401.598 10977407 11040925 11106049 11173325 11243094 11316002 11392495 
2404.973 11473185 11558756 11649961 11747685 11852243 11963160 12079046 
2408.348 12197893 12317421 12436572 12555415 12675245 12797941 12925212 
2411.723 13057061 13192503 13328704 13462453 13590739 13711472 13823412 
2415.099 13926246 14019934 14104024 14178441 14243010 14297624 14343479 
2418.474 14382110 14414854 14443490 14469456 14492854 14514608 14535233 
2421.849 14555311 14575664 14597114 14620005 14644885 14672302 14703011 
2425.224 14738830 14782296 14835676 14901543 14981413 15075431 15183058 
2428.600 15303101 15433923 15574127 15722997 15879378 16042519 16211741 
2431.975 16386464 16566662 16752617 16945060 17144516 17351478 17565992 
2435.350 17787756 18016438 18251876 18494148 18743854 19001182 19265762 
2438.725 19537090 19813510 20093890 20376882 20661762 20948182 21235734 
2442.101 21523892 21812000 22099112 22385054 22670310 22955826 23242926 
2445.476 23532664 23824944 24118958 24413138 24705694 24995252 25281034 
2448.851 25562896 25840790 26114146 26381898 26642630 26895060 27138182 
2452.226 27372266 27597966 27816010 28027380 28232382 28430760 28622326 
2455.602 28806754 28983964 29153556 29314918 29465952 29604410 29727160 
2458.977 29831170 29914366 29975780 30015578 30035178 30036490 30021010 
2462.352 29990902 29947910 29893884 29831170 29761898 29689162 29615726 
2465.727 29545214 29481380 29428722 29392310 29376640 29386106 29423544 
2469.103 29489818 29584690 29706440 29853278 30023388 30216228 30431114 
2472.478 30667656 30924284 31198476 31485878 31781562 32080374 32377358 
2475.853 32669112 32952488 33225528 33486392 33733340 33963984 34176184 
2479.228 34367004 34533292 34672588 34782812 34863012 34913604 34936552 
2482.604 34934756 34911992 34871956 34817776 34751620 34674672 34587684 
2485.979 34490744 34384288 34268824 34145356 34014508 33877144 33733520 
2489.354 33583612 33427130 33263120 33090380 32907986 32714878 32509998 
2492.729 32292760 32062824 31819676 31563084 31292404 31007122 30706202 
2496.104 30389074 30056020 29707470 29344838 28970114 28584918 28191474 
2499.480 27791460 27386734 26979106 26571084 26165416 25764628 25371022 
2502.855 24986056 24609708 24241322 23879480 23523186 23172076 22827048 
2506.230 22490004 22163474 21850430 21552828 21272410 21009908 20765290 
2509.605 20538594 20328790 20134842 19955378 19788610 19632550 19485590 
2512.981 19347132 19216788 19095382 18983702 18882396 18792012 18712026 
2516.356 18642294 18582634 18533150 18494528 18467526 18452450 18448510 
2519.731 18454490 18468354 18488544 18513890 18544042 18579106 18619434 
2523.106 18664948 18715072 18768832 18825368 18883678 18943168 19003328 
2526.482 19063044 19120208 19172460 19216788 19250662 19272446 19281868 
2529.857 19279618 19266940 19244912 19214364 19175230 19127168 19070038 
2533.232 19003848 18929532 18848136 18761186 18670414 18577414 18484154 
2536.607 18392922 18305786 18224922 18151640 18086210 18028318 17976410 
2539.983 17929344 17885976 17845994 17809538 17776574 17747094 17720104 
2543.358 17694254 17668474 17641212 17612262 17581828 17550536 17518832 
2546.733 17487024 17454806 17421350 17386378 17349548 17311340 17272274 
2550.108 17233282 17194948 17157580 17121354 17086200 17052462 17020794 
2553.484 16991574 16965422 16942684 16923252 16907026 16893628 16882602 
2556.859 16873508 16865862 16859042 16851946 16843540 16832484 16817536 
2560.234 16797388 16770869 16737362 16696455 16648285 16594132 16536096 
2563.609 16477035 16420219 16368778 16324569 16288068 16258417 16233753 
2566.985 16211534 16189797 16167581 16145021 16123839 16105544 16092718 
2570.360 16087148 16089726 16100626 16119024 16143542 16172087 16203107 
2573.735 16235130 16267290 16299592 16332343 16366094 16400743 16435567 
2577.110 16469568 16501369 16530383 16556749 16581843 16607972 16637612 
2580.486 16672524 16713774 16761193 16813714 16869754 16927938 16987440 
2583.861 17047914 17109328 17172196 17236452 17302376 17369826 17438872 
2587.236 17509552 17581690 17655394 17730596 17807296 17885802 17966292 
2590.611 18049042 18133952 18220430 18306754 18391642 18473160 18550196 
2593.987 18622406 18690302 18755096 18817894 18879558 18940192 18999832 
2597.362 19057990 19114458 19169968 19225100 19280726 19337640 19396468 
2600.737 19457140 19520314 19586550 19656608 19731324 19811256 19896058 
2604.112 19984832 20076158 20168612 20262058 20356984 20454674 20557042 
2607.488 20665654 20781312 20903712 21031642 21163854 21298542 21434838 
2610.863 21571352 21707526 21842660 21976026 22107094 22235694 22361818 
2614.238 22485678 22607442 22726764 22843078 22955056 23061544 23161452 
2617.613 23254462 23340672 23420712 23495554 23565966 23632542 23695802 
2620.989 23756062 23813566 23868838 23922154 23973870 24024258 24073322 
2624.364 24121376 24168384 24214660 24260452 24305898 24350824 24394842 
2627.739 24437674 24478898 24518442 24556622 24594208 24631764 24669884 
2631.114 24708780 24748450 24788474 24828328 24867518 24905518 24941734 
2634.490 24975808 25007396 25036494 25063100 25088024 25112070 25136190 
2637.865 25161118 25187872 25216102 25245986 25277102 25309308 25342640 
2641.240 25377696 25414968 25455230 25499046 25546904 25598356 25653608 
2644.615 25712032 25773136 25836710 25902614 25971236 26043002 26118402 
2647.990 26197864 26281424 26368978 26459296 26551430 26644110 26736284 
2651.366 26827312 26917374 27006642 27095894 27185942 27277276 27370500 
2654.741 27465898 27563718 27663820 27766522 27871548 27979176 28089554 
2658.116 28202858 28319730 28440488 28565066 28693114 28823712 28955202 
2661.491 29086128 29215500 29342640 29468224 29593238 29718964 29846466 
2664.867 29975920 30106978 30238926 30371024 30502660 30634162 30766022 
2668.242 30898776 31032994 31168570 31305652 31443808 31583432 31724810 
2671.617 31868912 32016556 32168176 32323920 32482930 32644644 32807990 
2674.992 32972184 33137116 33302188 33467568 33632940 33798128 33963056 
2678.368 34128080 34293348 34459716 34627944 34799220 34974112 35153860 
2681.743 35339104 35530724 35729080 35934656 36147276 36366920 36592772 
2685.118 36824720 37062208 37305600 37555204 37811272 38073608 38341816 
2688.493 38615156 38892800 39174132 39459172 39748464 40042160 40340972 
2691.869 40644820 40953112 41265696 41582232 41902824 42228112 42558980 
2695.244 42895620 43238304 43586496 43939772 44297556 44659712 45026320 
2698.619 45397804 45773912 46154212 46537836 46923308 47309644 47696064 
2701.994 48082236 48468048 48853128 49236916 49618112 49995288 50367104 
2705.370 50732604 51091076 51442156 51785348 52119652 52444240 52757464 
2708.745 53058528 53346796 53622248 53885268 54136252 54375628 54603564 
2712.120 54820264 55026168 55221972 55408636 55586804 55756524 55917116 
2715.495 56066948 56203744 56325532 56430452 56517544 56586692 56638216 
2718.871 56673360 56693444 56700504 56697372 56687440 56674836 56663960 
2722.246 56659128 56664072 56681552 56713568 56761296 56825604 56906696 
2725.621 57005180 57121416 57255596 57408044 57578632 57767376 57973808 
2728.996 58197348 58436624 58689836 58954848 59228640 59508612 59792484 
2732.372 60078448 60365400 60652392 60938736 61223432 61504880 61781356 
2735.747 62050708 62311200 62561020 62799416 63026072 63241572 63447288 
2739.122 63645088 63836948 64024896 64210704 64395396 64580128 64765824 
2742.497 64953564 65145464 65343804 65551252 65770248 66002472 66248476 
2745.873 66507904 66779204 67060216 67348264 67639904 67931240 68217648 
2749.248 68493664 68753976 68993544 69208144 69395208 69553888 69684344 
2752.623 69787832 69865816 69920144 69952064 69962808 69952992 69922400 
2755.998 69870056 69794016 69691616 69560072 69396920 69200640 68970320 
2759.374 68706384 68409416 68080312 67719984 67329568 66910720 66466168 
2762.749 65999656 65516032 65020680 64519160 64017104 63519388 63030900 
2766.124 62556348 62100092 61666200 61258344 60878804 60529232 60209972 
2769.499 59921296 59663144 59435504 59238552 59072664 58937732 58832472 
2772.875 58755192 58702468 58670912 58656156 58654376 58661280 58672884 
2776.250 58684908 58693248 58693708 58682100 58654944 58609096 58542360 
2779.625 58453304 58341456 58207240 58052008 57878552 57690400 57491968 
2783.000 57287688 57081996 56878632 56680536 56489128 56304940 56127008 
2786.375 55953408 55780636 55605180 55422604 55228972 55021280 54797484 
2789.751 54557164 54301468 54032488 53753100 53466588 53176892 52887308 
2793.126 52602036 52324992 52059624 51809388 51576836 51363872 51171884 
2796.501 51002120 50855736 50734096 50638848 50571428 50533048 50524040 
2799.876 50543616 50590672 50663008 50758636 50875520 51011584 51165212 
2803.252 51334480 51517584 51711924 51915124 52124772 52338108 52552860 
2806.627 52766968 52978336 53184868 53384448 53574716 53752692 53915844 
2810.002 54060332 54182724 54279916 54348292 54385620 54389976 54360832 
2813.377 54298692 54204944 54082064 53933364 53762740 53575500 53376768 
2816.753 53172356 52968380 52771120 52586520 52421468 52281712 52173344 
2820.128 52101576 52069820 52079944 52131572 52222104 52347080 52500620 
2823.503 52677520 52871628 53077960 53291952 53509048 53724340 53933216 
2826.878 54129988 54309768 54467948 54600560 54705172 54780684 54827296 
2830.254 54846732 54841732 54816280 54774704 54721524 54661168 54596764 
2833.629 54530828 54464864 54400152 54337928 54279616 54227584 54183700 
2837.004 54150740 54130552 54125220 54136932 54168044 54222064 54302936 
2840.379 54415816 54566596 54761552 55007780 55313112 55685856 56136020 
2843.755 56674720 57312644 58060568 58926312 59912168 61012668 62211580 
2847.130 63480960 64777516 66047640 67229456 68255376 69064744 69608064 
2850.505 69852504 69788728 69428408 68804408 67961464 66954324 65841116 
2853.880 64674296 63502820 62367236 61296572 60311376 59422168 58630860 
2857.256 57932576 57318124 56776284 56294300 55860700 55465104 55097368 
2860.631 54748848 54411232 54076804 53739040 53392844 53035012 52664352 
2864.006 52281296 51888088 51488000 51085896 50688108 50301624 49934512 
2867.381 49595492 49291552 49029068 48812640 48644240 48523880 48449340 
2870.757 48416188 48417856 48446232 48492168 48545372 48596916 48639164 
2874.132 48667180 48679004 48675036 48657356 48628860 48592172 48549148 
2877.507 48501280 48449380 48394184 48336628 48277820 48218580 48160232 
2880.882 48103448 48049372 47999004 47953820 47915376 47885036 47863840 
2884.258 47852444 47851040 47859772 47878344 47907536 47948048 48000372 
2887.633 48064692 48140464 48226652 48321076 48421632 48526292 48633196 
2891.008 48741128 48849272 48957668 49066532 49176764 49289396 49405960 
2894.383 49527860 49656076 49791644 49934660 50085488 50244144 50410936 
2897.759 50586056 50770032 50962772 51164056 51373268 51589780 51813232 
2901.134 52043448 52280776 52525600 52778716 53039884 53309636 53588324 
2904.509 53877132 54178560 54495932 54833764 55196724 55589776 56017900 
2907.884 56485808 56999252 57565200 58190832 58884188 59653112 60502264 
2911.260 61433004 62440836 63514932 64636648 65779464 66912540 67998040 
2914.635 68996728 69873240 70595496 71142024 71503144 71681304 71689864 
2918.010 71549704 71286544 70925184 70486712 69986936 69434672 68832280 
2921.385 68177720 67467256 66697752 65869876 64989200 64067096 63120356 
2924.760 62167300 61227516 60318152 59451992 58637688 57878816 57175232 
2928.136 56523884 55919528 55356468 54827972 54328092 53852488 53398272 
2931.511 52965124 52555252 52172932 51823612 51512848 51245664 51025224 
2934.886 50853092 50728996 50650536 50613976 50613604 50642680 50693584 
2938.261 50758264 50830336 50904688 50978832 51052652 51127452 51205252 
2941.637 51287572 51374760 51465544 51556872 51644336 51722412 51784188 
2945.012 51821708 51826860 51792216 51711960 51584072 51411196 51201372 
2948.387 50966200 50721140 50482164 50262932 50074784 49924252 49813760 
2951.762 49741856 49704256 49695340 49708568 49737212 49775520 49818104 
2955.138 49860508 49899608 49932800 49958412 49975920 49985328 49987408 
2958.513 49983916 49977108 49969268 49962652 49958972 49959120 49963208 
2961.888 49971536 49983432 49998856 50017780 50040124 50065520 50093484 
2965.263 50123196 50153504 50183852 50213868 50243480 50272900 50302028 
2968.639 50330564 50358060 50384368 50409560 50434680 50461436 50491916 
2972.014 50527500 50569004 50616100 50667664 50722180 50778228 50835028 
2975.389 50891984 50948800 51004392 51056676 51102220 51136848 51155412 
2978.764 51153544 51126968 51073520 50992096 50883604 50751040 50598304 
2982.140 50430920 50254820 50075076 49895780 49718784 49543716 49367792 
2985.515 49186780 48996052 48791248 48569644 48330260 48073984 47802768 
2988.890 47518708 47223380 46916592 46596628 46260016 45903044 45522744 
2992.265 45118216 44691408 44247256 43793260 43337396 42886988 42447092 
2995.641 42019208 41601556 41189588 40778012 40361368 39935900 39500324 
2999.016 39055936 38605560 38153260 37703240 37259208 36823636 36398448 
3002.391 35984328 35581572 35190148 34809736 34440132 34081128 33732376 
3005.766 33393528 33064206 32744280 32433622 32132570 31841424 31560876 
3009.142 31290728 31030896 30780106 30537034 30299748 30066638 29836492 
3012.517 29608952 29384296 29163192 28946418 28734212 28526780 28323866 
3015.892 28125150 27930764 27741198 27557046 27379146 27207636 27042080 
3019.267 26881946 26726418 26575170 26428552 26287336 26152676 26025094 
3022.643 25904688 25790540 25682010 25578428 25480492 25390132 25310608 
3026.018 25245110 25196510 25165856 25151778 25150724 25156834 25163470 
3029.393 25163082 25148512 25113614 25053798 24966298 24850642 24708744 
3032.768 24544210 24361898 24167472 23966272 23762572 23559984 23360672 
3036.144 23165960 22976226 22791500 22611038 22434038 22259584 22086736 
3039.519 21915384 21745774 21578944 21416460 21259778 21109934 20967412 
3042.894 20832132 20703392 20580630 20463462 20351532 20244806 20143068 
3046.269 20045654 19952012 19861234 19772798 19686700 19602980 19522220 
3049.645 19444734 19370656 19299396 19230158 19162036 19094274 19026590 
3053.020 18958848 18891290 18824260 18758280 18693902 18631640 18572052 
3056.395 18516034 18463652 18414770 18369278 18326384 18285706 18247278 
3059.770 18211686 18179658 18152434 18130702 18114398 18103412 18097332 
3063.146 18095710 18098612 18106452 18119786 18138512 18161934 18188538 
3066.521 18216146 18242336 18264730 18281560 18291478 18293344 18286604 
3069.896 18270708 18245310 18210410 18166702 18115606 18058644 17998410 
3073.271 17936594 17875410 17816580 17760936 17709440 17662090 17618576 
3076.646 17577930 17538666 17499270 17458050 17414246 17367308 17317788 
3080.022 17266758 17214872 17163268 17112324 17062248 17012936 16964458 
3083.397 16916950 16870548 16825526 16781994 16740151 16700380 16662849 
3086.772 16628455 16597781 16571792 16551103 16536027 16526219 16521091 
3090.147 16519712 16520953 16523775 16527079 16529625 16530728 16529832 
3093.523 16527044 16523017 16518990 16516615 16517235 16521607 16530177 
3096.898 16542567 16558057 16575750 16595200 16615614 16636787 16658098 
3100.273 16679239 16699933 16720111 16740048 16760606 16782614 16806514 
3103.648 16832312 16859420 16886702 16913126 16937998 16961150 16982822 
3107.024 17003564 17023620 17043020 17061526 17078758 17094886 17110430 
3110.399 17126524 17144860 17166610 17192706 17223214 17257622 17294894 
3113.774 17333858 17373102 17411108 17446598 17477884 17504100 17524662 
3117.149 17539634 17549846 17556676 17561126 17564130 17565784 17566028 
3120.525 17564404 17560850 17556020 17550778 17546500 17544430 17544670 
3123.900 17547466 17552260 17558368 17565474 17573686 17582898 17593526 
3127.275 17605256 17617506 17629756 17641246 17651842 17661710 17671614 
3130.650 17682312 17694702 17709370 17726350 17745748 17767460 17790932 
3134.026 17815994 17842024 17868402 17894538 17920434 17945848 17971024 
3137.401 17996580 18022586 18049388 18076952 18105002 18133432 18162730 
3140.776 18193480 18226546 18262588 18301674 18343424 18386630 18429980 
3144.151 18472468 18513442 18552998 18591730 18630154 18669100 18708846 
3147.527 18749492 18791356 18834296 18878208 18923164 18968782 19014786 
3150.902 19060448 19105562 19150124 19194382 19239058 19284536 19331092 
3154.277 19378590 19426368 19473910 19520660 19566480 19611924 19657650 
3157.652 19704314 19752822 19803348 19855996 19910834 19967694 20026328 
3161.028 20086914 20149002 20212590 20277474 20343790 20412026 20482636 
3164.403 20556312 20633060 20712496 20793582 20874822 20954580 21031260 
3167.778 21104022 21172066 21235386 21294018 21348482 21399682 21448414 
3171.153 21496388 21545028 21596076 21650576 21708848 21770540 21834368 
3174.529 21898934 21962956 22025172 22085410 22143356 22199250 22253654 
3177.904 22306740 22359412 22412160 22465858 22521202 22578962 22639312 
3181.279 22702324 22767790 22835430 22905280 22977134 23050888 23126574 
3184.654 23203742 23282044 23360986 23440400 23520282 23600984 23682750 
3188.030 23765932 23850390 23935738 24021596 24107820 24194516 24282386 
3191.405 24372202 24464770 24560162 24658136 24757676 24857624 24957104 
3194.780 25055272 25152092 25248128 25344010 25440686 25538718 25638776 
3198.155 25740966 25845150 25950660 26057110 26163798 26270370 26376758 
3201.531 26483384 26590564 26699248 26809514 26921956 27036402 27152678 
3204.906 27270608 27390440 27511786 27634264 27756986 27878400 27997094 
3208.281 28111504 28221174 28326378 28428848 28530920 28634252 28740514 
3211.656 28850164 28962710 29077484 29193352 29310062 29427374 29545356 
3215.031 29663796 29782160 29899990 30016574 30132122 30247028 30361750 
3218.407 30477284 30593736 30710720 30827270 30942324 31055202 31166152 
3221.782 31276166 31386706 31499024 31613686 31731050 31850300 31971152 
3225.157 32092966 32215674 32339592 32464470 32589924 32714840 32837972 
3228.532 32958244 33074684 33187650 33297822 33406518 33514742 33623420 
3231.908 33732448 33841828 33950692 34058764 34165608 34271476 34376436 
3235.283 34480880 34585424 34690100 34794984 34900032 35005144 35110032 
3238.658 35214796 35319732 35424944 35531264 35638828 35747752 35857748 
3242.033 35967624 36076776 36184188 36289936 36394592 36499528 36606216 
3245.409 36716244 36830564 36949596 37073144 37200656 37331816 37466340 
3248.784 37603832 37743756 37885820 38028796 38172000 38314748 38457068 
3252.159 38598824 38740876 38883448 39026828 39170944 39315396 39460008 
3255.534 39604992 39750896 39897828 40046448 40196356 40347224 40498108 
3258.910 40648208 40797120 40945208 41092656 41239972 41387304 41534684 
3262.285 41681824 41828792 41976176 42124668 42275516 42429552 42586972 
3265.660 42747484 42909956 43073512 43237352 43401548 43566500 43732828 
3269.035 43901464 44072288 44244908 44418512 44591744 44763944 44934372 
3272.411 45102924 45269772 45435292 45600132 45765184 45931332 46099496 
3275.786 46270560 46444904 46622708 46803392 46986552 47171632 47358232 
3279.161 47546728 47737448 47930548 48126396 48324816 48525624 48728376 
3282.536 48933076 49139736 49348936 49561136 49776892 49996220 50219076 
3285.912 50445060 50673772 50904688 51137408 51371664 51607540 51845152 
3289.287 52084688 52326968 52572492 52821672 53074588 53331736 53592932 
3292.662 53858564 54129160 54405260 54688072 54977840 55274652 55577688 
3296.037 55885760 56197108 56510940 56826588 57144240 57464468 57787700 
3299.413 58114504 58444432 58777120 59112224 59449640 59790396 60135412 
3302.788 60486460 60845032 61212520 61589640 61976712 62373772 62780044 
3306.163 63194856 63616888 64044936 64478024 64915776 65358980 65808996 
3309.538 66267432 66735848 67214792 67703720 68201248 68705840 69216456 
3312.914 69733552 70257840 70790688 71333632 71886728 72449520 73020648 
3316.289 73599096 74184080 74775648 75374488 75980736 76594600 77214784 
3319.664 77840064 78468744 79099456 79731280 80363936 80996920 81629920 
3323.039 82262392 82894184 83525368 84156552 84788088 85420256 86052136 
3326.415 86681384 87304936 87919560 88522592 89112104 89687704 90249144 
3329.790 90796488 91329224 91845880 92344776 92824232 93282328 93717672 
3333.165 94128512 94512608 94867512 95190864 95480896 95737824 95963080 
3336.540 96159344 96329064 96473984 96593944 96687288 96751904 96785568 
3339.916 96786856 96755640 96691760 96594984 96464464 96298992 96096960 
3343.291 95857256 95579448 95263192 94908944 94516064 94083576 93610704 
3346.666 93097496 92545200 91957528 91338872 90694160 90027360 89341064 
3350.041 88636200 87912664 87170368 86409576 85631704 84838392 84031520 
3353.417 83212912 82383664 81545592 80700640 79851480 79001512 78154000 
3356.792 77311968 76477736 75652672 74837688 74033608 73241488 72462592 
3360.167 71698272 70949056 70215392 69496256 68790888 68098176 67417256 
3363.542 66747712 66089532 65442988 64808136 64185424 63575460 62979296 
3366.917 62397760 61832316 61283220 60750320 60232768 59729176 59238020 
3370.293 58758648 58290560 57833692 57388380 56953876 56529132 56112268 
3373.668 55701488 55295312 54893236 54495404 54103040 53716916 53338028 
3377.043 52966548 52602264 52244896 51893992 51549372 51210472 50876672 
3380.418 50546932 50219632 49893328 49567076 49240072 48912420 48584984 
3383.794 48258640 47934544 47613604 47296344 46983340 46674760 46371012 
3387.169 46071900 45777040 45485800 45197004 44909424 44622036 44334508 
3390.544 44046804 43759988 43474896 43193208 42916648 42646148 42382428 
3393.919 42124560 41871408 41620480 41369336 41115968 40859544 40601128 
3397.295 40343004 40088600 39840700 39600784 39368320 39140700 38914432 
3400.670 38686180 38453484 38216576 37976792 37736960 37499752 37266644 
3404.045 37037708 36812204 36588588 36365984 36144360 35924684 35708392 
3407.420 35497032 35291124 35090236 34892708 34696920 34500720 34303208 
3410.796 34103348 33901972 33700220 33499100 33300146 33103968 32910916 
3414.171 32720738 32532674 32345694 32158758 31971082 31782348 31592876 
3417.546 31403270 31214248 31026694 30841358 30658696 30479522 30304118 
3420.921 30133188 29966834 29804944 29647016 29492300 29339520 29187574 
3424.297 29035538 28883344 28730742 28578232 28426020 28274390 28123594 
3427.672 27973486 27823994 27675190 27527284 27380310 27234482 27089722 
3431.047 26945964 26802852 26660528 26518954 26378518 26239886 26103624 
3434.422 25970322 25840648 25714670 25592170 25472798 25355848 25240124 
3437.798 25124604 25008590 24890922 24771462 24649824 24526330 24401082 
3441.173 24274466 24146980 24019180 23891488 23764602 23638628 23513392 
3444.548 23388086 23261662 23132654 23000646 22865602 22728752 22592328 
3447.923 22458810 22329972 22206610 22088478 21973690 21860638 21747200 
3451.299 21632294 21515188 21396270 21275818 21154496 21032756 20911050 
3454.674 20789898 20669788 20551204 20434392 20318998 20204330 20089448 
3458.049 19973314 19855892 19737634 19619238 19501842 19386316 19272688 
3461.424 19160860 19050166 18940262 18830836 18722302 18614936 18508944 
3464.800 18404468 18300878 18197626 18094292 17990882 17887356 17784512 
3468.175 17681968 17579552 17476780 17372826 17267310 17160614 17052978 
3471.550 16945510 16838410 16731577 16624324 16515858 16405458 16293194 
3474.925 16179962 16067619 15957814 15851816 15749900 15651818 15556302 
3478.301 15461768 15366774 15270050 15170980 15068606 14963545 14856556 
3481.676 14749182 14643583 14542154 14446573 14357451 14274066 14194462 
3485.051 14116072 14036086 13952455 13864701 13773099 13678781 13582842 
3488.426 13486378 13389696 13293207 13197216 13102443 13009943 12920707 
3491.802 12835720 12754844 12677327 12601869 12526664 12450620 12373021 
3495.177 12293935 12213808 12133490 12053563 11974365 11895727 11817070 
3498.552 11738085 11658231 11577438 11495436 11412393 11328110 11242447 
3501.927 11155477 11067503 10979379 10892460 10808718 10729884 10657378 
3505.302 10591167 10530296 10471774 10413057 10350956 10283942 10211817 
3508.678 10136211 10060279 9986632 9917404 9853203 9793282 9735334 9677970 
3512.535 9619767 9560894 9502267 9444662 9388624 9333811 9278497 9221193 
3516.393 9161089 9097846 9033259 8969865 8910302 8857106 8811219 8772200 
3520.250 8737715 8705498 8671998 8634345 8590711 8540392 8483828 8422710 
3524.107 8359371 8296042 8234276 8175152 8118331 8063071 8008324 7953482 
3527.965 7898614 7845001 7793351 7745148 7700964 7660966 7624377 7590320 
3531.822 7557109 7523664 7488267 7449435 7405955 7356952 7302597 7244543 
3535.680 7184947 7126908 7073121 7024829 6982200 6943783 6907288 6871268 
3539.537 6834341 6797183 6760230 6724592 6690336 6656823 6622338 6585265 
3543.395 6544293 6498650 6449010 6396348 6342349 6288155 6235480 6185634 
3547.252 6139894 6099166 6063246 6031260 6000519 5967665 5929673 5884632 
3551.109 5832510 5775491 5717372 5661745 5611328 5566890 5527390 5490779 
3554.967 5455849 5421492 5388078 5356175 5325985 5296133 5264908 5229929 
3558.824 5189286 5143081 5092925 5041702 4992898 4948758 4910119 4876643 
3562.682 4846118 4815662 4782227 4742698 4693659 4632303 4556523 4466127 
3566.539 4364035 4256581 4152364 4059543 3984265 3928358 3889742 3863331 
3570.396 3842906 3823251 3800621 3772846 3740059 3702897 3662363 3619294 
3574.254 3574458 3527890 3480325 3432230 3384141 3336425 3288814 3241075 
3578.111 3193174 3144845 3096454 3049170 3003959 2962156 2924660 2892204 
3581.969 2865254 2844075 2828033 2816160 2805722 2792849 2772774 2740530 
3585.826 2692484 2627342 2547945 2460566 2373836 2296518 2234666 2190739 
3589.684 2163199 2148048 2139724 2133064 2123441 2107559 2084020 2052226 
3593.541 2013577 1970072 1925073 1881477 1841945 1807839 1779060 1754773 
3597.398 1733449 1712891 1691635 1668817 1644470 1619326 1594616 1572369 
3601.256 1553680 1539847 1531069 1526680 1525483 1525948 1525716 1522723 
3605.113 1514810 1499748 1475843 1442132 1398551 1346897 1290996 1235235 
3608.971 1184931 1143502 1111809 1087760 1067464 1046240 1019703 986692 
3612.828 947905 906963 868117 835117 809522 791132 776660 762586 745393 
3617.168 722359 692025 654791 612317 567492 523568 483993 451188 426379 
3621.507 409530 399581 395270 395071 398188 405053 415699 430458 447142 
3625.847 461205 466579 454538 417689 352424 263064 162917 70349 2551 -32304 
3630.669 -36545 -19879 6096 31014 47980 54740 53117 47549 42281 40491 42678 
3635.973 46787 49969 49803 44898 36150 25613 15208 6527 -662 -7289 -15175 
3641.277 -25578 -37837 -50095 -59339 -61956 -56059 -41614 -20708 2518 23095 
3646.098 36283 38867 28728 6560 -26572 -69012 -119431 -175508 -233995 
3650.438 -288932 -333134 -360481 -366738 -352336 -321380 -281614 -241976 
3654.295 -211343 -195645 -197301 -212668 -233366 -249262 -252043 -238598 
3658.153 -209886 -172064 -132350 -97900 -74180 -64308 -68548 -84549 -108566 
3662.492 -135662 -161299 -181006 -191373 -190280 -176237 -149077 -109957 
3666.350 -61558 -7024 49041 103721 156520 212507 283322 386979 543572 767664 
3671.172 1065073 1431693 1857152 2327863 2827299 3335223 3818571 4229512 
3675.029 4511892 4612344 4505631 4204720 3751856 3199549 2596309 1984851 
3678.886 1400013 872732 429132 82677 -165704 -329492 -429867 -489941 -528332 
3683.226 -555037 -573833 -584157 -585547 -580220 -573966 -574561 -589452 
3687.083 -623730 -677162 -743752 -814135 -878256 -928714 -962470 -980124 
3690.941 -984686 -978934 -966437 -949444 -930830 -912513 -896476 -883878 
3694.798 -874883 -869097 -865790 -864004 -863178 -862913 -863409 -865327 
3698.656 -869560 -877430 -890193 -909041 -933739 -963065 -993414 -1019165 
3702.513 -1035759 -1039429 -1029545 -1007662 -978174 -945510 -913604 -884671 
3706.371 -859705 -837846 -818566 -801832 -788701 -782153 -785328 -801501 
3710.228 -831762 -874751 -926466 -979265 -1026008 -1059195 -1074333 -1070499 
3714.085 -1049841 -1017050 -978174 -938600 -903420 -875214 -854646 -840426 
3717.943 -830042 -821476 -813605 -807421 -805073 -809174 -821146 -840492 
3721.800 -864500 -889664 -912446 -930268 -943294 -952949 -961875 -971661 
3725.658 -983066 -994439 -1002736 -1004092 -995364 -975463 -945873 -910066 
3729.515 -873759 -843005 -822865 -816648 -824089 -841451 -862814 -882324 
3733.373 -897997 -911223 -927028 -950105 -982967 -1022537 -1061376 -1089570 
3737.230 -1100311 -1091487 -1065607 -1027892 -983893 -937079 -889565 -841782 
3741.087 -795217 -754336 -727213 -724732 -756982 -827032 -924845 -1027429 
3744.945 -1105566 -1138516 -1124074 -1074333 -1008323 -943956 -895352 
3748.320 -869097 -865691 -879546 -902527 -927788 -951262 -972025 -989645 
3752.177 -1001414 -1003265 -990769 -962669 -921704 -874123 -828091 -790289 
3756.035 -765549 -754601 -755163 -763267 -775372 -789363 -804510 -820385 
3759.892 -834936 -845089 -847007 -838243 -819823 -795878 -773057 -758041 
3763.750 -754799 -763531 -780069 -797731 -809835 -812415 -805966 -794886 
3767.607 -784733 -779904 -782517 -791711 -804312 -816152 -823791 -825511 
3771.465 -820848 -810034 -794324 -774248 -750566 -724269 -697011 -670380 
3775.322 -646196 -625848 -610496 -601231 -598749 -603977 -616054 -633292 
3779.179 -652416 -668891 -678915 -680437 -674416 -665186 -657411 -656286 
3783.037 -664458 -682091 -705546 -730157 -750929 -764193 -769055 -766475 
3786.894 -758405 -746729 -732571 -716694 -699955 -683580 -669156 -658404 
3790.752 -652184 -649769 -649504 -648644 -645567 -640373 -635145 -633226 
3794.609 -638090 -651787 -672464 -695919 -714940 -723210 -717024 -697573 
3798.467 -669553 -641696 -623764 -624293 -648048 -693074 -749838 -802857 
3802.324 -836921 -843568 -822700 -781987 -733299 -689733 -662440 -657411 
3806.181 -673754 -703594 -733398 -750202 -746828 -723475 -686921 -645071 
3810.039 -605102 -570557 -540775 -512546 -482362 -448899 -414640 -386038 
3813.896 -371207 -377928 -409012 -460683 -520720 -572642 -603349 -606657 
3817.754 -586275 -552721 -519826 -501128 -506291 -538723 -592628 -654467 
3821.611 -705380 -731811 -727047 -694960 -644707 -588360 -536638 -496461 
3825.469 -470976 -458829 -455519 -455188 -453136 -447476 -439201 -431422 
3829.326 -427483 -429602 -438340 -451514 -465648 -476702 -481270 -477596 
3833.183 -465482 -446880 -424637 -402590 -384747 -374915 -376372 -390243 
3837.041 -415269 -447973 -482759 -513472 -535877 -548287 -551596 -548121 
3840.898 -541701 -534785 -529523 -526346 -524857 -523500 -520521 -513638 
3844.756 -501955 -485208 -464357 -441551 -419241 -399147 -382231 -367102 
3848.613 -351542 -332505 -308401 -280289 -253765 -238035 -244592 -284594 
3852.470 -362765 -472201 -593257 -699823 -771337 -799814 -790256 -754336 
3856.328 -703925 -647684 -590411 -534222 -479516 -426921 -377928 -334690 
3860.185 -299660 -274461 -259395 -253567 -255421 -263799 -278170 -298468 
3864.043 -323400 -349887 -373061 -387329 -389249 -379285 -362037 -346046 
3867.900 -340484 -352800 -385277 -432912 -483653 -522573 -539484 -531277 
3871.758 -503709 -466740 -431720 -406993 -396036 -397029 -403981 -409906 
3875.615 -408383 -397360 -378391 -355283 -333631 -317904 -311745 -316016 
3879.472 -329260 -347139 -364222 -374518 -373723 -361209 -339424 -313666 
3883.330 -291084 -279064 -282905 -303997 -338001 -375511 -405404 -418182 
3887.187 -410204 -384350 -348132 -311149 -282442 -269064 -273567 -294428 
3891.045 -325254 -357865 -384284 -399015 -400174 -388985 -367632 -338928 
3894.902 -305090 -268667 -231048 -194817 -162326 -135894 -117676 -108931 
3898.760 -109129 -116848 -129567 -145003 -161233 -177694 -194983 -214125 
3902.617 -235552 -259560 -284495 -307971 -327141 -339424 -343629 -339590 
3906.474 -328168 -311149 -289925 -266117 -240917 -215251 -190280 -166764 
3910.332 -145765 -128276 -114032 -103100 -94488 -86901 -79514 -72126 -65699 
3914.671 -62055 -63347 -71033 -85676 -105850 -128673 -150369 -167360 -177065 
3919.011 -178323 -171501 -157523 -138676 -116682 -93957 -73054 -56125 -44927 
3923.351 -40951 -44198 -53309 -65732 -78388 -88558 -94819 -96806 -95680 
3927.690 -92831 -90214 -88690 -89055 -91208 -95150 -100649 -107274 -114297 
3932.030 -121286 -126785 -129733 -129866 -127547 -123936 -120657 -119100 
3935.887 -119729 -121916 -124334 -125327 -123671 -119365 -113204 -107009 
3939.745 -102140 -99788 -99953 -101974 -104757 -107374 -109262 -110222 
3943.602 -110421 -109957 -108069 -104459 -98728 -91042 -82363 -73882 -66991 
3947.942 -62585 -60929 -60995 -61459 -61194 -59438 -56158 -52017 -47975 
3952.281 -45026 -43701 -44066 -46087 -49333 -53110 -56589 -58974 -59372 
3956.621 -57351 -53210 -48041 -43469 -41481 -43270 -49631 -59802 -71762 
3960.960 -82926 -90810 -93527 -90545 -82164 -69741 -54833 -38831 -23259 
3965.300 -8747 4373 15241 23459 28827 30915 29722 25547 19052 11133 2683 
3970.604 -5069 -11431 -15440 -16632 -14711 -10006 -2584 6858 17925 30384 
3975.426 43904 58054 72569 86322 98684 108162 113797 115354 112504 106439 
3980.248 98154 89172 80887 74326 69686 67101 66206 66140 66372 66471 66140 
3985.552 65610 65179 64748 64351 63853 62926 61136 58717 56000 53614 52984 
3990.855 54575 59247 66273 75253 85030 94674 103489 111079 117343 122314 
3995.677 125728 127253 126822 124568 121088 117045 113863 112073 111908 
4000.017 112968 114426 
##END=
