
##TITLE=1708_3_a
##JCAMP-DX=5.01  $$ Nicolet v. 1
##DATATYPE=INFRARED SPECTRUM
##ORIGIN=UniL
##OWNER=Nicolet
##LONGDATE=2011/09/08
##TIME=13:41:31
##SPECTROMETER/DATA SYSTEM=Nicolet iS5
##DATA PROCESSING=
Ratio against background
%Transmittance->Absorbance
Truncated
ElementMultiply or ElementDivide
##COMMENTS=
Number of sample scans: 32
Collection length: 51.15 sec
Sample gain: 2.0
Background collected on: Jeu Sep 08 13:38:27 2011 (GMT+02:00);
Number of background scans: 32
Background gain: 2.0
Sample spacing:  1.000
Number of scan points: 12415
Resolution points: 8192
Number of FFT points: 65536
Apodization: N-B fort;
Phase correction: Mertz;
Laser frequency: 15798.0 cm-1
Number of rejected sample scans: 0
Number of rejected background scans: 0
Bench serial number: ASB1000141;
##RESOLUTION=4.000
##XUNITS=1/CM
##YUNITS=ABSORBANCE
##FIRSTX=649.893372
##LASTX=4000.122314
##FIRSTY=0.102334
##MAXX=4000.122314
##MINX=649.893372
##MAXY=0.275530
##MINY=-0.000361
##XFACTOR=1.000000
##YFACTOR=1.000000E-009
##NPOINTS=6950
##DELTAX=0.482117
##ZPD=6100
##XYDATA=(X++(Y..Y))
649.893 102334072 102102336 101963120 101934288 102005864 102149752 
652.786 102333072 102537440 102767216 103044288 103393248 103826944 
655.679 104337832 104903360 105496448 106100928 106718064 107362424 
658.571 108050536 108787152 109562408 110356144 111152192 111949616 
661.464 112766376 113630216 114566032 115578920 116650920 117744248 
664.357 118816208 119829728 120748872 121533704 122127136 122445216 
667.250 122404104 121963136 121170696 120146912 119018944 117855240 
670.142 116655120 115372040 113953152 112367392 110623272 108770128 
673.035 106875176 105008032 103210496 101491264 99837056 98230760 96667336 
676.410 95159680 93731528 92404376 91187936 90074936 89047672 88086376 
679.785 87179200 86323232 85522032 84778456 84089144 83443168 82826856 
683.159 82228232 81644312 81079784 80545496 80051352 79601344 79192168 
686.534 78815112 78460528 78121152 77793848 77478632 77174848 76878640 
689.909 76582064 76274368 75946320 75592104 75211216 74807096 74384784 
693.284 73950392 73510432 73074328 72656472 72274640 71948816 71694008 
696.659 71512984 71392640 71303024 71204592 71052888 70812840 70466440 
700.034 70014816 69477160 68883024 68267008 67658296 67078896 66542396 
703.408 66053852 65613292 65218188 64864688 64548836 64266832 64014336 
706.783 63787668 63582940 63397788 63230648 63082040 62954516 62854476 
710.158 62793136 62786668 62857768 63028752 63316972 63725160 64233096 
713.533 64794480 65335140 65773180 66028468 66042660 65795928 65307604 
716.908 64634456 63852876 63054384 62332540 61771196 61453080 61450064 
720.282 61813064 62561592 63660696 65011440 66436468 67712856 68608504 
723.657 68916104 68519624 67415016 65719172 63630776 61390260 59228108 
727.032 57301756 55695420 54417280 53426080 52657248 52048568 51556164 
730.407 51151124 50816964 50542168 50315312 50125464 49965848 49834008 
733.782 49732496 49665176 49632860 49631672 49653140 49687352 49727328 
737.156 49771804 49824608 49891504 49977220 50082920 50206096 50342656 
740.531 50489240 50644840 50809588 50982444 51159060 51329896 51481696 
743.906 51600380 51672324 51686580 51634444 51506132 51290968 50977604 
747.281 50557316 50029828 49406848 48714404 47986716 47262096 46575712 
750.656 45950964 45401556 44931364 44539280 44222676 43979884 43810636 
754.031 43714508 43689664 43731768 43832552 43979920 44158776 44349920 
757.405 44533368 44691148 44808944 44880508 44908872 44905564 44886976 
760.780 44870148 44869268 44892268 44942424 45021396 45131672 45280844 
764.155 45483560 45761208 46146256 46681440 47415884 48404412 49689768 
767.530 51282988 53141464 55154060 57147756 58892800 60166048 60799104 
770.905 60722732 60000912 58816536 57436296 56115544 55048772 54315584 
774.279 53868992 53561072 53194752 52603200 51683112 50432708 48935564 
777.654 47337432 45796368 44438332 43348420 42554372 42040488 41762540 
781.029 41668000 41709216 41847072 42055236 42317624 42623488 42968112 
784.404 43349264 43767572 44224216 44720824 45258116 45836980 46458988 
787.779 47128788 47853924 48646280 49519912 50488644 51566496 52765696 
791.154 54097860 55576144 57216168 59034896 61051024 63279288 65726960 
794.528 68389400 71248864 74274024 77419904 80637488 83875592 87089344 
797.903 90252528 93364768 96459744 99600696 102878312 106386656 110191320 
801.278 114302376 118639080 123023000 127156240 130666616 133171944 
804.171 134319056 133893784 131868960 128429504 123929456 118821216 
807.063 113571240 108522680 103862512 99598656 95600584 91663208 87591520 
810.438 83279016 78727600 74048344 69408192 64996124 60966908 57410500 
813.813 54359932 51794940 49665624 47908272 46462492 45277788 44310620 
817.188 43527344 42901032 42408876 42035052 41767540 41596560 41513572 
820.563 41508652 41571144 41693092 41869984 42103968 42402372 42776004 
823.938 43235120 43785896 44429704 45162516 45977040 46862516 47806320 
827.312 48792992 49803056 50816480 51816032 52793872 53757792 54736556 
830.687 55783196 56965700 58365176 60064560 62127428 64586124 67417328 
834.062 70530712 73746520 76798704 79379328 81144888 81800408 81169408 
837.437 79222464 76103264 72086016 67542888 62848008 58319472 54205172 
840.812 50642384 47679168 45295224 43428788 41998440 40918192 40113420 
844.186 39517956 39076456 38749064 38507356 38335376 38227140 38181228 
847.561 38195988 38266472 38383404 38535852 38715628 38919468 39150020 
850.936 39413128 39714732 40056732 40436932 40849788 41290876 41758964 
854.311 42257944 42794868 43377528 44012444 44703084 45452104 46264256 
857.686 47148360 48120364 49202332 50419828 51803748 53387672 55205528 
861.060 57292984 59677208 62366352 65333172 68502048 71742008 74857560 
864.435 77624288 79809952 81203472 81669344 81159456 79729128 77519160 
867.810 74741880 71645792 68459720 65387792 62579460 60119584 58045836 
871.185 56354996 55019588 53999504 53252772 52742128 52432836 52296512 
874.560 52309740 52452052 52708756 53071292 53537568 54111824 54802596 
877.935 55619076 56564648 57632016 58797000 60019248 61238272 62379704 
881.309 63370064 64140448 64643644 64865344 64826756 64583168 64208092 
884.684 63786632 63392764 63078820 62876040 62792720 62823652 62957652 
888.059 63184960 63499592 63897364 64373872 64920820 65524824 66170020 
891.434 66838516 67514520 68185360 68840392 69470128 70066048 70619352 
894.809 71122896 71573072 71969816 72316080 72616648 72877160 73103336 
898.183 73301968 73482880 73658216 73841704 74046384 74279528 74541128 
901.558 74823080 75112304 75394896 75660568 75906856 76139424 76371416 
904.933 76619344 76902840 77242648 77658208 78170496 78798584 79558056 
908.308 80460392 81510656 82708152 84048176 85525504 87136512 88880648 
911.683 90760096 92778736 94940808 97251552 99720112 102362632 105203160 
915.058 108274536 111614320 115255848 119222504 123518592 128124640 
917.950 132987960 138018688 143090528 148019920 152579568 156516992 
920.843 159558352 161476176 162133952 161528992 159818704 157316224 
923.736 154477632 151800496 149791408 148897328 149405216 151427072 
926.628 154850512 159364192 164452144 169465584 173764000 176744384 
929.521 177983680 177297856 174723520 170482160 164886720 158295328 
932.414 151034464 143380416 135582320 127849104 120368672 113321048 
935.306 106854072 101088536 96114576 91980864 88707968 86294096 84720704 
938.681 83955224 83944488 84610976 85833368 87442936 89241848 90994928 
942.056 92471768 93484160 93893144 93643712 92763480 91356784 89577656 
945.431 87599632 85598736 83713928 82042520 80639280 79517104 78662864 
948.806 78048256 77642472 77416336 77344672 77406600 77581624 77849976 
952.181 78193664 78597736 79052184 79552400 80096376 80682408 81306272 
955.555 81960280 82634880 83321968 84016288 84717200 85427512 86150592 
958.930 86887904 87638184 88398376 89166496 89942408 90729272 91531592 
962.305 92352528 93191440 94044160 94904160 95765784 96627056 97490160 
965.680 98360304 99242232 100138552 101048480 101969112 102898080 103835616 
969.055 104785040 105750664 106735304 107738440 108755992 109782880 
971.947 110816056 111857008 112911424 113987616 115092568 116229304 
974.840 117396632 118591192 119810864 121056920 122333968 123647232 
977.733 124998736 126384376 127794144 129212960 130626144 132021520 
980.625 133389784 134723136 136012240 137244064 138403856 139478400 
983.518 140460416 141351680 142162880 142909824 143607824 144269632 
986.411 144904288 145519280 146123840 146731616 147357888 148017968 
989.304 148721856 149471728 150263440 151089856 151945744 152830304 
992.196 153746928 154699568 155689376 156711488 157756576 158814064 
995.089 159876736 160943664 162018832 163106672 164208096 165317728 
997.982 166425280 167519920 168595664 169654512 170705856 171762096 
1000.874 172833104 173923456 175032640 176159072 177304384 178475712 
1003.767 179684320 180942352 182256304 183625680 185044688 186506416 
1006.660 188008688 189556432 191159600 192828752 194568384 196374480 
1009.552 198234112 200130528 202048144 203973392 205893328 207791456 
1012.445 209640960 211406352 213050384 214539936 215859648 217014688 
1015.338 218030208 218942128 219787760 220601920 221411440 222240528 
1018.231 223114464 224058432 225096768 226246656 227513376 228891168 
1021.123 230367984 231935600 233596032 235364720 237265136 239320720 
1024.016 241544496 243934688 246475872 249145920 251923408 254787440 
1026.909 257715456 260673488 263604192 266429104 269049792 271355168 
1029.802 273243520 274621792 275407136 275530304 274925888 273538432 
1032.695 271337312 268325872 264554240 260113360 255132944 249759424 
1035.588 244133920 238398672 232683200 227104208 221780384 216817552 
1038.481 212306416 208323920 204919376 202118288 199923984 198317392 
1041.374 197254656 196657168 196411088 196350336 196257648 195901104 
1044.267 195038736 193468800 191075184 187834592 183827952 179211104 
1047.160 174199456 169021744 163882672 158964720 154397712 150258896 
1050.053 146583472 143364976 140568432 138139040 136017904 134147944 
1052.947 132479264 130975408 129607768 128352152 127187640 126091432 
1055.840 125040576 124015984 123001944 121988272 120969448 119940464 
1058.733 118895280 117826688 116727984 115596000 114434784 113256280 
1061.626 112078048 110919728 109800928 108736664 107738912 106816736 
1064.519 105976704 105221480 104547072 103939448 103371008 102800968 
1067.412 102184344 101474736 100636848 99654168 98530344 97289064 95966184 
1070.787 94607064 93256824 91954576 90733312 89614392 88608200 87714496 
1074.162 86923928 86220496 85584576 84997736 84445136 83915704 83403296 
1077.538 82903208 82410616 81920192 81426040 80924656 80417048 79910224 
1080.913 79416920 78952552 78533728 78175176 77887904 77681456 77563752 
1084.288 77542008 77624056 77816760 78125120 78551800 79097072 79760296 
1087.663 80540512 81436712 82446272 83561792 84770160 86050400 87376000 
1091.039 88722232 90068288 91403608 92728112 94048112 95370608 96696224 
1094.414 98015032 99306736 100546456 101710568 102787576 103784616 104731392 
1097.789 105675008 106671464 107773816 109010336 110370752 111792024 
1100.682 113165848 114339800 115140032 115415952 115052960 114005448 
1103.575 112302296 110042096 107373072 104457296 101464648 98540368 95791608 
1106.950 93293904 91083840 89166376 87523344 86120568 84916104 83863336 
1110.326 82919848 82047688 81214024 80393360 79564976 78712272 77824728 
1113.701 76897344 75932312 74938864 73933024 72934504 71962776 71036104 
1117.076 70168384 69368344 68641184 67988504 67409592 66901096 66457860 
1120.451 66072488 65735592 65437324 65168336 64919092 64680100 64439512 
1123.827 64180008 63879548 63510412 63042732 62452388 61723948 60856848 
1127.202 59865312 58778484 57634892 56474032 55334976 54247628 53230712 
1130.577 52292512 51431376 50638808 49901984 49208008 48545372 47906128 
1133.952 47286848 46688268 46114932 45572752 45067892 44605368 44188156 
1137.328 43817304 43493648 43217076 42988196 42807852 42675976 42591652 
1140.703 42552692 42556492 42600312 42682848 42803572 42962700 43160164 
1144.078 43394260 43661384 43956860 44275324 44611940 44963148 45326408 
1147.453 45698960 46078016 46459948 46841404 47220020 47595452 47969288 
1150.829 48344148 48722852 49107268 49498116 49894964 50297564 50706016 
1154.204 51120780 51542060 51968636 52397096 52822008 53236964 53634920 
1157.579 54009640 54355768 54667556 54938660 55161584 55327752 55429608 
1160.954 55460628 55416808 55296852 55100716 54829136 54483008 54063676 
1164.330 53574040 53018992 52407040 51749060 51057160 50344484 49622680 
1167.705 48902000 48191736 47500228 46835796 46206984 45622064 45088184 
1171.080 44611128 44194468 43840468 43550528 43326308 43170228 43085516 
1174.455 43075304 43142380 43289184 43517344 43829476 44229388 44722292 
1177.831 45315152 46015496 46830628 47768368 48835964 50041612 51394900 
1181.206 52905240 54582488 56435132 58468660 60685884 63084988 65659120 
1184.581 68390760 71247344 74180152 77113392 79948776 82576968 84874608 
1187.956 86726688 88039904 88745192 88810800 88242696 87084768 85410168 
1191.332 83313248 80904304 78288288 75563272 72816816 70115064 67510608 
1194.707 65041764 62732032 60594676 58633820 56846000 55222612 53751864 
1198.082 52421804 51220388 50137548 49165928 48299376 47533492 46863624 
1201.457 46284644 45790552 45374704 45029560 44748188 44523384 44347240 
1204.833 44211300 44104712 44015232 43930536 43839664 43734480 43611700 
1208.208 43471816 43318728 43157712 42994600 42834764 42683652 42547540 
1211.583 42433936 42351924 42311708 42323324 42395468 42535588 42748616 
1214.958 43037768 43404656 43849304 44369368 44960208 45615332 46326924 
1218.333 47087500 47891736 48737160 49623572 50552736 51527024 52549120 
1221.709 53621872 54749260 55936264 57188648 58511496 59906424 61370260 
1225.084 62893196 64459808 66050148 67640056 69204336 70716288 72147704 
1228.459 73473264 74671392 75728568 76642976 77425928 78101752 78702736 
1231.834 79269312 79846144 80476904 81209544 82092312 83170768 84491264 
1235.210 86093744 88009272 90260320 92858128 95804000 99089400 102697280 
1238.585 106599208 110750672 115094592 119557400 124052440 128496184 
1241.478 132807400 136916000 140767840 144316464 147519696 150337904 
1244.371 152726960 154641040 156034960 156860864 157073024 156631744 
1247.264 155505328 153680320 151167440 148003248 144244592 139958336 
1250.157 135213632 130068424 124572560 118773344 112720976 106479448 
1253.050 100131752 93769192 87495824 81417048 75622784 70193816 65188736 
1256.426 60639136 56554380 52921520 49711428 46883556 44393884 42199996 
1259.801 40260984 38542008 37014108 35651816 34435432 33348590 32376714 
1263.176 31507396 30728500 30028006 29395536 28822332 28301762 27830212 
1266.551 27405086 27024344 26685050 26383414 26115412 25878242 25671288 
1269.927 25496550 25357568 25259016 25204760 25197352 25239350 25333684 
1273.302 25485166 25701064 25988966 26356126 26806200 27337118 27938962 
1276.677 28592386 29270222 29935698 30545176 31055878 31427064 31629722 
1280.052 31652246 31502444 31205810 30798246 30322060 29814312 29302514 
1283.427 28804346 28327616 27874550 27446096 27043948 26671344 26332010 
1286.803 26028260 25760690 25528280 25329680 25163996 25031018 24930818 
1290.178 24861622 24819416 24798684 24793666 24800368 24819242 24854186 
1293.553 24911766 24998552 25119688 25278016 25474942 25712314 25993362 
1296.928 26323560 26709784 27158532 27675366 28264772 28930234 29674828 
1300.304 30499638 31401526 32368042 33373848 34382636 35344388 36205260 
1303.679 36916732 37439216 37751488 37851724 37757416 37500908 37123772 
1307.054 36675036 36201800 35745952 35342736 35014408 34771576 34613340 
1310.429 34530456 34508860 34533152 34590484 34670004 34762244 34858812 
1313.805 34950232 35026908 35081112 35107332 35103276 35069652 35008056 
1317.180 34919708 34804492 34661644 34491428 34296576 34083564 33860668 
1320.555 33636488 33417754 33207572 33006500 32814492 32633178 32467686 
1323.930 32326274 32218278 32152728 32136242 32172140 32262780 32410238 
1327.306 32616496 32883108 33208576 33586656 34005300 34449028 34902724 
1330.681 35353228 35793804 36222112 36638080 37041204 37427624 37789004 
1334.056 38116072 38399440 38632976 38815144 38948788 39040092 39096940 
1337.431 39129316 39149548 39171376 39212608 39291056 39421656 39615008 
1340.807 39874548 40197736 40578936 41012316 41494072 42021656 42593880 
1344.182 43209208 43865872 44562444 45299268 46077976 46899316 47757864 
1347.557 48635864 49501604 50304820 50983192 51475056 51723236 51689232 
1350.932 51359880 50748656 49893884 48851572 47693364 46492548 45317364 
1354.308 44229832 43274836 42480816 41859732 41408408 41113820 40957988 
1357.683 40924200 40998004 41167004 41420108 41744340 42124596 42546956 
1361.058 43000928 43483500 43999756 44560684 45176452 45848732 46567344 
1364.433 47308020 48036492 48708248 49276408 49693036 49911132 49895296 
1367.809 49625464 49103820 48354740 47422312 46361684 45224728 44056964 
1371.184 42891672 41747880 40639000 39577732 38581076 37674332 36886612 
1374.559 36241384 35749912 35406684 35193416 35086892 35069868 35137652 
1377.934 35300252 35580960 36012372 36635952 37495060 38636272 40103500 
1381.310 41922384 44084060 46521352 49107492 51644672 53889176 55599904 
1384.685 56542112 56539132 55505996 53477904 50631364 47253564 43707036 
1388.060 40318248 37313764 34807580 32805168 31248820 30052434 29132862 
1391.435 28418872 27853704 27398628 27026458 26721272 26477890 26297932 
1394.811 26186496 26146728 26176502 26267766 26409186 26587920 26792772 
1398.186 27015880 27252260 27501126 27764544 28046538 28350640 28678212 
1401.561 29027072 29391706 29763920 30133932 30494132 30839258 31167824 
1404.936 31480036 31776286 32056044 32318066 32562852 32794804 33022802 
1408.312 33260080 33520788 33815856 34152060 34530852 34950916 35410744 
1411.687 35909820 36448388 37023416 37626524 38242552 38851956 39438812 
1415.062 39996164 40531644 41066836 41634744 42273872 43017392 43887532 
1418.437 44884624 45981976 47129008 48262344 49322916 50263044 51053584 
1421.813 51685428 52169344 52541156 52859956 53206404 53658688 54273120 
1425.188 55071300 56037996 57136796 58326292 59577584 60873468 62206148 
1428.563 63571356 64962380 66372424 67800152 69258040 70772632 72375656 
1431.938 74095856 75946832 77925768 80017456 82208456 84499912 86907904 
1435.313 89462376 92189352 95092688 98135800 101254080 104381400 107466248 
1438.689 110474752 113372328 116112360 118613264 120759984 122429320 
1441.582 123491336 123837920 123401704 122154528 120117168 117356952 
1444.475 113994680 110189872 106116704 101965848 97909448 94094520 90644552 
1447.850 87637336 85098048 82991080 81235912 79728768 78373768 77116160 
1451.225 75952120 74928592 74114952 73578688 73351120 73415464 73707640 
1454.601 74132088 74587280 74973912 75229896 75354024 75419144 75542536 
1457.976 75833584 76370192 77183440 78277296 79642744 81259368 83092536 
1461.351 85083416 87156080 89202992 91084000 92651248 93756320 94296784 
1464.726 94255656 93714584 92827888 91760448 90659816 89626728 88717560 
1468.102 87964512 87379032 86954688 86665080 86460960 86271776 86011096 
1471.477 85605032 85017968 84276296 83461360 82678848 82019184 81531528 
1474.852 81234360 81131304 81224688 81521968 82028312 82735888 83615696 
1478.227 84617784 85683368 86749264 87765144 88703536 89561120 90360832 
1481.603 91142976 91959816 92862880 93902720 95134184 96613856 98401696 
1484.978 100549296 103081384 105972264 109121720 112360920 115436912 
1487.871 118035048 119831472 120508280 119829512 117710312 114249008 
1490.764 109722904 104501040 98966120 93410488 88002864 82825656 77890056 
1494.139 73187448 68737320 64596816 60867940 57676588 55127348 53271124 
1497.514 52093016 51534708 51516464 51960832 52804236 53988664 55456640 
1500.890 57150400 59003276 60943652 62902080 64792252 66512620 67937440 
1504.265 68884152 69121888 68392816 66486904 63379348 59324160 54801132 
1507.640 50289568 46092200 42298412 38863808 35707640 32770720 30029782 
1511.015 27498514 25207114 23176724 21413606 19903204 18618324 17528180 
1514.391 16603805 15819479 15148403 14564357 14046182 13582022 13174810 
1517.766 12837869 12584712 12417682 12322772 12269326 12221953 12154208 
1521.141 12064976 11981688 11946982 11992180 12121293 12313739 12537714 
1524.516 12767503 12990825 13214637 13458660 13745431 14086533 14478294 
1527.892 14905830 15353695 15814532 16291853 16797010 17342790 17936250 
1531.267 18576930 19257762 19968804 20704052 21462966 22249016 23061824 
1534.642 23895058 24733858 25561664 26360456 27115926 27820462 28467338 
1538.017 29052154 29567664 30001128 30333286 30545104 30631422 30605610 
1541.393 30495836 30332434 30132228 29895056 29605546 29245342 28805586 
1544.768 28297166 27750134 27203930 26690088 26217572 25774366 25334070 
1548.143 24870920 24372622 23848954 23328156 22846534 22428978 22078856 
1551.518 21780052 21508052 21242938 20978504 20725078 20502850 20331672 
1554.894 20218076 20152648 20111312 20063456 19972550 19799362 19508080 
1558.269 19079836 18536608 17947506 17402656 16966972 16658442 16460620 
1561.644 16341152 16265847 16204691 16137421 16055584 15964894 15881956 
1565.019 15827073 15815219 15848655 15916601 16000060 16080856 16145537 
1568.395 16190588 16221646 16250230 16288275 16343009 16417261 16511004 
1571.770 16623842 16755372 16903032 17060940 17216286 17352202 17451738 
1575.145 17504824 17516554 17508342 17510484 17544430 17615194 17711406 
1578.520 17815062 17909248 17982626 18032084 18059440 18069318 18065174 
1581.896 18048352 18018822 17976860 17925200 17868436 17810642 17753168 
1585.271 17692286 17621026 17531836 17422074 17296444 17167440 17051636 
1588.646 16964974 16920256 16923840 16978790 17086546 17248866 17465982 
1592.021 17733082 18036954 18353414 18650076 18895754 19064014 19142264 
1595.396 19132950 19052312 18923684 18770804 18616044 18476964 18368414 
1598.772 18305612 18303160 18374186 18528378 18769698 19096870 19505794 
1602.147 19991946 20550510 21174708 21852660 22562558 23271940 23942882 
1605.522 24532008 24998270 25310116 25445358 25396562 25169964 24784650 
1608.897 24268020 23651504 22970846 22261782 21559234 20896898 20299104 
1612.273 19778936 19336982 18961894 18635480 18336408 18046072 17750408 
1615.648 17444424 17135246 16842026 16591206 16406627 16302895 16281499 
1619.023 16332895 16439214 16579054 16732782 16883980 17025790 17162614 
1622.398 17309376 17484576 17702502 17968052 18274718 18611616 18968402 
1625.774 19340688 19727788 20129532 20542416 20957016 21360038 21740130 
1629.149 22092660 22421998 22738598 23054312 23375184 23699792 24017534 
1632.524 24312592 24568016 24767426 24899554 24960086 24955242 24901238 
1635.899 24822188 24744170 24684404 24649088 24633132 24623804 24603958 
1639.275 24555884 24467678 24335474 24166948 23977826 23787702 23611234 
1642.650 23452186 23302634 23145200 22957956 22719744 22417254 22050584 
1646.025 21636506 21205464 20795494 20442276 20168300 19981538 19876460 
1649.400 19838064 19842956 19858216 19843094 19743808 19506106 19101718 
1652.776 18564512 17998998 17522488 17198910 17017210 16927628 16874956 
1656.151 16819810 16741496 16633069 16498305 16344626 16179342 16005356 
1659.526 15820958 15621318 15401137 15156363 14886558 14594990 14289783 
1662.901 13983114 13688937 13420588 13187038 12990449 12825482 12680396 
1666.277 12539146 12383350 12196359 11967486 11695025 11387426 11061385 
1669.652 10738000 10435491 10166364 9936150 9743195 9581557 9439210 9301515 
1673.509 9150836 8972064 8760299 8525761 8294354 8096051 7953246 7870609 
1677.367 7837376 7834677 7844799 7858025 7873983 7900976 7949737 8026786 
1681.224 8129810 8247041 8359338 8448522 8504033 8532823 8558167 8612409 
1685.082 8717870 8876212 9075312 9298096 9531664 9766543 9997413 10221113 
1688.939 10434235 10634527 10821627 10998375 11170741 11345454 11527214 
1692.314 11715006 11901415 12071483 12207503 12293185 12322807 12307501 
1695.689 12276245 12264350 12292470 12358190 12436606 12492017 12483014 
1699.065 12376464 12161772 11865455 11548616 11274683 11079196 10957358 
1702.440 10880705 10813678 10726827 10600843 10427040 10208900 9959644 
1705.815 9698604 9443003 9203865 8984207 8780957 8587366 8395786 8200746 
1709.673 7999548 7793520 7586611 7384654 7192897 7013717 6846998 6690135 
1713.530 6539887 6393927 6251513 6112910 5977172 5840569 5697733 5543599 
1717.387 5379758 5216951 5072877 4964879 4902646 4885623 4904221 4944234 
1721.245 4991122 5034730 5070699 5100401 5129670 5165378 5212055 5270274 
1725.102 5337256 5408677 5480511 5549405 5612872 5668191 5711799 5740438 
1728.960 5752894 5750879 5738759 5721770 5701694 5673864 5625861 5538531 
1732.817 5394116 5186067 4930661 4665659 4437338 4275754 4184379 4146410 
1736.675 4136441 4131825 4114966 4077872 4020916 3952465 3883658 3824655 
1740.532 3781469 3754731 3741964 3739858 3745874 3757705 3773414 3790694 
1744.389 3807340 3821913 3833947 3843976 3852601 3859755 3863967 3862462 
1748.247 3852199 3829802 3793903 3744337 3682780 3612845 3539916 3470572 
1752.104 3411425 3367312 3340131 3328045 3325206 3322969 3312419 3286177 
1755.962 3242243 3185697 3126722 3077399 3044898 3029883 3025412 3021342 
1759.819 3006395 2972998 2919890 2851579 2777676 2707787 2649444 2605575 
1763.677 2575576 2556978 2546512 2541046 2536914 2530215 2517551 2497355 
1767.534 2471262 2444538 2423813 2413517 2413717 2418482 2418348 2402589 
1771.391 2365174 2308276 2243159 2185311 2146816 2131832 2136061 2150912 
1775.249 2167928 2182580 2194802 2207656 2224042 2244291 2265208 2281695 
1779.106 2288990 2285959 2275933 2265707 2262443 2269271 2284360 2301414 
1782.964 2313872 2316271 2307943 2292021 2274734 2261844 2256548 2258946 
1786.821 2267406 2280329 2296751 2316504 2339089 2361643 2379433 2385730 
1790.678 2374869 2344919 2299382 2247722 2200230 2165763 2147216 2142088 
1794.536 2145051 2150779 2155807 2158671 2159137 2156872 2150779 2139391 
1798.393 2121677 2098836 2073866 2051860 2037512 2033850 2040408 2054357 
1802.251 2072101 2090746 2109424 2128636 2149380 2171890 2195101 2217048 
1806.108 2235965 2251585 2264675 2276765 2288757 2300215 2308643 2311507 
1809.966 2306777 2295119 2279630 2264941 2254882 2251252 2252484 2255482 
1813.823 2256914 2255648 2253051 2252884 2259845 2277332 2306144 2344586 
1817.680 2389295 2436674 2484292 2531414 2578176 2624776 2671147 2716456 
1821.538 2759436 2799085 2834436 2865053 2890069 2909549 2924260 2936102 
1825.395 2948812 2965959 2989879 3020641 3055142 3087577 3112005 3124453 
1829.253 3125321 3120148 3117678 3126456 3151419 3192106 3243646 3300299 
1833.110 3357595 3414029 3470672 3530228 3594603 3663432 3734310 3803864 
1836.968 3870552 3935346 4002590 4078073 4167217 4272240 4392217 4522873 
1840.825 4658291 4793517 4924428 5049010 5167390 5280940 5392674 5505813 
1844.682 5623579 5747220 5875564 6004181 6126755 6235345 6322244 6382461 
1848.540 6413901 6417735 6396987 6355159 6294307 6214841 6115665 5997227 
1852.397 5861861 5714888 5563131 5412837 5267893 5128496 4992831 4858180 
1856.255 4724073 4592084 4466227 4350247 4246007 4152498 4066233 3983596 
1860.112 3901978 3821546 3743902 3670984 3603624 3540617 3479690 3419306 
1863.969 3360166 3305374 3258968 3224251 3201352 3186866 3174549 3158061 
1867.827 3134232 3104063 3072728 3047201 3032686 3030417 3037958 3050704 
1871.684 3064786 3077266 3087043 3093717 3096487 3093717 3083706 3064953 
1875.542 3038058 3004693 2967827 2929597 2890670 2849544 2804455 2754034 
1879.399 2699419 2643410 2590275 2543179 2503320 2468630 2435808 2401922 
1883.257 2366107 2330062 2297151 2270570 2251285 2238229 2227838 2216781 
1887.114 2202794 2185977 2167861 2150446 2134796 2121444 2110489 2102998 
1890.971 2100834 2106860 2122975 2148315 2179450 2210221 2235132 2251019 
1894.829 2258679 2262476 2267939 2278930 2295918 2315638 2333160 2345153 
1898.686 2350783 2352781 2355147 2360843 2370372 2381232 2389328 2392060 
1902.544 2389561 2385630 2384664 2390694 2404454 2423280 2443238 2460599 
1906.401 2474594 2487158 2501521 2519783 2541580 2563211 2580443 2589509 
1910.259 2590175 2585409 2580176 2578709 2583176 2592709 2604942 2617675 
1914.116 2630042 2642443 2654978 2665946 2671847 2668080 2651978 2624509 
1917.973 2592342 2565610 2552445 2556544 2574243 2596608 2612809 2614175 
1921.831 2598509 2569843 2536547 2507186 2487657 2479060 2478460 2482259 
1925.688 2488191 2496322 2507953 2523716 2541880 2558911 2571610 2578576 
1929.546 2582242 2587709 2600308 2622709 2653311 2685683 2712555 2728860 
1933.403 2733694 2730727 2725692 2723291 2725359 2729993 2734661 2737762 
1937.260 2741463 2749866 2767139 2793950 2825965 2855248 2873459 2875860 
1941.118 2863753 2844608 2828867 2824331 2833369 2851746 2872458 2889068 
1944.975 2900209 2909482 2923025 2946110 2980505 3022910 3068423 3112305 
1948.833 3153522 3193842 3236735 3283306 3329981 3371252 3399336 3410122 
1952.690 3404412 3387581 3366677 3347277 3329547 3310182 3283105 3245548 
1956.548 3199282 3151620 3112506 3089880 3086609 3098389 3118379 3138370 
1960.405 3155224 3169276 3183561 3200985 3220445 3239005 3252358 3259035 
1964.262 3261172 3263509 3271320 3286878 3307344 3325741 3335690 3334021 
1968.120 3324438 3314489 3311417 3319230 3335757 3353554 3364807 3365174 
1971.977 3356560 3346242 3342969 3352586 3376895 3414764 3464493 3528224 
1975.835 3612945 3726189 3870018 4036734 4206795 4354330 4456954 4502015 
1979.692 4490465 4435129 4355032 4268259 4185918 4112892 4048473 3991221 
1983.550 3940863 3899705 3869783 3851197 3840232 3831541 3819975 3804465 
1987.407 3789290 3781402 3787519 3808911 3840433 3872759 3894757 3900173 
1991.264 3889943 3871455 3856445 3854205 3868714 3897933 3935380 3973732 
1995.122 4008376 4038039 4063089 4084996 4104463 4120753 4133798 4144168 
1998.979 4154338 4166180 4180331 4193312 4198130 4187156 4155408 4102322 
2002.837 4034661 3962831 3897298 3846316 3811852 3791931 3782305 3780968 
2006.694 3788154 3806437 3837190 3877707 3921671 3959822 3985402 3996437 
2010.552 3996872 3995066 3999781 4016468 4045530 4083157 4125135 4168287 
2014.409 4212616 4259759 4309920 4361191 4406978 4440886 4458561 4462043 
2018.266 4458628 4458695 4471483 4500743 4544402 4594997 4644192 4686391 
2022.124 4720154 4747521 4771875 4794555 4814757 4830873 4841092 4846352 
2025.981 4850306 4856304 4866892 4880798 4894235 4903249 4907170 4909616 
2029.839 4918061 4940280 4981469 5041367 5114381 5192874 5270845 5346346 
2033.696 5421123 5498162 5578100 5658086 5732044 5794027 5840905 5874859 
2037.553 5900989 5925139 5950432 5974451 5992054 5997059 5987317 5965683 
2041.411 5940019 5919798 5910629 5914223 5925609 5938004 5945763 5947644 
2045.268 5947611 5952885 5970789 6004685 6053569 6111834 6171686 6225631 
2049.126 6266640 6289835 6292256 6272590 6233160 6179820 6122722 6073259 
2052.983 6042818 6037845 6057702 6094764 6136634 6171552 6191885 6196456 
2056.841 6190373 6181567 6176593 6179047 6187785 6200254 6213900 6228051 
2060.698 6243748 6262573 6284221 6305199 6320328 6324328 6314948 6293802 
2064.555 6266136 6238404 6215211 6198271 6184995 6171148 6154076 6132333 
2068.413 6107533 6082600 6059651 6039458 6021080 6003140 5985570 5970218 
2072.270 5959334 5954732 5956210 5960543 5963029 5960409 5951776 5940590 
2076.128 5931924 5931118 5941094 5960510 5984663 6008314 6027833 6042045 
2079.985 6053032 6063481 6075443 6088413 6100611 6110020 6116438 6121814 
2083.843 6129577 6142717 6161638 6183449 6202741 6214203 6214539 6203952 
2087.700 6185500 6162780 6138718 6113380 6084986 6051621 6013017 5971965 
2091.557 5933738 5904180 5887084 5883692 5891954 5908580 5930849 5957453 
2095.415 5988493 6024373 6062809 6100342 6131392 6151656 6159957 6158747 
2099.272 6153975 6151690 6157067 6171384 6193331 6220388 6250707 6284659 
2103.130 6324496 6372643 6430009 6494816 6563332 6631624 6696460 6757133 
2106.987 6814954 6871470 6927016 6980583 7029914 7073795 7113031 7151026 
2110.844 7192257 7240399 7296532 7357390 7416841 7469019 7509371 7537757 
2114.702 7557042 7571472 7585195 7600335 7616588 7633010 7649129 7665552 
2118.559 7684775 7708957 7739212 7774427 7812445 7850568 7888255 7926486 
2122.417 7968230 8015985 8070328 8129135 8188117 8243089 8291754 8334985 
2126.274 8376531 8420312 8469401 8523665 8580268 8635831 8686804 8732509 
2130.132 8774431 8815615 8858966 8905635 8955793 9008394 9063707 9122580 
2133.989 9186233 9255751 9329376 9403589 9473548 9534915 9586095 9628812 
2137.846 9666349 9702297 9737401 9770440 9797789 9816462 9825444 9827071 
2141.704 9825851 9825410 9827714 9830528 9829748 9820936 9801313 9771897 
2145.561 9734860 9693895 9649613 9600288 9542231 9471719 9388454 9295423 
2149.419 9197435 9099470 9003185 8905872 8802664 8687683 8558302 8415515 
2153.276 8264398 8110128 7957093 7807824 7664878 7534284 7429413 7368747 
2157.134 7374173 7461671 7631728 7866055 8131902 8390787 8609604 8771051 
2160.991 8872492 8923222 8935872 8921734 8887237 8835396 8766858 8684641 
2164.848 8593313 8498390 8404130 8311207 8217257 8117926 8010889 7896623 
2168.706 7779116 7664372 7557716 7461671 7376094 7297846 7224295 7154394 
2172.563 7089927 7034056 6990146 6960314 6943850 6938093 6938935 6942503 
2176.421 6944355 6939742 6924592 6895438 6850667 6792404 6726409 6661198 
2180.278 6605786 6567571 6549372 6549204 6561482 6579310 6597207 6611471 
2184.135 6619646 6619815 6610294 6588360 6553712 6508269 6457249 6409261 
2187.993 6372340 6351797 6348266 6357244 6371130 6382125 6385252 6378897 
2191.850 6365985 6350015 6334347 6320092 6307552 6295752 6285062 6276927 
2195.708 6273128 6274876 6282305 6293668 6306913 6319992 6332767 6345778 
2199.565 6359026 6371937 6381352 6383806 6376073 6357950 6332632 6305569 
2203.423 6283280 6269800 6265228 6266506 6268220 6265430 6256354 6241866 
2207.280 6224858 6208825 6195717 6186004 6179047 6174207 6172762 6176661 
2211.137 6187684 6206540 6231614 6259043 6285768 6309570 6330951 6352940 
2214.995 6378191 6407983 6440199 6470466 6493571 6506385 6508639 6504132 
2218.852 6497573 6493268 6492932 6494950 6496296 6493470 6485634 6473829 
2222.710 6461116 6450119 6442216 6436634 6431455 6425301 6417533 6410169 
2226.567 6405394 6405293 6410169 6418240 6427353 6435625 6442990 6451397 
2230.425 6463100 6479950 6501374 6524750 6546143 6561751 6569488 6569286 
2234.282 6563265 6554653 6546546 6541535 6541467 6547825 6561381 6582540 
2238.139 6610193 6641919 6673916 6702786 6726207 6744682 6761239 6780355 
2241.997 6805934 6839222 6878808 6920014 6957924 6988564 7010956 7026513 
2245.854 7038501 7050389 7063893 7079250 7095114 7109697 7121890 7131826 
2249.712 7139405 7145164 7149072 7150789 7150722 7150251 7151766 7158234 
2253.569 7171742 7192392 7217658 7243701 7265466 7279212 7283424 7278067 
2257.427 7264825 7245149 7219915 7189494 7154327 7115423 7075108 7036919 
2261.284 7004389 6980011 6965196 6959102 6960651 6967856 6979439 6994187 
2265.141 7011091 7028702 7045203 7058808 7068103 7073357 7075142 7074536 
2268.999 7072481 7068676 7061805 7050860 7035336 7016579 6997487 6981425 
2272.856 6971526 6968698 6972031 6978933 6987015 6994557 7001393 7008666 
2276.714 7017623 7028803 7041835 7055171 7067261 7077533 7086188 7094271 
2280.571 7102422 7110741 7118252 7123473 7125292 7123911 7120980 7119094 
2284.428 7120172 7125224 7133106 7141223 7146478 7145973 7138697 7124752 
2288.286 7105655 7083595 7060627 7038299 7018162 7001763 6989910 6983412 
2292.143 6981627 6983075 6985499 6986274 6983883 6978092 6970213 6962469 
2296.001 6957284 6955870 6958092 6962940 6968530 6973513 6976913 6978866 
2299.858 6979203 6977789 6974119 6967115 6956105 6941123 6922842 6902844 
2303.716 6882343 6862347 6843329 6825153 6807920 6791933 6778268 6767936 
2307.573 6761609 6759321 6760297 6763359 6767431 6772143 6777932 6785403 
2311.430 6794894 6806203 6818118 6828855 6837439 6843329 6846830 6849118 
2315.288 6850734 6851610 6850869 6846728 6838044 6824715 6808121 6790688 
2319.145 6775509 6765311 6761475 6764503 6772614 6782879 6791158 6792336 
2323.003 6780961 6752489 6703594 6634214 6547455 6449816 6349242 6254371 
2326.860 6171787 6105248 6054443 6016813 5988224 5965314 5946267 5931084 
2330.718 5921142 5917380 5920000 5927893 5939247 5952280 5966355 5981539 
2334.575 5998571 6018124 6040063 6063952 6088816 6113682 6138248 6162612 
2338.432 6186676 6210371 6232992 6253799 6272321 6289365 6306106 6324429 
2342.290 6345644 6369953 6397088 6426343 6458022 6494412 6538979 6596232 
2346.147 6669643 6759691 6863761 6975735 7088175 7192897 7282211 7350414 
2350.005 7393888 7411347 7404000 7375184 7330397 7275506 7216411 7157796 
2353.862 7102961 7053083 7009070 6970718 6938699 6913550 6896111 6886955 
2357.719 6885675 6891365 6902239 6916883 6934591 6955398 6979540 7007959 
2361.577 7040690 7077061 7116063 7156550 7198422 7241814 7287771 7336968 
2365.434 7389204 7443738 7499257 7554513 7609169 7664102 7720964 7781174 
2369.292 7845204 7912516 7981763 8051493 8120560 8189434 8259164 8331235 
2373.149 8406731 8485653 8567291 8650670 8735315 8821295 8909761 9002238 
2377.007 9099842 9202715 9310419 9421535 9534610 9648156 9761189 9873099 
2380.864 9983377 10091206 10195807 10296496 10392457 10483281 10568794 
2384.239 10648788 10723295 10792006 10854851 10912166 10965004 11014416 
2387.615 11061828 11108156 11153471 11197328 11238571 11276077 11309370 
2390.990 11338448 11364229 11387698 11409809 11431035 11451752 11472266 
2394.365 11492816 11514012 11536843 11561750 11589042 11618582 11650198 
2397.740 11683861 11720350 11760690 11806413 11858338 11916672 11980395 
2401.115 12048249 12118090 12188897 12259851 12331123 12403397 12477251 
2404.491 12553129 12631580 12713081 12798214 12887563 12981777 13081066 
2407.866 13185022 13292933 13403912 13517926 13635082 13756101 13881190 
2411.241 14010044 14140820 14271121 14397865 14518959 14633198 14740716 
2414.616 14842327 14938750 15030083 15115501 15193661 15263255 15324106 
2417.992 15377037 15424139 15467399 15508672 15549125 15588207 15625851 
2421.367 15661677 15695550 15728220 15760688 15793879 15828894 15866628 
2424.742 15908282 15955510 16010374 16074874 16150730 16238706 16338674 
2428.117 16449815 16570725 16700380 16838064 16983304 17135798 17295030 
2431.493 17460568 17631792 17809090 17992746 18183700 18382760 18589724 
2434.868 18804020 19024200 19248792 19476788 19708338 19944624 20187010 
2438.243 20436720 20693662 20956668 21223312 21491062 21757512 22021442 
2441.618 22282010 22539524 22794710 23048020 23300186 23552218 23804572 
2444.994 24058086 24313012 24569068 24825766 25082162 25336984 25589500 
2448.369 25839100 26085222 26327540 26565130 26796932 27022156 27240020 
2451.744 27450262 27653296 27849996 28040918 28226866 28407908 28584034 
2455.119 28755630 28922902 29086626 29246936 29403158 29553442 29695192 
2458.495 29825420 29941272 30041178 30125018 30193886 30249584 30293742 
2461.870 30327602 30351834 30366580 30372410 30370242 30361750 30349986 
2465.245 30338084 30330160 30330482 30343770 30374364 30426354 30502768 
2468.620 30605220 30733834 30887178 31062960 31259038 31473622 31705956 
2471.996 31956210 32224272 32509178 32808990 33120132 33437792 33756980 
2475.371 34072276 34379736 34675672 34957628 35223528 35472076 35701668 
2478.746 35910828 36097696 36260184 36395928 36503128 36580624 36628024 
2482.121 36647020 36639920 36610072 36561228 36497076 36420392 36333740 
2485.497 36238824 36136296 36026768 35910112 35785708 35652640 35510444 
2488.872 35358152 35195896 35024432 34844380 34656400 34460648 34256596 
2492.247 34043212 33819044 33582432 33332062 33066996 32786228 32489036 
2495.622 32174456 31841956 31491794 31124858 30743224 30349560 29946846 
2498.998 29537908 29125138 28710034 28293454 27876634 27460886 27047828 
2502.373 26639282 26237424 25843110 25457128 25079318 24709272 24346758 
2505.748 23992462 23647340 23313226 22992016 22685252 22394334 22119890 
2509.123 21862278 21622054 21398950 21192764 21002812 20827892 20666070 
2512.499 20515738 20375562 20244772 20123458 20011998 19910870 19820724 
2515.874 19741416 19673284 19616604 19571750 19539862 19521874 19517818 
2519.249 19526970 19547522 19576774 19612410 19652380 19695370 19741276 
2522.624 19790726 19843718 19900950 19962144 20026710 20093926 20162364 
2526.000 20230782 20297054 20358512 20412548 20456584 20488784 20507922 
2529.375 20514208 20508268 20490624 20462282 20423452 20374312 20315352 
2532.750 20247514 20171666 20089726 20003256 19913818 19823186 19732712 
2536.125 19643886 19558612 19478554 19404886 19338298 19278128 19223194 
2539.500 19171630 19122042 19073708 19026244 18979996 18935000 18891116 
2542.876 18847860 18804228 18759872 18714864 18669826 18626142 18584536 
2546.251 18545148 18507700 18470946 18433506 18394754 18354242 18312352 
2549.626 18269982 18227928 18186914 18147320 18109768 18074742 18042998 
2553.001 18014850 17990364 17968812 17948922 17929136 17908592 17886906 
2556.377 17864880 17843716 17824902 17808986 17795834 17784236 17772396 
2559.752 17758278 17739916 17716170 17686316 17650114 17608052 17560920 
2563.127 17510378 17458498 17407520 17359308 17315410 17276240 17241694 
2566.502 17211080 17183778 17159614 17139140 17123148 17112704 17108292 
2569.878 17110118 17117840 17130868 17148446 17170026 17194948 17222318 
2573.253 17251002 17280066 17308858 17336928 17364584 17392862 17422212 
2576.628 17452944 17484714 17516554 17547844 17578136 17608086 17639314 
2580.003 17673408 17711510 17754412 17801220 17850758 17901478 17952618 
2583.379 18003934 18056400 18111046 18169018 18230900 18296628 18365510 
2586.754 18437136 18510606 18585436 18661662 18739012 18817340 18897000 
2590.129 18978128 19061106 19146350 19233760 19322188 19410500 19496784 
2593.504 19579028 19656020 19727164 19792946 19854262 19912222 19967658 
2596.880 20021192 20073278 20124222 20174930 20226510 20280078 20336846 
2600.255 20397266 20461134 20528140 20597584 20668780 20741654 20816282 
2603.630 20892726 20971412 21052544 21136478 21223974 21315700 21412386 
2607.005 21515050 21623692 21738560 21859036 21984180 22113544 22246296 
2610.381 22381808 22519458 22658198 22796598 22933540 23067624 23198220 
2613.756 23325184 23448722 23569394 23687196 23802192 23913648 24020860 
2617.131 24123092 24219986 24311506 24397926 24479634 24556796 24629696 
2620.506 24698784 24764412 24827380 24888184 24947522 25005850 25062996 
2623.882 25118704 25172774 25224812 25274854 25322866 25368810 25412616 
2627.257 25453756 25492018 25527296 25559944 25590836 25621166 25652098 
2630.632 25684190 25717796 25752566 25787762 25822714 25856928 25889602 
2634.007 25920552 25949218 25975142 25997796 26017002 26033080 26046414 
2637.383 26058130 26069212 26080506 26092716 26106262 26121780 26139798 
2640.758 26161262 26187306 26218770 26255798 26298284 26345318 26395242 
2644.133 26447638 26501416 26556712 26614164 26674410 26738150 26805672 
2647.508 26877010 26951534 27028962 27108662 27190066 27272724 27356104 
2650.884 27439672 27522978 27605698 27687620 27769102 27850596 27932742 
2654.259 28016424 28102244 28190908 28282490 28377168 28474840 28575684 
2657.634 28679450 28786148 28895810 29008544 29123826 29241302 29359940 
2661.009 29478896 29597032 29713606 29828222 29941130 30053108 30165186 
2664.385 30278608 30393978 30512008 30632562 30755246 30879424 31004702 
2667.760 31130340 31255976 31381402 31506472 31631540 31757038 31883818 
2671.135 32012812 32144878 32280802 32421018 32565352 32713338 32864240 
2674.510 33017084 33171270 33326298 33481668 33637492 33793828 33950908 
2677.885 34108760 34267996 34428728 34591200 34755352 34921720 35090344 
2681.261 35262232 35437992 35618868 35805788 35999192 36199064 36405256 
2684.636 36617028 36833884 37055568 37282316 37514488 37752500 37996212 
2688.011 38245376 38499212 38757180 39018488 39283004 39550876 39822036 
2691.386 40096780 40374824 40655920 40940148 41227732 41519444 41816096 
2694.762 42118684 42427544 42742728 43063452 43389572 43720228 44055532 
2698.137 44395500 44740436 45089436 45441652 45795524 46148980 46500916 
2701.512 46850632 47198336 47544876 47891256 48237868 48584796 48931152 
2704.887 49275624 49616660 49952356 50281084 50601280 50911728 51211476 
2708.263 51500240 51778328 52046808 52306524 52558472 52803300 53040892 
2711.638 53271084 53493684 53709040 53917760 54120528 54317912 54509828 
2715.013 54695068 54871884 55038092 55191644 55331064 55455396 55564472 
2718.388 55658360 55737728 55803580 55857764 55902756 55942176 55980208 
2721.764 56020728 56067628 56123804 56191112 56270880 56364164 56471656 
2725.139 56594124 56732180 56886492 57056716 57242856 57444048 57659636 
2728.514 57888620 58130032 58382536 58644516 58913976 59188540 59466432 
2731.889 59746252 60027276 60309284 60591816 60874348 61155452 61432964 
2735.265 61704240 61966624 62217812 62455872 62680008 62889784 63085988 
2738.640 63269824 63443608 63610024 63772200 63933024 64094976 64260260 
2742.015 64429752 64604812 64786404 64975732 65174492 65384404 65606780 
2745.390 65842188 66090232 66349456 66617944 66893056 67171248 67448992 
2748.766 67721640 67983976 68231144 68457904 68660248 68835344 68982360 
2752.141 69101224 69192920 69259128 69300792 69319216 69315288 69288976 
2755.516 69239856 69166800 69067464 68939256 68778896 68583712 68351928 
2758.891 68082832 67777032 67436328 67062764 66658504 66225708 65766552 
2762.267 65283768 64780904 64262220 63732980 63199064 62666380 62140692 
2765.642 61627324 61131424 60657384 60209512 59791192 59405112 59053572 
2769.017 58737328 58456752 58211712 58001304 57824376 57679616 57565540 
2772.392 57479904 57420372 57384108 57368112 57368792 57382596 57405436 
2775.768 57432816 57460160 57482740 57495904 57495904 57479376 57444312 
2779.143 57389024 57312908 57215640 57097532 56959544 56803968 56633496 
2782.518 56452336 56264652 56075052 55888024 55706120 55531184 55363660 
2785.893 55202516 55045724 54889744 54731332 54566368 54391292 54203296 
2789.269 54000520 53782428 53549376 53303152 53045984 52780772 52510752 
2792.644 52239108 51969500 51705356 51450328 51208044 50981924 50775136 
2796.019 50590596 50430772 50297752 50193336 50118772 50074708 50061432 
2799.394 50078164 50124016 50197652 50297344 50421768 50569416 50738044 
2802.770 50926076 51130848 51349700 51579780 51818052 52062124 52309332 
2806.145 52557760 52805172 53049616 53288468 53519508 53739828 53946232 
2809.520 54135544 54304024 54447928 54563740 54648092 54698708 54713744 
2812.895 54693300 54638056 54549876 54431704 54286828 54119028 53933364 
2816.271 53734876 53529364 53323044 53122628 52934356 52764984 52620628 
2819.646 52506716 52428276 52388496 52389508 52431752 52513484 52631288 
2823.021 52780588 52956028 53150824 53359008 53574228 53790416 54001348 
2826.396 54202280 54387912 54554648 54699352 54819552 54914180 54982392 
2829.771 55024704 55042004 55036320 55010488 54968328 54913804 54851544 
2833.147 54785116 54717840 54652264 54590264 54533460 54483308 54441276 
2836.522 54408340 54385772 54374240 54374992 54389828 54421712 54474972 
2839.897 54554908 54668196 54821808 55022820 55278228 55595540 55982016 
2843.272 56446864 57000272 57652712 58415288 59296356 60299160 61419340 
2846.648 62641232 63937396 65264700 66569388 67789576 68857440 69711768 
2850.023 70302256 70594992 70578304 70261856 69675472 68861512 67872744 
2853.398 66766216 65594332 64407384 63247932 62147652 61130124 60208944 
2856.773 59388052 58664500 58029360 57471164 56976244 56531472 56125124 
2860.149 55746392 55386056 55036584 54691196 54344496 53992304 53631620 
2863.524 53260784 52879188 52487684 52088460 51685204 51283992 50891836 
2866.899 50517412 50170200 49858464 49589660 49369648 49201032 49084156 
2870.274 49016528 48992864 49005256 49043904 49098404 49157248 49211312 
2873.650 49252876 49277448 49283644 49271988 49244784 49204596 49154204 
2877.025 49095656 49030772 48961008 48887836 48812492 48736308 48660140 
2880.400 48584796 48510876 48439340 48371852 48310224 48256680 48213172 
2883.775 48181148 48161380 48154196 48159640 48177260 48207544 48250460 
2887.151 48305704 48372256 48448824 48533588 48624336 48719628 48818724 
2890.526 48921468 49028176 49139100 49254656 49374700 49498892 49627212 
2893.901 49759616 49896672 50038864 50187164 50342248 50504944 50675896 
2897.276 50855700 51044416 51242084 51448052 51661428 51881144 52106468 
2900.652 52337288 52574064 52817856 53069648 53330012 53598892 53876004 
2904.027 54160840 54454124 54758096 55075856 55412252 55772500 56161624 
2907.402 56584800 57046592 57552452 58109048 58723708 59404464 60159124 
2910.777 60992648 61905904 62894076 63945772 65041536 66154668 67254016 
2914.153 68302760 69263016 70100776 70786480 71300680 71635704 71795792 
2917.528 71795792 71657120 71405880 71066624 70659120 70197784 69689280 
2920.903 69133544 68525944 67860576 67132448 66341072 65491416 64595164 
2924.278 63669444 62733680 61808252 60911512 60056876 59253476 58505584 
2927.654 57813212 57173420 56580952 56030044 55513640 55025680 54561372 
2931.029 54117564 53693784 53292288 52917476 52574512 52268928 52005240 
2934.404 51786052 51612392 51483152 51396020 51347312 51331948 51344364 
2937.779 51377816 51425372 51481288 51540644 51600452 51659560 51718416 
2941.155 51777584 51837984 51899668 51961804 52022568 52079160 52127648 
2944.530 52163068 52178612 52167104 52121112 52034296 51903884 51731408 
2947.905 51523704 51291676 51050344 50815324 50600648 50418084 50274204 
2951.280 50171580 50108284 50079240 50077940 50097128 50129852 50170388 
2954.656 50214500 50258992 50301956 50341952 50377744 50408260 50432968 
2958.031 50451348 50463928 50471896 50476808 50480604 50484996 50491060 
2961.406 50499732 50511680 50527240 50547080 50571764 50601280 50635088 
2964.781 50672168 50710748 50749068 50785900 50820576 50853092 50883452 
2968.156 50911876 50937920 50961172 50981328 50999064 51015720 51033868 
2971.532 51056228 51084888 51120780 51163500 51211664 51263412 51316996 
2974.907 51371852 51427500 51483936 51540644 51595752 51646092 51687888 
2978.282 51716328 51727340 51717076 51683072 51624260 51540940 51434880 
2981.657 51309240 51168568 51017696 50861212 50702596 50543244 50382508 
2985.033 50217772 50044960 49859952 49659048 49440040 49202256 48946392 
2988.408 48673852 48386188 48084348 47768220 47436724 47087908 46719956 
2991.783 46331788 45924336 45500372 45065100 44625416 44187680 43757496 
2995.158 43337472 42927108 42523088 42119848 41711948 41294740 40865588 
2998.534 40424856 39974952 39519772 39063552 38610268 38163320 37724524 
3001.909 37295420 36876548 36468100 36070044 35681812 35303128 34933788 
3005.284 34573548 34222716 33881804 33551250 33231788 32924212 32628570 
3008.659 32344836 32072634 31811048 31558454 31313166 31073140 30836734 
3012.035 30602554 30369992 30139330 29911384 29686926 29466804 29251402 
3015.410 29040746 28834830 28633650 28437586 28247128 28063112 27885538 
3018.785 27714216 27548502 27387864 27231906 27081330 26936938 26800280 
3022.160 26672226 26552662 26440842 26335706 26236156 26142330 26055842 
3025.536 25979362 25916084 25869026 25839136 25825668 25825808 25834248 
3028.911 25844762 25850144 25842968 25816384 25764662 25684014 25573156 
3032.286 25433834 25270218 25088198 24894500 24694996 24494112 24294440 
3035.661 24097172 23902376 23710080 23520248 23333366 23149814 22970252 
3039.037 22794466 22622558 22454272 22289718 22129304 21973586 21823288 
3042.412 21678720 21539734 21405982 21277072 21152826 21033486 20919220 
3045.787 20810476 20707214 20609294 20515980 20426716 20341222 20259040 
3049.162 20180482 20105344 20033582 19964640 19897688 19831752 19766106 
3052.538 19700120 19633348 19565822 19497510 19428864 19360886 19294790 
3055.913 19232096 19174640 19123116 19077792 19038326 19003224 18971310 
3059.288 18941820 18914684 18890390 18870076 18854504 18843638 18837306 
3062.663 18834952 18836096 18841010 18850524 18865404 18886550 18913196 
3066.039 18944104 18977160 19009870 19039780 19065294 19084960 19097216 
3069.414 19101164 19095070 19077862 19048884 19008624 18959090 18902952 
3072.789 18843742 18784194 18726592 18671866 18619778 18569874 18521222 
3076.164 18473228 18425590 18377954 18330014 18281594 18232420 18182250 
3079.540 18131188 18079714 18028044 17976652 17926064 17876584 17828490 
3082.915 17782406 17738880 17698498 17661470 17627996 17597804 17570512 
3086.290 17545774 17523730 17504342 17488060 17475056 17465362 17458568 
3089.665 17453944 17451048 17449324 17448668 17448772 17449254 17449978 
3093.041 17450324 17450220 17449772 17449772 17451530 17456186 17464742 
3096.416 17477746 17495062 17515828 17539358 17564716 17591214 17618334 
3099.791 17645386 17671684 17696532 17719620 17741090 17762144 17783788 
3103.166 17807640 17834776 17864984 17897438 17930828 17963426 17994404 
3106.542 18023552 18051356 18078852 18106624 18134986 18163352 18191336 
3109.917 18218184 18243582 18267978 18291962 18316362 18342042 18369210 
3113.292 18398142 18428424 18459470 18490414 18520356 18547882 18572260 
3116.667 18592560 18608640 18620572 18629254 18635306 18639492 18642120 
3120.042 18642986 18641706 18637970 18631676 18623340 18613968 18604768 
3123.418 18596570 18590486 18587132 18586542 18588928 18594152 18601898 
3126.793 18611858 18623444 18635790 18648312 18660590 18672386 18683662 
3130.168 18694802 18706146 18718358 18732092 18747902 18766584 18788518 
3133.543 18814020 18842462 18872776 18903472 18932786 18960094 18985190 
3136.919 19008796 19032510 19057956 19086380 19118200 19153068 19190294 
3140.294 19229014 19268742 19309096 19350042 19391582 19433300 19474500 
3143.669 19514596 19553102 19590120 19626136 19662154 19698940 19737324 
3147.044 19777478 19819614 19863904 19910488 19959506 20011270 20065504 
3150.420 20121446 20178088 20234254 20288964 20342054 20393654 20444428 
3153.795 20495208 20546412 20598002 20649842 20701376 20752430 20802968 
3157.170 20853336 20903504 20954372 21005628 21057378 21110110 21163924 
3160.545 21219450 21277662 21338980 21403894 21472192 21543566 21617284 
3163.921 21692826 21769740 21847538 21925770 22004014 22081714 22158314 
3167.296 22233010 22305482 22375426 22442550 22506720 22568072 22626884 
3170.671 22683646 22739472 22795652 22853588 22914396 22978532 23045750 
3174.046 23114692 23183750 23251490 23316898 23379938 23440958 23501570 
3177.422 23562992 23626208 23691918 23759878 23829702 23900588 23971872 
3180.797 24043274 24114720 24186354 24258806 24332600 24408126 24485592 
3184.172 24565106 24646492 24729790 24814926 24901974 24990900 25081634 
3187.547 25173652 25266354 25359008 25451084 25542338 25633222 25724408 
3190.923 25817438 25913164 26012218 26114778 26220036 26326974 26434258 
3194.298 26541002 26646190 26749710 26851526 26952170 27052376 27152924 
3197.673 27255260 27360336 27468932 27581300 27697368 27816576 27937654 
3201.048 28060108 28182952 28305688 28428460 28550806 28672902 28794786 
3204.424 28916526 29038374 29161138 29285322 29410994 29538334 29666102 
3207.799 29793196 29918058 30039864 30158368 30274524 30389892 30505540 
3211.174 30623246 30743082 30864696 30987408 31109980 31231978 31353298 
3214.549 31474088 31595048 31716864 31840104 31964842 32091468 32219562 
3217.925 32348550 32477826 32605994 32732632 32857128 32979582 33100892 
3221.300 33222344 33345156 33470076 33597108 33725144 33853180 33979788 
3224.675 34104388 34227124 34348856 34470372 34592708 34715764 34839856 
3228.050 34964096 35088400 35212136 35335440 35458092 35579916 35700444 
3231.426 35819244 35935808 36050564 36163736 36276068 36388176 36500644 
3234.801 36613244 36725584 36837272 36947796 37057192 37165712 37273504 
3238.176 37381288 37489312 37598232 37708732 37821468 37937016 38055448 
3241.551 38176088 38297340 38417428 38534908 38649164 38761344 38873268 
3244.927 38987608 39106728 39231792 39362624 39497996 39635628 39774172 
3248.302 39912796 40051464 40190904 40332204 40475668 40621316 40768876 
3251.677 40918048 41068256 41219752 41372216 41525716 41679928 41834192 
3255.052 41988440 42142560 42297100 42452644 42610292 42770188 42932192 
3258.427 43095648 43259276 43422416 43584592 43745584 43905752 44065324 
3261.803 44224400 44383280 44541884 44700956 44861144 45023420 45188400 
3265.178 45356536 45527568 45700468 45874468 46048908 46223568 46399072 
3268.553 46576084 46755640 46937708 47122068 47307540 47492980 47677096 
3271.928 47858884 48038452 48215948 48392372 48568752 48746616 48926996 
3275.304 49110828 49298564 49490168 49685236 49882808 50082032 50282052 
3278.679 50482424 50683008 50884124 51086008 51289064 51493968 51701176 
3282.054 51911168 52124808 52342260 52563852 52789608 53019104 53252096 
3285.429 53488512 53728316 53972004 54220072 54472452 54728776 54987920 
3288.805 55249176 55511228 55774004 56037880 56303692 56572268 56845016 
3292.180 57122172 57403960 57690324 57981040 58276428 58576448 58881228 
3295.555 59191124 59505380 59823664 60145500 60470692 60798952 61130584 
3298.930 61465296 61803132 62143908 62487588 62834756 63186460 63544272 
3302.306 63909568 64283772 64667068 65059124 65458900 65865212 66277312 
3305.681 66694976 67118376 67547840 67983856 68426592 68876072 69332976 
3309.056 69797832 70271712 70755440 71249416 71753216 72265800 72785704 
3312.431 73312368 73845912 74386912 74936384 75495384 76063624 76640328 
3315.807 77224008 77813312 78407864 79008024 79615080 80229800 80852616 
3319.182 81482872 82118416 82756888 83395712 84033416 84668840 85301728 
3322.557 85932296 86560680 87187144 87811824 88434768 89055960 89674632 
3325.932 90289608 90898552 91499032 92088128 92664040 93225488 93772152 
3329.308 94303776 94820272 95320416 95802472 96264504 96704504 97120720 
3332.683 97511688 97875864 98210984 98514680 98784680 99019464 99219408 
3336.058 99386040 99522976 99633496 99719856 99782688 99820464 99830184 
3339.433 99808328 99751920 99659000 99528440 99360384 99155048 98913152 
3342.809 98635576 98323240 97976704 97596512 97182008 96731952 96244488 
3346.184 95718208 95152752 94549800 93913008 93247376 92557904 91849272 
3349.559 91124096 90383888 89628680 88858448 88073272 87273856 86461168 
3352.934 85636592 84800976 83955576 83102088 82242688 81380360 80519056 
3356.310 79662488 78814312 77977312 77153360 76343448 75548376 74768168 
3359.685 74003000 73253024 72517688 71796296 71088008 70391864 69707408 
3363.060 69034208 68371984 67720720 67080328 66450836 65832592 65226704 
3366.435 64634844 64058960 63501088 62962332 62442404 61940068 61452928 
3369.811 60978612 60514532 60059196 59611716 59171796 58739224 58314092 
3373.186 57895624 57483384 57076972 56676004 56280380 55890320 55505580 
3376.561 55126144 54752304 54384116 54022208 53667160 53319372 52978864 
3379.936 52644452 52314712 51987312 51660424 51332320 51002232 50670052 
3383.312 50336816 50003284 49670600 49339804 49011744 48687604 48367852 
3386.687 48053108 47743808 47439092 47138356 46840556 46544732 46249848 
3390.062 45956452 45664248 45374300 45087044 44803028 44522428 44245788 
3393.437 43972880 43703444 43437468 43173960 42912116 42651228 42390864 
3396.813 42131424 41874180 41620772 41372432 41129772 40892380 40658320 
3400.188 40425404 40191556 39955404 39717348 39478040 39239228 39002176 
3403.563 38767104 38533860 38301864 38070244 37839396 37610048 37383744 
3406.938 37161924 36945484 36734024 36526592 36321132 36115700 35908924 
3410.313 35700196 35489732 35278868 35068972 34861396 34657300 34456920 
3413.689 34260180 34066436 33874600 33683428 33491944 33299468 33105650 
3417.064 32910630 32715090 32519534 32325062 32132712 31943016 31757322 
3420.439 31576090 31399746 31228490 31061680 30898670 30738210 30579232 
3423.814 30420666 30261876 30102326 29941664 29780210 29617750 29454926 
3427.190 29292978 29132756 28975994 28824102 28677682 28536404 28399276 
3430.565 28264136 28128898 27992462 27854130 27714568 27575686 27438932 
3433.940 27305854 27177016 27052096 26929570 26808526 26687306 26565376 
3437.315 26442252 26318210 26193780 26068896 25943906 25818424 25692488 
3440.691 25565848 25438438 25310572 25182288 25054290 24926538 24799140 
3444.066 24671218 24542350 24411454 24277620 24141024 24002126 23862048 
3447.441 23722992 23586500 23453934 23325708 23201470 23080168 22960890 
3450.816 22842274 22723760 22604442 22484106 22361994 22237996 22111732 
3454.192 21984008 21856004 21729226 21605582 21485978 21370688 21258490 
3457.567 21147574 21035608 20920994 20802514 20680386 20555304 20429078 
3460.942 20302852 20178158 20055892 19936922 19821556 19709724 19600900 
3464.317 19494324 19388846 19283496 19178070 19072496 18967502 18863812 
3467.693 18761878 18661006 18560018 18457256 18351546 18242268 18130150 
3471.068 18016922 17904690 17795040 17688386 17584208 17480850 17376378 
3474.443 17269346 17159546 17047464 16934724 16822978 16713671 16608005 
3477.818 16505981 16407248 16310979 16215662 16120158 16023267 15924539 
3481.194 15823912 15722688 15622107 15523747 15428396 15336155 15245683 
3484.569 15155609 15064009 14969719 14872569 14773349 14673330 14574019 
3487.944 14475965 14379336 14284031 14189601 14096049 14004227 13914922 
3491.319 13828714 13746319 13667053 13590021 13513790 13436752 13357883 
3494.695 13276603 13192981 13107223 13020323 12932893 12846333 12761907 
3498.070 12680363 12602415 12527722 12455121 12382976 12309138 12231530 
3501.445 12149232 12061978 11971164 11878633 11786972 11698939 11616675 
3504.820 11541368 11473185 11411067 11352631 11295156 11235783 11172067 
3508.196 11103058 11029064 10952092 10874521 10799004 10727201 10659926 
3511.571 10596498 10536237 10477918 10421406 10366056 10311900 10258429 
3514.946 10204592 10148760 10089578 10026471 9959780 9891640 9824698 9761969 
3518.803 9705821 9656592 9613635 9574714 9537286 9498575 9456650 9410462 
3522.661 9360116 9306424 9250640 9193949 9137774 9082654 9028725 8975751 
3526.518 8923154 8869956 8816189 8761381 8706444 8652259 8600174 8551172 
3530.376 8506567 8466495 8431393 8400144 8371735 8343834 8314010 8279798 
3534.233 8238970 8190819 8136123 8076539 8015614 7956182 7900268 7848949 
3538.091 7801515 7756381 7712634 7669262 7627075 7586948 7550535 7518102 
3541.948 7489447 7462378 7434705 7403730 7367096 7323961 7274630 7220252 
3545.805 7163051 7105958 7051467 7001932 6958664 6921428 6889042 6858678 
3549.663 6826869 6790452 6747643 6698142 6643231 6586442 6530637 6478907 
3553.520 6432666 6391876 6355529 6322513 6291281 6260825 6230437 6198742 
3557.378 6164326 6125747 6082298 6033612 5981270 5927389 5875027 5826667 
3561.235 5783684 5746515 5714351 5685714 5658590 5630830 5600050 5563232 
3565.093 5517155 5459070 5387138 5302539 5209104 5113644 5022864 4942592 
3568.950 4875906 4821994 4777738 4738779 4700961 4661171 4617567 4570452 
3572.807 4520161 4468771 4417321 4367516 4319658 4274114 4230416 4187658 
3576.665 4144837 4100750 4054995 4007539 3958885 3910069 3862228 3816064 
3580.522 3772511 3731570 3693707 3659522 3630085 3605996 3587821 3574024 
3584.380 3562064 3547699 3525184 3489944 3438609 3371252 3291819 3207661 
3588.237 3127223 3058179 3005260 2969462 2948211 2937069 2930231 2922291 
3592.094 2908748 2886600 2854847 2814459 2768073 2718857 2670813 2626676 
3595.952 2588709 2557578 2532848 2513585 2497655 2483125 2467697 2449969 
3599.809 2429277 2406054 2382132 2359811 2341521 2328863 2321934 2320335 
3603.667 2322133 2325098 2326964 2325198 2317570 2301614 2275333 2237364 
3607.524 2188341 2131133 2070370 2012512 1962649 1922877 1892459 1866635 
3611.382 1840015 1807107 1765918 1717515 1666888 1619725 1581647 1555576 
3615.239 1540612 1532964 1527312 1518600 1502208 1475710 1438541 1392168 
3619.096 1340283 1286842 1236897 1194765 1162936 1142505 1132638 1131575 
3622.954 1136890 1147289 1162006 1181243 1205397 1232943 1260091 1280761 
3626.811 1285679 1265607 1214834 1134631 1036575 938673 859585 810186 790800 
3631.151 793157 806468 820444 828013 826353 816958 803746 790800 781174 
3635.490 775631 772411 769457 764710 757474 748347 738622 729262 720732 
3639.830 712369 702877 691527 678286 664846 653994 648917 652402 665808 
3644.170 688142 717181 748579 778319 801954 816693 820079 811680 791033 
3648.509 758138 713630 659702 600206 542378 494309 462864 452349 462432 
3652.849 488803 523634 557771 583020 593405 586769 567094 542477 522473 
3657.188 514677 521843 542112 569151 596026 616332 625590 622272 607174 
3661.528 583750 556444 529473 507313 493579 490992 501408 526752 567393 
3665.868 622736 690299 766934 847600 928878 1009839 1095732 1199051 1339220 
3670.207 1537919 1810900 2164565 2594275 3089045 3632692 4205055 4781255 
3674.065 5319109 5760650 6040399 6100409 5919563 5522491 4965583 4313333 
3677.922 3620563 2932999 2285092 1706537 1221512 842255 568388 385420 271618 
3682.262 203656 162420 137594 125264 125264 137561 158973 182805 200275 
3686.601 202728 183833 142300 82577 13088 -56059 -116781 -164611 -198692 
3690.941 -220086 -230684 -232638 -227736 -218464 -206839 -195148 -184947 
3694.798 -177131 -171600 -167957 -164876 -161763 -157921 -153151 -148083 
3698.656 -143844 -142353 -145964 -157060 -177032 -205382 -239327 -273369 
3702.513 -302143 -320751 -326711 -319990 -303468 -280256 -253699 -225716 
3706.371 -197301 -168420 -139140 -110222 -83754 -63347 -52911 -55860 -74280 
3710.710 -107142 -151363 -200050 -246579 -283601 -306679 -313765 -306381 
3714.568 -287905 -262971 -236082 -210913 -189220 -171534 -156463 -142651 
3718.425 -129137 -116583 -106744 -102637 -106546 -118968 -138478 -161498 
3722.282 -183954 -202335 -214953 -222769 -228266 -234889 -244361 -257607 
3726.140 -272740 -285985 -292673 -289263 -273998 -247672 -213761 -177164 
3729.997 -143943 -119001 -105651 -103796 -110057 -119199 -126288 -130131 
3733.855 -133277 -141624 -161034 -194552 -239625 -288104 -328995 -354488 
3737.712 -361176 -350549 -327174 -295521 -258004 -215152 -165638 -110057 
3741.570 -52083 -629 31445 30153 -12855 -93063 -190942 -276283 -324492 
3745.909 -327439 -292574 -236645 -177429 -129766 -103100 -99225 -114363 
3749.767 -141161 -172892 -205084 -236545 -266713 -292839 -310222 -313897 
3753.624 -300885 -272740 -234558 -193724 -156960 -129501 -113005 -106413 
3757.481 -106943 -112243 -121187 -134006 -150634 -169580 -187166 -198295 
3761.339 -199222 -189286 -171169 -151031 -135828 -130594 -136921 -152456 
3765.196 -170772 -185444 -191472 -187531 -176965 -164644 -155337 -152290 
3769.054 -155900 -163883 -172428 -177992 -177893 -171534 -159312 -143181 
3772.911 -124897 -106082 -87796 -71132 -55761 -41216 -26970 -12723 165 10006 
3777.733 13618 9078 -3942 -23657 -45457 -64507 -76731 -81005 -79415 -75671 
3782.555 -74280 -77957 -87498 -100980 -115125 -127083 -134635 -137881 
3786.412 -138146 -136557 -134105 -130594 -125261 -118139 -109427 -100517 
3790.270 -93129 -87961 -84847 -82098 -77493 -69874 -59902 -50327 -45656 
3794.609 -49499 -63977 -86537 -111879 -130694 -135430 -121551 -89916 -46749 
3798.949 -2385 31180 43208 26806 -16831 -77493 -138146 -180476 -194088 
3803.288 -177595 -138113 -88326 -42807 -13783 -9277 -29819 -68018 -110719 
3807.628 -143744 -157921 -151826 -130097 -99324 -66064 -33397 -563 34957 
3811.968 76082 123342 173193 218341 250167 259649 243073 203689 153271 
3816.307 107930 82113 82743 106936 145151 182640 204949 201203 166232 104815 
3821.129 30782 -36081 -79713 -92003 -74843 -37373 8515 51924 85427 105644 
3825.951 113565 113532 111311 111609 116514 125463 135937 145051 150520 
3830.290 151283 148233 143262 138953 138190 143494 156221 176640 203523 
3834.630 233657 262567 284383 293600 286239 262235 224541 180618 138323 
3838.969 104649 82511 71177 67598 67300 66836 64052 58949 52951 48477 48212 
3844.273 54376 68029 88708 114957 143924 173126 200341 224839 248079 272944 
3849.095 303017 340983 386183 433443 473179 491788 474838 413278 308885 
3853.435 178794 49737 -53276 -116583 -139770 -131787 -103432 -63148 -16500 
3857.774 33963 86919 141207 194208 243172 284151 314589 333655 341713 340287 
3862.596 330869 313992 290119 260511 228718 200341 181977 178562 190728 
3866.936 214198 240023 257991 258588 237404 197888 151316 113565 96265 
3871.275 104318 132390 170508 205844 228784 235017 226298 210054 195601 
3875.615 191258 200440 221822 250631 279774 303017 315285 314356 301392 
3879.955 280702 258356 241548 235713 242940 262169 288560 315318 334484 
3884.294 339325 326658 299204 264788 234685 219734 225403 250366 287665 
3888.634 327487 359387 374874 369402 344067 305669 263793 228751 207733 
3892.973 203424 214330 237569 268601 304144 341215 377958 412051 441802 
3897.313 464986 480079 486448 484855 477359 466811 455699 445583 436694 
3901.653 427540 415732 399979 379185 354645 328780 305139 286869 276260 
3905.992 273740 278879 290384 306432 325232 346024 367280 388139 407806 
3910.332 425583 440806 453908 465418 476131 487310 499318 511559 522705 
3914.671 530468 532658 528278 517563 502436 486315 472516 463626 460873 
3919.011 464190 471919 483164 496764 512123 528677 545695 561620 574493 
3923.351 581759 582190 575687 564042 549909 536738 527084 521876 520814 
3927.690 522473 524961 526819 527084 525425 521445 515241 506417 495006 
3932.030 481306 466744 452946 441702 434571 431719 432680 436329 441204 
3936.369 446545 451984 457988 464986 473445 482998 492584 501275 507346 
3940.709 510232 509569 505787 499849 493181 486812 482069 479714 479946 
3945.049 482434 486680 491656 496499 500778 504692 508374 513251 519686 
3949.388 527681 536937 545894 553459 558800 561620 562715 563113 563942 
3953.728 565336 567526 569516 570810 570976 570346 569383 569052 569218 
3958.067 569483 568720 565701 559497 550174 538828 527416 517961 512355 
3962.407 511327 515175 522805 532790 543804 554587 564009 572038 578209 
3966.747 582489 585209 586371 585906 584280 581792 578972 576450 575355 
3971.086 576218 579635 585541 593405 601965 610492 618190 625092 631695 
3975.426 639029 647590 657877 669060 679845 688972 695144 698330 698762 
3979.765 697866 696571 695609 694979 694215 691992 687611 680808 671980 
3984.105 662257 653298 645864 641451 639792 640721 643309 646794 650278 
3988.445 653530 656317 659204 663020 668330 675697 684923 695078 705067 
3992.784 713730 720135 723719 725147 724947 724217 723587 723222 722857 
3997.124 722525 721662 720002 718210 716219 713796 711406 708486 
##END=
