
##TITLE=1708_1_b
##JCAMP-DX=5.01  $$ Nicolet v. 1
##DATATYPE=INFRARED SPECTRUM
##ORIGIN=UniL
##OWNER=Nicolet
##LONGDATE=2011/09/08
##TIME=11:54:45
##SPECTROMETER/DATA SYSTEM=Nicolet iS5
##DATA PROCESSING=
Ratio against background
%Transmittance->Absorbance
Truncated
ElementMultiply or ElementDivide
##COMMENTS=
Number of sample scans: 32
Collection length: 51.16 sec
Sample gain: 2.0
Background collected on: Jeu Sep 08 11:48:24 2011 (GMT+02:00);
Number of background scans: 32
Background gain: 2.0
Sample spacing:  1.000
Number of scan points: 12415
Resolution points: 8192
Number of FFT points: 65536
Apodization: N-B fort;
Phase correction: Mertz;
Laser frequency: 15798.0 cm-1
Number of rejected sample scans: 0
Number of rejected background scans: 0
Bench serial number: ASB1000141;
##RESOLUTION=4.000
##XUNITS=1/CM
##YUNITS=ABSORBANCE
##FIRSTX=649.893372
##LASTX=4000.122314
##FIRSTY=0.095612
##MAXX=4000.122314
##MINX=649.893372
##MAXY=0.273369
##MINY=-0.001309
##XFACTOR=1.000000
##YFACTOR=1.000000E-009
##NPOINTS=6950
##DELTAX=0.482117
##ZPD=6100
##XYDATA=(X++(Y..Y))
649.893 95611816 95352728 95219248 95218176 95323848 95492080 95676488 
653.268 95850112 96011888 96181712 96384448 96635296 96934696 97270368 
656.643 97631696 98021008 98455608 98962872 99563608 100258032 101022976 
660.018 101820384 102615360 103393120 104166640 104968456 105837080 
662.911 106797032 107848520 108968856 110124704 111282576 112406456 
665.803 113455784 114368040 115044800 115374072 115276024 114763768 
668.696 113943640 112949624 111866568 110705696 109424744 107968360 
671.589 106302416 104435760 102426640 100358720 98324320 96388048 94574768 
674.963 92878928 91281344 89767800 88336280 86995088 85751784 84604624 
678.338 83538976 82533648 81569544 80638960 79746800 78907848 78136544 
681.713 77440696 76817688 76257736 75747256 75274784 74833392 74418568 
685.088 74025272 73646160 73271456 72892056 72504488 72112296 71725000 
688.463 71353592 71005400 70679080 70364584 70046384 69710720 69348992 
691.838 68960616 68550544 68126792 67695928 67262992 66833764 66418292 
695.212 66031516 65694040 65424384 65231472 65108164 65027760 64950408 
698.587 64827448 64617000 64293644 63852876 63310756 62697000 62048948 
701.962 61399188 60774368 60193148 59665348 59195984 58786188 58434236 
705.337 58135528 57882600 57665348 57472488 57294120 57124172 56960980 
708.712 56808460 56673924 56569364 56509732 56512640 56599936 56793016 
712.086 57107204 57545152 58088180 58690936 59282112 59780164 60104704 
715.461 60195812 60030852 59626084 59035464 58333648 57612152 56966496 
718.836 56484752 56256016 56359788 56853248 57759768 59043396 60598256 
722.211 62234368 63711456 64779252 65211988 64881192 63777692 62021620 
725.586 59822680 57438148 55117720 53036212 51290856 49898532 48820092 
728.961 47990528 47343788 46833176 46427424 46108928 45865928 45685080 
732.335 45551776 45452912 45377536 45320304 45279812 45256312 45250172 
735.710 45260396 45286212 45328284 45388384 45468916 45571428 45694468 
739.085 45834296 45986580 46148832 46321800 46509252 46715236 46940292 
742.460 47179168 47420060 47646292 47841904 47992416 48086864 48116548 
745.835 48071836 47940612 47709304 47366400 46908436 46345244 45701976 
749.209 45013424 44319904 43659072 43058000 42533284 42092360 41735732 
752.584 41461408 41266388 41146968 41097864 41112252 41181648 41296308 
755.959 41445404 41618112 41801324 41981320 42144860 42280556 42383304 
759.334 42455824 42509312 42559816 42624656 42717576 42844896 43006340 
762.709 43197676 43416264 43665340 43959096 44322840 44797848 45440000 
766.083 46311512 47479008 48992272 50862256 53036512 55385188 57710076 
769.458 59750924 61256548 62040768 62031480 61307408 60083168 58666776 
772.833 57350076 56350620 55748348 55472900 55331892 55074500 54488792 
776.208 53445000 51942608 50092296 48085716 46131696 44397736 42997780 
779.583 41970300 41294992 40913716 40757372 40764508 40885684 41089924 
782.958 41358768 41680800 42050304 42464812 42924844 43433400 43995248 
786.332 44615536 45299196 46050900 46876284 47782052 48777344 49872700 
789.707 51078816 52406664 53867044 55471808 57237224 59183224 61333472 
793.082 63713072 66341920 69229592 72369856 75739016 79295200 82979368 
796.457 86726608 90468224 94142760 97711808 101168920 104552464 107940784 
799.832 111449872 115204784 119298080 123757416 128500592 133324784 
802.724 137881840 141733072 144425232 145540960 144831152 142270112 
805.617 138085120 132701736 126656976 120500328 114633288 109274416 
808.510 104435216 99966008 95629736 91196112 86532008 81622600 76575664 
811.885 71564472 66789248 62417420 58548388 55221780 52420272 50093336 
815.259 48173632 46595300 45300924 44238340 43365736 42649364 42062500 
818.634 41589668 41222924 40960320 40801596 40745184 40786236 40918300 
822.009 41135236 41434068 41816096 42285596 42847380 43504560 44256720 
825.384 45099984 46027652 47029784 48092600 49197804 50320112 51432120 
828.759 52509184 53537348 54523544 55500952 56533544 57704664 59113288 
832.133 60860624 63024036 65645664 68704296 72104592 75652048 79056408 
835.508 81978728 84036752 84897208 84353864 82361232 79066456 74764984 
838.883 69864992 64780212 59865120 55396556 51527396 48309892 45718616 
842.258 43682228 42109480 40907088 39997472 39314416 38803912 38426552 
845.633 38151812 37959328 37837700 37780404 37783116 37840192 37943668 
849.008 38085256 38258692 38461560 38695924 38966080 39275676 39625392 
852.382 40012440 40432172 40881532 41361428 41877864 42439820 43056864 
855.757 43736972 44485204 45305852 46205252 47193760 48288300 49511964 
859.132 50891500 52459116 54251196 56305052 58660596 61348240 64377144 
862.507 67715608 71276944 74911896 78398128 81480792 83897296 85409648 
865.882 85866112 85214512 83519504 80942464 77724768 74148000 70470968 
869.256 66924632 63678236 60827536 58415624 56438564 54865452 53650028 
872.631 52744184 52104896 51692700 51475656 51427572 51525980 51754436 
876.006 52103144 52569428 53157268 53875632 54733548 55734036 56867868 
879.381 58106968 59405604 60696708 61898796 62932796 63724928 64225764 
882.756 64420952 64333140 64020252 63558660 63036836 62531820 62098948 
886.131 61773068 61566500 61477856 61500108 61626488 61853064 62176860 
889.505 62593432 63094340 63665724 64291148 64952948 65634452 66322200 
892.880 67003808 67667200 68300320 68890240 69425528 69898464 70304936 
896.255 70645240 70922688 71143472 71315944 71451576 71566624 71680176 
899.630 71812408 71980688 72194032 72451088 72739832 73041984 73338616 
903.005 73615776 73870144 74108584 74347904 74608640 74914888 75290264 
906.379 75755504 76331240 77034968 77880616 78877928 80031480 81340800 
909.754 82803360 84416240 86178752 88093192 90163944 92396176 94795376 
913.129 97367960 100124448 103083696 106273856 109733352 113506008 117630552 
916.504 122134856 127025080 132280664 137844064 143615616 149454256 
919.397 155153328 160453824 165064864 168666944 170989680 171865344 
922.289 171278592 169401120 166585632 163352112 160269808 157919520 
925.182 156814880 157289472 159481488 163277696 168340496 174098720 
928.075 179824912 184790064 188296704 189840896 189188384 186355760 
930.967 181577744 175203472 167643376 159281184 150449264 141452736 
933.860 132548408 123963752 115910896 108557352 102034312 96434304 91801048 
937.235 88147376 85460800 83712440 82858768 82835232 83552200 84872232 
940.610 86607112 88537384 90403024 91950072 92971472 93315800 92924728 
943.985 91831752 90155752 88068880 85764864 83439152 81245184 79289712 
947.359 77632328 76286256 75235336 74446256 73883656 73513768 73308168 
950.734 73244744 73302248 73460320 73701008 74007480 74367208 74772896 
954.109 75219536 75703480 76220104 76763040 77325352 77901944 78490816 
957.484 79093208 79712648 80351384 81008736 81680616 82360384 83042704 
960.859 83725336 84409880 85100344 85801200 86514136 87238416 87970880 
964.233 88709432 89453872 90207256 90973472 91755168 92551632 93359144 
967.608 94172392 94987528 95804616 96627136 97460512 98308904 99172536 
970.983 100048352 100931624 101819800 102714280 103620704 104546776 
973.876 105498904 106478776 107484120 108510344 109554600 110617456 
976.768 111703528 112818528 113965256 115140592 116335576 117537032 
979.661 118732400 119912688 121073128 122210848 123321984 124398496 
982.554 125429392 126403216 127312792 128157976 128947048 129692808 
985.447 130408032 131102848 131783368 132453544 133118688 133788032 
988.339 134473200 135186800 135937472 136727712 137553616 138408960 
991.232 139288544 140191184 141120128 142079680 143072160 144094752 
994.125 145140576 146200992 147270704 148349488 149441760 150552960 
997.017 151685184 152835008 153994464 155154272 156309504 157462048 
999.910 158620656 159797168 161001312 162238736 163510592 164817072 
1002.803 166161040 167550288 168995552 170507136 172089104 173738400 
1005.695 175445648 177201328 179001056 180848528 182753904 184728864 
1008.588 186779968 188904768 191091440 193322736 195581168 197849664 
1011.481 200110480 202341920 204511008 206576128 208494128 210227152 
1014.374 211756448 213085856 214241936 215262704 216189296 217059632 
1017.266 217903024 218744896 219611248 220527200 221517824 222601936 
1020.159 223786848 225070160 226443648 227902752 229454112 231118176 
1023.052 232923088 234898656 237064096 239423984 241968576 244679888 
1025.945 247538480 250523056 253608144 256755472 259901072 262959296 
1028.838 265823696 268374480 270501216 272101600 273083392 273368672 
1031.731 272883520 271566272 269383136 266337808 262485712 257925920 
1034.624 252798912 247262384 241466560 235560816 229678256 223936400 
1037.517 218451760 213327104 208649248 204492032 200902976 197907872 
1040.410 195512560 193701632 192435328 191637328 191192896 190929712 
1043.303 190618736 190012992 188853072 186921872 184094928 180348656 
1046.196 175773600 170542560 164892800 159075312 153314096 147806176 
1049.089 142689360 138043872 133903664 130259392 127072680 124286312 
1051.982 121839464 119674320 117740376 116000336 114425336 112991016 
1054.875 111676152 110458608 109315672 108228240 107180368 106161592 
1057.768 105165760 104187912 103222392 102261656 101297512 100324656 
1060.661 99343264 98361224 97392424 96453872 95563464 94736152 93982816 
1064.037 93311488 92726472 92227416 91806624 91446592 91116944 90774264 
1067.412 90371200 89859480 89202136 88381928 87403184 86291744 85086600 
1070.787 83837448 82593072 81395344 80279064 79266248 78367496 77582928 
1074.162 76903864 76315168 75798072 75334560 74909064 74509536 74127680 
1077.538 73756608 73389144 73017480 72633792 72232568 71813384 71382448 
1080.913 70952680 70540384 70163984 69840440 69583136 69403688 69312144 
1084.288 69318048 69432104 69663800 70021320 70510168 71132768 71889304 
1087.663 72778184 73796504 74937720 76189816 77533528 78940944 80377736 
1091.039 81812208 83217688 84579856 85897656 87179808 88437856 89678496 
1094.414 90898264 92083088 93213408 94270104 95245696 96150992 97019536 
1097.789 97901640 98855856 99936352 101170216 102544024 103988952 105388696 
1101.164 106581120 107382112 107631240 107206872 106059720 104219880 
1104.057 101791608 98932240 95814496 92618808 89499104 86568160 83904928 
1107.433 81546720 79499080 77743872 76248184 74971624 73869664 72901856 
1110.808 72031840 71227392 70463600 69719192 68976496 68222888 67450224 
1114.183 66656768 65847092 65032952 64229952 63454540 62722692 62046312 
1117.558 61432892 60885932 60405916 59991708 59640644 59348888 59111236 
1120.934 58920540 58769040 58648572 58550628 58465776 58382232 58281996 
1124.309 58142384 57933748 57623956 57186120 56601524 55867184 54995628 
1127.684 54015528 52965572 51886224 50817336 49790160 48824356 47929880 
1131.059 47107036 46349448 45646800 44987916 44362252 43761964 43182488 
1134.435 42623304 42087176 41578512 41102200 40661888 40259460 39895324 
1137.810 39569164 39281372 39032844 38825324 38659880 38536176 38452036 
1141.185 38404220 38389124 38404472 38449972 38526836 38636556 38779928 
1144.560 38955564 39160428 39390092 39640164 39907240 40188544 40481228 
1147.936 40782048 41086724 41390696 41690136 41983220 42270436 42554264 
1151.311 42838092 43124924 43416412 43713372 44016036 44324784 44640324 
1154.686 44963184 45292832 45626704 45960500 46288988 46606036 46906812 
1158.061 47186960 47442344 47668184 47858588 48006108 48103892 48146016 
1161.437 48129064 48052260 47916820 47724948 47478864 47180976 46834096 
1164.812 46442172 46011520 45550048 45066900 44571804 44073280 43578952 
1168.187 43096056 42631160 42191556 41785160 41419196 41100016 40832388 
1171.562 40618988 40461516 40361368 40320716 40343152 40432532 40592432 
1174.938 40825620 41134072 41519664 41985628 42537708 43183952 43934456 
1178.313 44799572 45788452 46909652 48170820 49579928 51147320 52884504 
1181.688 54803912 56917800 59235400 61762984 64501552 67445888 70579280 
1185.063 73867192 77256704 80663656 83977208 87072496 89807280 92047288 
1188.438 93682688 94629672 94847608 94339520 93151856 91365656 89087168 
1191.814 86441032 83546496 80515264 77446472 74415184 71481072 68687680 
1195.189 66061796 63619264 61365336 59296960 57405436 55678132 54102552 
1198.564 52666336 51359504 50175744 49110532 48161044 47324428 46596628 
1201.939 45971736 45442868 45001476 44639772 44350252 44124956 43955540 
1205.315 43831748 43740928 43670432 43607304 43541404 43466984 43381956 
1208.690 43287756 43187648 43085660 42986000 42893280 42813408 42753952 
1212.065 42724160 42734432 42794724 42913580 43098356 43354204 43685088 
1215.440 44094076 44582236 45148840 45789964 46499516 47269376 48091864 
1218.816 48961448 49875300 50833576 51838060 52891388 53996544 55156768 
1222.191 56377140 57664708 59027720 60473968 62007824 63627324 65323048 
1225.566 67078472 68872072 70677288 72466744 74211168 75878880 77440616 
1228.941 78869464 80145592 81260968 82220664 83044032 83759888 84407464 
1232.317 85032600 85683448 86415888 87289336 88362760 89697928 91350080 
1235.692 93363704 95772936 98597408 101843968 105507432 109572088 114009888 
1239.067 118774696 123806056 129024776 134334944 139641888 144849888 
1241.960 149871456 154633616 159067040 163104064 166679584 169723520 
1244.853 172167120 173949072 175010880 175303824 174791152 173449664 
1247.746 171279488 168308272 164593840 160214080 155254848 149800288 
1250.639 143916656 137656416 131065336 124191256 117098328 109873512 
1253.532 102617288 95447456 88486152 81839816 75604760 69852040 64621076 
1256.908 59925556 55752340 52069412 48830844 45985476 43483500 41275136 
1260.283 39317824 37575832 36018236 34622168 33369806 32246254 31238780 
1263.658 30334566 29519962 28782394 28110976 27497456 26937504 26428448 
1267.033 25968140 25553688 25180112 24842150 24535620 24259436 24015958 
1270.409 23810102 23648286 23535918 23476214 23471666 23524304 23638314 
1273.784 23820708 24079800 24423792 24857870 25380400 25981438 26640376 
1277.159 27327908 28004444 28623282 29138886 29508012 29700196 29704168 
1280.534 29528792 29202032 28763172 28257418 27724456 27192608 26679202 
1283.910 26190544 25727114 25288060 24874290 24488608 24135456 23817732 
1287.285 23537038 23292740 23083942 22909856 22770374 22665144 22592120 
1290.660 22546712 22523052 22515200 22519806 22537884 22574530 22636972 
1294.035 22731754 22862948 23031636 23236878 23478696 23759388 24084422 
1297.411 24461824 24899658 25404956 25983758 26640658 27379394 28201480 
1300.786 29103136 30070758 31075988 32078340 33022910 33849852 34506852 
1304.161 34951420 35161944 35138516 34901968 34489348 33947148 33329808 
1307.536 32688868 32070742 31514130 31043456 30669790 30391704 30198076 
1310.912 30073066 30000454 29967542 29965022 29985898 30023780 30070438 
1314.287 30116354 30152898 30173214 30173960 30155632 30119656 30067240 
1317.662 29997578 29908472 29797880 29666350 29517870 29359658 29199234 
1321.037 29043332 28895136 28755382 28624626 28505162 28402458 28325282 
1324.413 28282596 28281888 28327580 28420784 28562058 28752516 28995298 
1327.788 29293404 29647156 30051760 30494700 30959618 31428810 31887778 
1331.163 32328344 32748532 33149704 33533138 33897208 34235800 34541724 
1334.538 34807760 35030464 35210736 35353552 35466292 35557224 35636092 
1337.914 35714440 35806468 35930084 36104284 36344552 36661012 37055532 
1341.289 37523304 38056356 38647316 39291056 39984068 40723528 41505300 
1344.664 42323688 43173044 44049812 44952712 45880952 46828228 47775988 
1348.039 48690308 49518168 50193076 50650128 50829740 50694064 50232876 
1351.415 49465068 48436004 47208864 45862612 44477128 43126384 41877428 
1354.790 40778920 39861656 39137944 38603276 38241504 38031324 37953104 
1358.165 37990532 38130976 38364004 38677996 39059560 39496656 39980652 
1361.540 40510800 41093456 41739780 42457904 43244892 44084356 44945916 
1364.916 45790628 46571476 47241116 47752392 48058292 48122028 47920372 
1368.291 47450548 46732872 45807712 44729308 43550236 42318864 41072188 
1371.666 39833652 38622436 37458032 36365300 35378716 34535160 33863032 
1375.041 33374242 33059560 32895404 32852694 32911130 33064994 33326552 
1378.417 33722456 34289976 35076260 36131436 37509976 39264400 41426596 
1381.792 43987840 46870600 49927336 52927392 55588008 57631144 58788648 
1385.167 58861420 57756852 55520304 52358104 48600360 44659784 40904288 
1388.542 37585372 34825532 32625284 30915462 29597032 28575860 27772422 
1391.917 27124814 26591868 26146096 25772958 25469356 25239314 25089252 
1395.293 25022418 25034982 25117056 25255714 25437208 25650410 25887350 
1398.668 26142718 26414468 26702456 27008334 27333342 27677698 28038512 
1402.043 28410524 28786040 29156568 29515884 29861016 30192182 30510838 
1405.418 30817774 31111118 31387634 31645690 31888310 32124400 32368042 
1408.794 32634892 32936760 33280578 33666632 34091700 34552236 35047312 
1412.169 35577328 36141084 36731896 37336224 37935352 38513188 39063076 
1415.544 39592796 40125524 40696928 41348888 42118352 43029900 44083660 
1418.919 45248884 46467140 47665816 48778424 49752112 50555568 51180348 
1422.295 51640156 51976032 52254804 52566924 52999076 53613440 54433316 
1425.670 55442368 56602012 57870524 59221124 60641000 62126396 63674896 
1429.045 65277912 66923588 68603968 70325704 72111128 73989720 75988592 
1432.420 78119248 80378568 82753528 85237976 87847152 90617488 93600720 
1435.796 96837336 100329624 104017912 107801160 111578936 115280520 
1438.689 118867648 122308760 125559000 128530208 131089256 133089688 
1441.582 134374128 134812112 134323968 132879392 130508216 127294544 
1444.475 123383920 118963592 114235688 109419840 104713352 100284784 
1447.368 96275960 92776440 89815136 87351120 85292688 83522360 81932552 
1450.743 80462784 79109152 77923040 76979384 76348904 76062128 76098488 
1454.118 76388488 76832360 77327800 77777440 78122024 78361336 78566168 
1457.494 78848240 79311032 80029360 81033936 82329872 83908752 85749320 
1460.869 87814624 90043016 92357360 94649080 96776832 98589304 99929640 
1464.244 100683176 100820320 100414536 99618368 98600608 97515128 96469016 
1467.619 95523000 94713528 94054120 93540256 93146232 92821688 92494560 
1470.995 92076624 91495472 90723632 89802760 88832760 87934944 87207432 
1474.370 86698976 86422720 86375744 86555344 86965208 87607864 88473032 
1477.745 89528992 90722944 91993600 93275384 94516680 95690000 96793064 
1481.120 97851000 98907112 100016776 101235216 102617376 104224856 106124064 
1484.496 108386616 111076576 114227504 117813952 121721744 125754416 
1487.389 129614072 132928072 135311488 136384432 135863040 133641480 
1490.282 129830928 124754552 118844392 112547688 106204872 100012936 
1493.175 94069008 88388104 82962000 77815008 73013712 68676576 64949676 
1496.550 61955008 59752980 58327392 57612000 57515156 57947644 58836040 
1499.925 60113344 61713596 63570664 65608284 67745040 69902160 71982872 
1503.301 73874856 75440464 76480704 76742440 75939848 73836248 70398368 
1506.676 65906508 60895884 55900988 51254724 47049688 43232372 39711720 
1510.051 36423528 33343542 30489830 27897940 25593542 23585242 21857992 
1513.426 20382092 19122908 18048040 17128628 16335372 15640244 15021131 
1516.802 14465825 13977536 13569373 13253647 13030702 12884013 12781084 
1520.177 12686810 12577209 12455871 12354679 12317182 12370771 12512204 
1523.552 12713763 12938218 13158416 13363761 13565681 13788968 14059975 
1526.927 14391289 14777120 15198568 15636396 16080443 16532620 17003876 
1530.302 17506308 18046900 18624722 19233828 19868170 20528104 21221572 
1533.678 21959296 22742894 23561732 24393020 25212064 25994910 26724268 
1537.053 27392134 27993948 28528548 28993704 29382452 29682102 29880042 
1540.428 29976348 29986430 29936694 29851364 29739224 29591606 29385536 
1543.803 29098670 28720620 28264136 27761682 27255720 26778852 26340072 
1547.179 25926670 25511834 25070718 24592244 24088346 23588740 23130312 
1550.554 22736784 22410034 22132372 21878862 21629960 21380294 21139956 
1553.929 20928712 20764002 20650364 20576288 20517370 20444360 20323650 
1557.304 20121132 19808412 19375714 18853674 18314218 17841540 17487576 
1560.680 17258380 17129180 17063732 17027236 16990264 16934416 16854288 
1564.055 16758921 16668255 16604563 16582945 16603874 16654070 16712913 
1567.430 16762156 16791326 16801590 16804344 16816194 16851120 16914538 
1570.805 17004804 17116840 17246314 17389412 17541840 17695840 17837536 
1574.181 17949718 18017406 18035918 18018648 17995820 18003486 18062928 
1577.556 18173164 18315636 18466418 18605632 18721680 18812912 18883296 
1580.931 18938948 18983806 19018906 19043242 19056570 19060932 19060448 
1584.306 19058440 19054044 19040438 19007240 18943792 18845472 18717010 
1587.682 18572986 18433644 18320164 18250942 18237742 18288160 18407060 
1591.057 18597402 18858588 19182156 19548700 19926028 20273030 20550614 
1594.432 20726642 20785450 20730186 20580388 20364694 20113462 19855546 
1597.807 19614870 19411608 19265762 19195836 19217446 19341520 19571436 
1601.183 19904210 20333338 20852190 21454508 22132128 22872414 23652170 
1604.558 24436728 25185484 25851340 26388870 26762112 26944236 26923718 
1607.933 26703864 26302544 25747962 25073210 24317392 23519966 22719536 
1611.308 21953474 21249060 20621906 20073520 19593136 19162626 18760632 
1614.684 18369314 17976826 17581932 17196118 16842508 16548729 16336473 
1618.059 16215697 16182266 16221991 16313285 16432676 16559502 16677929 
1621.434 16783096 16882914 16996536 17146654 17349306 17608154 17913806 
1624.809 18250562 18605184 18971204 19348794 19739682 20143240 20552630 
1628.185 20956042 21341730 21702998 22040544 22360878 22671428 22975354 
1631.560 23268968 23541796 23779616 23969002 24099274 24166316 24173252 
1634.935 24132758 24063060 23985494 23917920 23869398 23839538 23820672 
1638.310 23800196 23762958 23693982 23583142 23427950 23236388 23023600 
1641.686 22807632 22601194 22406544 22214700 22007918 21765698 21469616 
1645.061 21111606 20697624 20250742 19805950 19401284 19067754 18820246 
1648.436 18658688 18571568 18540654 18542210 18544906 18510432 18390674 
1651.811 18138406 17734428 17220596 16703892 16294535 16043792 15929731 
1655.187 15897663 15892541 15877591 15834669 15758902 15654601 15528967 
1658.562 15387989 15233466 15063048 14872157 14656845 14415916 14151910 
1661.937 13871747 13585577 13305984 13044838 12811217 12609169 12436947 
1665.312 12286368 12144871 11996880 11826092 11619432 11370352 11082051 
1668.688 10767652 10447031 10141434 9866795 9630912 9433623 9269053 9127656 
1672.545 8996555 8861400 8706952 8521874 8304959 8070294 7845406 7659010 
1676.402 7530239 7459446 7433458 7431941 7437907 7442322 7446030 7456985 
1680.260 7484997 7534756 7601717 7673376 7731993 7762992 7763599 7750005 
1684.117 7753615 7807317 7926351 8101992 8313639 8540358 8769224 8993273 
1687.975 9209957 9418860 9618344 9806702 9983512 10150660 10313393 10477409 
1691.832 10646717 10819793 10988927 11140179 11257851 11328688 11351032 
1695.207 11338755 11321103 11329436 11378787 11461176 11549603 11610515 
1698.583 11608643 11519320 11340183 11102412 10862800 10673441 10556300 
1701.958 10498352 10469059 10435288 10372029 10264468 10107689 9907912 
1705.333 9680274 9444188 9216117 9005384 8813518 8636169 8466529 8297562 
1709.190 8124780 7946666 7764679 7582363 7403899 7231909 7066958 6907154 
1713.048 6750066 6593372 6437172 6283213 6133677 5989400 5848932 5709046 
1716.905 5567863 5429142 5304083 5206925 5148881 5132721 5152100 5194919 
1720.763 5247435 5298380 5342355 5379556 5415554 5457527 5511517 5579174 
1724.620 5657717 5741277 5824114 5901997 5972133 6032873 6082230 6117345 
1728.478 6135962 6137542 6125209 6103769 6078232 6049470 6011169 5949492 
1732.335 5845137 5682156 5458466 5195557 4935018 4722164 4581502 4509448 
1736.192 4483870 4477007 4466696 4438108 4387196 4318252 4242862 4173640 
1740.050 4119549 4084394 4065631 4059376 4061718 4070882 4085665 4105433 
1743.907 4128580 4153669 4179261 4204519 4229813 4254607 4278096 4297271 
1747.765 4307578 4304666 4284789 4246710 4191673 4123696 4049176 3975604 
1751.622 3911072 3862262 3832777 3822582 3828098 3842037 3854606 3856512 
1755.479 3840901 3806504 3759343 3710215 3671017 3648596 3642281 3644085 
1759.337 3642983 3627613 3591296 3533569 3461153 3385143 3316392 3262574 
1763.194 3226120 3205057 3194910 3191038 3188568 3182727 3169242 3144811 
1767.052 3109102 3065219 3020107 2981372 2953449 2936035 2922658 2904212 
1770.909 2871924 2822763 2762671 2705887 2667913 2658545 2677548 2716390 
1774.767 2763538 2809057 2848043 2881130 2911517 2942607 2974900 3005026 
1778.624 3028282 3039793 3038992 3029450 3018372 3012901 3016471 3027781 
1782.481 3041629 3051972 3054475 3048569 3036757 3023744 3013268 3006928 
1786.339 3004559 3005026 3008163 3015169 3027381 3044832 3064485 3080903 
1790.196 3086343 3074496 3043030 2996319 2944275 2897874 2865520 2849778 
1794.054 2847376 2852713 2860184 2867155 2872425 2876494 2878862 2878528 
1797.911 2873459 2862418 2845876 2826332 2808223 2795717 2791182 2794650 
1801.769 2804021 2816827 2831635 2848210 2867555 2890069 2915086 2940572 
1805.626 2963957 2983841 2999955 3014002 3028215 3043564 3059247 3072961 
1809.483 3081704 3083806 3080403 3075097 3072494 3076165 3086376 3100859 
1813.341 3115509 3126823 3134031 3138770 3145212 3157694 3178988 3209597 
1817.198 3247184 3288814 3331884 3375292 3419206 3464293 3510587 3557487 
1821.056 3603390 3646692 3686389 3721845 3752792 3778962 3800421 3817735 
1824.913 3832945 3849726 3871488 3900608 3936182 3974100 4007439 4029277 
1828.771 4035832 4028909 4017171 4012021 4024996 4061450 4119047 4189966 
1832.628 4264612 4335053 4397304 4452100 4502919 4554581 4610368 4671621 
1836.485 4738477 4810536 4889074 4976743 5076733 5191164 5320149 5461050 
1840.343 5609750 5761523 5913148 6061734 6206069 6345073 6478907 6608107 
1844.200 6734923 6862684 6994591 7132096 7272945 7411853 7540521 7649534 
1848.058 7731387 7781342 7798344 7784716 7744204 7680627 7596086 7492009 
1851.915 7370196 7233795 7087973 6938665 6790519 6645788 6503224 6360102 
1855.772 6213497 6062776 5910293 5760684 5618142 5485578 5362918 5248173 
1859.630 5139225 5035434 4938001 4849033 4770100 4700158 4635920 4573131 
1863.487 4508945 4443564 4379799 4322402 4274985 4237208 4205590 4174042 
1867.345 4137009 4093492 4048005 4009111 3986372 3985837 4006871 4044025 
1871.202 4088207 4131557 4167652 4192710 4205088 4203884 4189130 4161697 
1875.060 4123897 4080213 4035430 3994330 3959153 3928324 3897365 3860523 
1878.917 3813624 3755767 3690365 3622401 3557520 3498595 3445489 3395863 
1882.774 3347277 3299131 3253760 3215104 3186565 3169109 3160331 3155291 
1886.632 3148182 3135900 3117578 3095486 3072928 3053541 3039660 3032353 
1890.489 3032052 3039326 3054842 3078167 3107633 3139037 3167073 3187300 
1894.347 3197981 3200651 3200050 3201319 3207694 3218676 3231194 3241042 
1898.204 3245748 3246383 3247585 3254061 3269518 3293522 3322435 3350282 
1902.062 3372588 3388182 3399236 3409655 3423347 3440847 3460385 3478554 
1905.919 3492082 3500499 3505476 3510052 3516532 3524883 3532800 3537844 
1909.776 3538345 3535372 3532600 3533702 3540584 3553010 3567643 3580705 
1913.634 3590060 3596040 3600283 3604593 3608301 3608034 3599080 3578233 
1917.491 3546296 3510019 3479055 3461153 3459216 3468568 3479723 3481327 
1921.349 3466263 3433199 3388349 3342035 3303504 3278698 3267648 3266580 
1925.206 3271287 3279967 3293021 3312485 3339130 3370050 3400003 3422545 
1929.063 3433733 3433867 3427087 3419206 3415299 3416300 3420274 3423714 
1932.921 3425250 3426286 3430995 3443819 3465595 3492950 3519171 3536575 
1936.778 3541820 3537143 3529894 3528658 3539548 3562598 3592465 3620730 
1940.636 3640276 3648730 3648596 3646190 3646524 3652004 3660592 3669146 
1944.493 3675896 3683615 3697884 3725488 3769838 3829535 3897599 3965305 
1948.351 4026233 4078240 4123696 4166715 4209839 4251896 4288135 4312865 
1952.208 4323206 4321700 4315007 4310924 4314672 4325649 4338433 4344457 
1956.065 4336826 4314538 4281108 4244067 4210742 4184814 4165377 4149822 
1959.923 4135203 4121221 4110952 4107941 4113895 4127877 4146209 4165478 
1963.780 4185015 4207731 4238613 4280640 4332275 4386225 4431380 4458092 
1967.638 4461741 4445673 4418526 4388803 4362697 4340340 4317550 4290980 
1971.495 4261466 4234698 4220345 4227136 4257551 4307477 4368152 4431614 
1975.353 4495286 4563220 4643689 4742027 4855466 4970945 5069458 5134598 
1979.210 5157096 5139628 5092958 5031612 4966823 4903986 4841661 4776934 
1983.067 4709603 4642919 4584616 4542058 4519425 4515106 4522304 4531947 
1986.925 4538442 4539681 4537706 4534859 4531578 4524413 4508175 4479283 
1990.782 4440585 4399614 4369993 4363734 4386393 4434191 4495620 4557058 
1994.640 4606617 4638934 4656214 4663784 4668339 4673597 4679793 4684917 
1998.497 4687195 4686626 4684583 4682707 4680631 4674602 4659832 4630762 
2002.354 4586860 4531779 4473391 4421873 4386159 4370696 4377457 4405639 
2006.212 4452669 4516914 4595131 4679994 4761792 4827020 4864044 4866088 
2010.069 4835095 4779915 4716369 4660669 4625036 4615558 4632671 4671353 
2013.927 4726485 4792277 4863105 4933108 4996250 5046227 5080655 5101675 
2017.784 5116360 5135336 5167457 5215576 5276143 5339571 5395525 5438134 
2021.642 5467996 5492927 5523229 5566118 5622404 5684606 5742117 5783046 
2025.499 5800776 5795000 5770723 5735636 5696490 5657650 5622908 5595586 
2029.356 5579677 5580113 5599312 5636435 5687023 5743795 5801011 5858201 
2033.214 5919630 5994204 6088278 6202473 6329338 6454962 6563735 6644779 
2037.071 6694711 6717929 6724693 6723986 6723245 6724693 6726913 6727788 
2040.929 6726038 6722707 6718871 6715237 6710795 6702988 6689562 6670787 
2044.786 6650465 6634685 6631119 6645418 6680847 6736740 6808357 6889985 
2048.644 6973075 7046785 7100772 7124651 7111853 7062715 6985903 6896886 
2052.501 6814079 6755451 6730851 6740542 6774734 6818253 6857534 6883757 
2056.358 6897424 6904662 6914593 6933211 6961425 6995298 7028634 7056080 
2060.216 7075243 7086727 7092318 7093295 7088445 7075950 7054767 7026311 
2064.073 6995062 6966678 6945197 6931696 6922673 6912371 6895607 6871436 
2067.931 6842050 6813473 6790822 6776384 6768677 6763729 6757840 6750167 
2071.788 6743537 6743066 6752893 6773288 6799707 6824379 6840367 6843867 
2075.646 6836765 6824984 6815459 6813339 6819296 6829865 6840333 6847233 
2079.503 6850196 6851710 6855447 6863997 6876957 6891668 6905201 6915839 
2083.360 6924458 6933918 6946914 6964388 6983849 7000955 7010922 7010956 
2087.218 7002066 6987654 6972334 6959405 6949574 6941291 6932437 6921462 
2091.075 6909308 6898367 6891264 6889412 6892072 6897256 6903450 6911193 
2094.933 6922606 6941628 6970651 7008296 7050894 7091813 7125191 7148533 
2098.790 7163893 7175515 7189124 7208056 7232414 7259468 7285682 7308494 
2102.647 7328914 7349335 7373296 7402820 7437705 7475896 7515607 7556333 
2106.505 7599660 7648421 7705180 7769570 7839029 7908804 7974879 8035595 
2110.362 8092236 8148243 8206891 8269160 8332620 8392679 8444771 8486464 
2114.220 8518664 8545225 8571009 8599498 8631877 8665779 8698027 8726018 
2118.077 8748906 8768312 8787347 8809089 8836105 8869381 8909085 8955354 
2121.935 9007954 9066651 9129991 9195337 9258628 9316579 9367124 9410903 
2125.792 9450893 9491294 9535694 9585384 9639381 9695589 9751802 9807244 
2129.649 9862761 9919980 9980427 10043798 10109113 10175827 10244994 
2133.025 10319602 10404302 10501747 10611811 10728729 10843606 10946960 
2136.400 11032700 11100475 11155341 11204706 11254485 11306276 11355930 
2139.775 11397631 11425456 11437057 11435254 11425423 11413074 11400250 
2143.150 11385827 11365998 11337190 11299134 11254859 11209942 11169483 
2146.526 11134909 11103976 11071005 11030626 10980533 10921001 10854817 
2149.901 10784363 10709676 10627395 10534200 10427956 10310576 10187597 
2153.276 10066112 9950117 9839781 9730726 9618039 9501589 9390418 9301820 
2157.134 9259102 9281578 9376503 9533358 9728082 9929844 10109927 10250151 
2160.991 10343660 10391032 10398464 10371655 10318618 10247539 10168568 
2164.366 10093071 10030337 9983648 9949100 9916590 9872286 9805041 9711106 
2168.224 9594021 9464608 9335165 9215846 9111820 9022500 8943549 8870463 
2172.081 8799789 8730277 8661283 8592807 8524915 8457643 8393320 8336572 
2175.938 8292226 8263824 8249540 8241942 8229211 8198787 8144158 8066581 
2179.796 7976330 7889268 7821554 7784209 7778576 7798479 7831843 7866425 
2183.653 7892170 7903945 7899727 7880226 7847329 7804079 7755706 7709025 
2187.511 7671589 7649095 7644104 7653479 7669026 7681403 7682786 7668925 
2191.368 7641946 7607247 7571270 7539004 7512809 7492076 7476469 7466086 
2195.226 7462210 7466996 7481660 7503909 7529969 7554749 7573967 7586510 
2199.083 7594232 7600031 7606539 7614598 7621511 7624107 7619555 7606202 
2202.940 7585937 7560885 7533913 7506235 7477480 7447075 7415560 7384789 
2206.798 7358300 7338822 7328038 7323859 7323152 7322208 7319276 7316008 
2210.655 7316581 7324904 7343303 7371038 7403056 7433727 7457659 7472828 
2214.513 7480952 7485267 7489683 7496695 7507078 7520125 7534992 7551816 
2218.370 7570865 7591838 7613620 7632976 7646262 7650478 7645656 7633515 
2222.228 7618577 7604179 7591602 7579193 7562774 7538768 7505763 7465850 
2226.085 7423649 7384856 7353380 7329925 7312436 7297913 7284873 7273586 
2229.942 7267453 7269374 7280627 7299328 7320490 7337844 7347684 7349133 
2233.800 7345022 7340776 7341854 7351155 7368882 7392810 7419335 7445895 
2237.657 7470940 7493796 7514292 7531756 7545342 7554479 7559705 7563077 
2241.515 7567022 7573664 7583037 7593861 7603504 7609810 7612642 7614733 
2245.372 7619656 7631560 7652400 7680863 7713375 7744777 7771526 7792036 
2249.229 7807216 7818855 7828774 7837781 7844731 7848544 7848544 7845878 
2253.087 7843112 7842639 7845710 7851513 7857282 7859239 7854313 7841256 
2256.944 7820677 7794566 7765151 7733883 7701436 7668216 7634460 7601785 
2260.802 7571675 7545848 7525283 7509708 7498380 7490661 7487020 7489009 
2264.659 7498144 7515169 7539072 7566313 7592309 7612204 7623332 7625861 
2268.517 7622185 7615879 7610653 7608461 7609473 7612609 7616048 7618476 
2272.374 7618948 7616790 7611867 7604044 7593928 7582396 7571911 7565471 
2276.231 7565302 7572450 7586443 7604145 7621578 7635910 7645116 7649837 
2280.089 7651692 7653243 7655907 7660123 7665181 7669802 7673478 7676209 
2283.946 7678671 7681571 7684809 7687203 7687946 7685652 7680492 7673444 
2287.804 7665991 7659516 7654153 7648960 7642620 7633684 7622084 7608765 
2291.661 7595547 7584622 7576968 7572551 7570157 7568134 7565437 7561627 
2295.519 7557345 7553131 7549894 7547534 7545714 7543657 7541499 7538970 
2299.376 7536577 7534116 7531351 7527002 7520192 7510584 7498785 7485907 
2303.233 7473705 7463322 7455165 7448423 7442087 7435413 7428739 7423346 
2307.091 7421155 7423413 7430593 7441581 7454457 7467199 7478491 7487998 
2310.948 7496324 7504482 7512741 7520900 7527912 7533171 7536408 7538161 
2314.806 7539307 7540724 7542477 7543320 7541769 7535835 7525182 7510550 
2318.663 7493931 7478256 7466356 7460322 7460423 7465581 7473098 7479199 
2322.521 7478727 7467199 7440131 7395169 7332553 7255391 7169653 7082315 
2326.378 7000820 6930854 6875375 6833971 6803915 6781668 6764033 6748922 
2330.235 6736504 6727755 6724020 6726173 6734182 6747239 6764470 6784898 
2334.093 6807617 6831918 6857096 6882040 6905874 6928565 6950079 6971459 
2337.950 6993749 7017690 7043519 7070797 7098987 7127851 7157931 7189494 
2341.808 7223183 7258255 7292791 7324702 7352268 7375487 7397259 7422908 
2345.665 7458199 7508595 7576530 7660898 7757156 7859441 7960265 8052236 
2349.522 8129270 8186226 8219857 8229109 8215704 8184504 8141660 8094936 
2353.380 8051223 8015210 7988917 7971942 7962088 7956723 7953651 7951795 
2357.237 7951256 7953077 7958376 7969006 7985914 8010518 8042819 8081806 
2361.095 8125792 8171877 8217224 8260042 8299690 8337585 8376092 8417913 
2364.952 8464536 8516164 8571381 8628463 8685959 8744173 8803611 8865289 
2368.810 8929310 8994491 9058192 9118012 9172392 9221667 9268478 9316478 
2372.667 9369122 9428781 9496137 9569870 9649003 9732182 9818734 9908725 
2376.524 10001956 10098022 10195807 10294155 10392254 10490512 10589843 
2379.900 10691779 10797271 10906492 11017984 11129572 11239150 11344945 
2383.275 11446445 11543683 11637061 11726750 11812098 11892152 11965782 
2386.650 12032647 12092776 12146984 12196121 12240288 12279517 12313058 
2390.025 12340805 12363202 12381850 12398624 12415569 12433708 12452904 
2393.401 12472000 12489493 12504293 12516126 12525812 12535020 12545592 
2396.776 12558996 12576425 12599380 12628885 12665864 12711000 12764432 
2400.151 12825413 12892171 12962899 13035926 13110297 13186423 13265159 
2403.526 13348248 13436958 13532317 13634775 13744473 13861177 13984277 
2406.902 14112649 14244448 14377520 14509778 14640121 14769236 14899177 
2410.277 15033376 15174686 15324485 15481888 15643403 15804188 15959086 
2413.652 16103962 16236264 16355464 16461378 16554683 16635822 16705200 
2417.027 16763534 16812782 16855184 16893178 16929006 16963562 16996606 
2420.403 17027272 17054426 17078032 17098780 17118632 17139450 17163130 
2423.778 17190604 17222526 17259448 17302480 17352790 17412694 17484126 
2427.153 17568510 17666678 17779196 17906000 18047454 18203948 18375016 
2430.528 18560192 18757348 18964074 19177688 19396052 19618336 19844966 
2433.904 20077198 20316152 20562600 20816386 21076822 21343296 21615682 
2437.279 21894404 22180352 22474266 22776310 23086038 23402634 23725092 
2440.654 24052342 24384012 24719232 25057098 25396348 25735552 26074068 
2444.029 26411616 26749284 27088594 27431096 27777438 28126954 28477918 
2447.405 28827678 29173578 29513472 29846038 30170300 30485636 30791276 
2450.780 31086202 31370040 31642336 31903074 32153192 32393780 32625854 
2454.155 32850624 33069282 33282618 33491298 33695532 33894124 34084928 
2457.530 34264272 34427936 34571468 34691572 34785792 34853464 34894900 
2460.906 34910912 34902580 34871416 34819140 34748748 34664224 34570104 
2464.281 34471304 34372420 34276964 34187728 34107076 34038088 33984732 
2467.656 33952128 33945604 33970112 34029060 34123456 34252508 34413768 
2471.031 34604404 34821332 35062396 35325228 35607176 35905396 36215668 
2474.406 36533584 36854764 37174700 37489892 37797176 38093936 38377828 
2477.782 38647132 38899644 39133484 39346228 39534940 39696292 39827008 
2481.157 39924200 39986504 40014152 40009572 39976112 39918572 39840988 
2484.532 39747264 39640200 39522528 39396004 39262984 39125328 38984596 
2487.907 38841596 38695956 38546132 38389884 38224316 38046732 37854976 
2491.283 37647084 37422168 37179644 36919944 36643852 36352112 36045996 
2494.658 35726132 35392480 35044472 34680768 34300408 33903228 33490222 
2498.033 33063528 32626640 32183200 31736504 31288878 30841288 30394120 
2501.408 29946918 29499392 29051516 28604206 28158946 27717286 27281546 
2504.784 26854274 26437744 26034416 25646544 25275944 24923414 24589510 
2508.159 24273626 23975094 23693458 23428300 23179766 22948104 22732698 
2511.534 22532650 22346610 22172856 22010010 21857712 21716616 21588276 
2514.909 21473934 21374830 21290678 21221224 21165038 21120928 21088092 
2518.285 21065796 21053624 21050492 21055362 21066492 21082944 21104056 
2521.660 21130112 21162324 21202158 21250590 21307624 21372360 21442498 
2525.035 21515502 21588206 21657926 21722154 21779214 21827678 21866704 
2528.410 21895868 21914860 21923574 21921586 21907926 21881790 21842276 
2531.786 21789250 21723340 21646260 21560384 21468292 21372324 21274392 
2535.161 21175786 21077586 20980940 20887198 20797926 20714512 20637854 
2538.536 20567880 20504240 20445506 20390946 20339588 20291362 20245604 
2541.911 20201970 20159692 20117904 20076018 20033788 19991668 19950660 
2545.287 19911390 19874170 19837960 19801476 19763018 19721858 19677896 
2548.662 19632688 19588700 19547626 19511166 19479456 19451526 19425814 
2552.037 19400592 19374640 19347408 19319348 19290978 19263546 19238262 
2555.412 19216096 19197912 19183922 19173532 19165120 19156566 19145416 
2558.788 19129244 19106808 19077274 19040820 18998030 18949366 18895202 
2562.163 18836130 18772984 18707254 18641118 18577100 18517210 18462478 
2565.538 18413006 18367618 18325728 18286570 18250632 18219462 18194204 
2568.913 18175650 18163870 18157444 18154748 18154472 18156336 18161520 
2572.289 18171540 18188226 18212448 18243650 18280350 18320198 18361224 
2575.664 18401426 18440282 18477344 18512748 18546774 18579800 18612620 
2579.039 18646098 18681552 18720190 18762778 18810108 18862082 18918596 
2582.414 18979306 19044074 19112902 19185204 19260532 19337778 19415558 
2585.790 19493006 19570050 19647318 19726054 19807476 19892068 19979732 
2589.165 20069182 20158512 20246436 20332054 20415220 20496876 20577782 
2592.540 20658286 20738562 20817948 20895402 20970090 21041556 21109170 
2595.915 21173040 21233472 21290920 21346290 21400970 21456248 21513134 
2599.291 21572572 21634244 21697632 21762318 21828166 21895868 21967312 
2602.666 22044518 22129410 22223034 22325296 22434840 22549924 22668776 
2606.041 22790172 22913524 23038936 23166694 23297426 23431518 23569534 
2609.416 23712458 23860718 24014556 24173532 24336106 24499406 24660942 
2612.792 24817522 24967528 25110210 25245880 25375412 25499678 25619304 
2616.167 25734392 25844972 25951046 26052818 26150460 26243936 26332714 
2619.542 26416052 26493034 26563194 26627094 26685930 26741638 26795944 
2622.917 26849906 26903448 26955658 27005550 27052412 27096282 27138464 
2626.292 27180262 27223298 27268208 27315064 27363090 27411120 27458626 
2629.668 27505080 27550548 27595140 27638678 27680912 27721136 27759140 
2633.043 27794886 27828516 27860524 27891616 27921894 27951330 27979352 
2636.418 28005858 28030490 28053890 28076616 28099486 28123524 28149296 
2639.793 28177118 28207314 28240232 28276160 28315590 28359130 28406810 
2643.169 28458530 28514432 28574090 28637614 28705080 28776836 28853104 
2646.544 28934022 29019280 29108202 29199870 29293226 29387134 29481024 
2649.919 29574794 29668336 29762218 29857220 29953980 30053322 30155704 
2653.294 30261200 30369744 30481334 30595586 30712710 30832428 30955064 
2656.670 31080366 31208624 31339378 31473018 31609376 31748694 31891022 
2660.045 32036498 32184378 32334126 32484644 32634572 32783474 32931004 
2663.420 33077222 33222918 33368662 33514704 33661120 33807512 33953596 
2666.795 34099264 34244944 34391464 34539680 34690244 34843808 35000296 
2670.171 35159568 35321204 35485168 35651384 35820072 35991488 36165860 
2673.546 36343288 36523816 36707304 36893284 37081552 37271196 37461644 
2676.921 37652036 37841856 38031324 38220700 38410988 38603168 38798408 
2680.296 38997464 39201184 39409900 39624268 39844912 40072468 40307700 
2683.672 40550744 40801560 41059732 41324876 41596488 41874800 42160084 
2687.047 42452896 42753732 43062464 43378992 43702492 44032284 44367756 
2690.422 44708408 45054184 45404756 45760068 46119944 46484252 46853140 
2693.797 47227076 47606324 47991344 48382336 48779200 49181848 49589996 
2697.173 50003768 50423404 50848960 51280412 51717224 52157988 52601852 
2700.548 53047444 53494544 53942968 54393392 54846168 55301108 55757164 
2703.923 56212456 56664904 57112004 57552152 57983576 58404556 58814184 
2707.298 59210756 59593204 59960436 60312288 60649116 60971408 61280048 
2710.674 61575396 61857460 62125972 62380776 62621832 62849960 63065684 
2714.049 63269472 63461244 63639292 63801712 63945808 64069212 64170256 
2717.424 64247808 64301984 64333564 64344056 64335988 64312704 64278392 
2720.799 64237824 64196104 64157656 64126468 64105688 64097784 64105004 
2724.175 64129500 64173444 64238592 64326032 64436056 64567752 64719984 
2727.550 64891384 65081068 65288580 65513992 65757068 66017056 66292396 
2730.925 66581020 66879756 67186672 67499304 67815792 68134416 68453160 
2734.300 68770040 69082848 69389536 69688928 69979976 70262248 70535152 
2737.676 70797944 71049800 71289976 71518224 71735792 71944904 72148680 
2741.051 72350680 72553984 72761376 72974672 73195640 73425784 73666888 
2744.426 73920336 74187312 74467768 74761168 75065664 75378824 75697880 
2747.801 76019616 76340408 76656056 76961224 77250760 77518760 77760280 
2751.177 77972000 78152248 78300824 78418696 78507528 78569344 78605520 
2754.552 78617472 78606080 78571336 78512256 78426792 78312136 78164312 
2757.927 77980008 77756360 77492024 77186968 76842528 76460944 76044488 
2761.302 75595888 75118328 74615056 74090464 73549408 72996664 72437888 
2764.677 71878200 71322352 70775168 70241600 69726584 69235000 68771408 
2768.053 68339480 67942088 67580480 67254984 66965768 66711968 66493312 
2771.428 66308728 66156900 66035680 65942264 65873348 65825456 65794764 
2774.803 65777956 65771640 65772100 65775416 65776572 65770672 65752596 
2778.178 65717704 65661928 65582424 65477164 65345152 65186888 65004052 
2781.554 64799712 64578244 64344944 64105004 63863352 63623988 63389236 
2784.929 63160628 62938116 62721200 62508172 62296512 62083200 61863836 
2788.304 61634124 61390296 61129556 60850976 60555324 60245180 59923960 
2791.679 59594876 59261604 58926956 58594040 58266420 57948288 57644576 
2795.055 57360364 57100440 56868432 56666528 56495844 56356128 56247040 
2798.430 56168372 56120184 56102464 56115280 56158340 56230144 56329152 
2801.805 56452868 56598540 56763748 56945492 57141292 57348600 57564592 
2805.180 57786756 58012432 58239368 58464828 58686764 58902176 59108692 
2808.556 59302928 59481400 59640376 59776136 59884632 59962868 60008028 
2811.931 60018336 59992924 59931984 59836560 59708344 59549652 59363932 
2815.306 59155204 58928776 58690708 58447844 58207540 57976992 57763136 
2818.681 57572768 57411372 57283872 57194700 57147036 57142956 57183132 
2822.057 57266368 57390084 57550032 57740884 57956316 58189660 58433936 
2825.432 58681948 58926576 59160860 59378288 59573024 59740320 59876336 
2828.807 59979188 60048012 60083624 60088040 60064904 60018564 59953816 
2832.182 59875464 59787540 59693480 59595676 59495956 59395576 59296200 
2835.558 59199932 59108656 59024456 58949192 58884036 58830576 58790776 
2838.933 58767900 58767028 58794232 58857248 58963580 59120804 59335440 
2842.308 59614112 59962908 60389544 60902860 61512784 62229856 63062652 
2845.683 64015032 65082988 66251448 67493416 68765696 70013992 71175864 
2849.059 72182408 72971728 73493088 73712704 73620488 73228112 72568864 
2852.434 71688384 70642472 69490656 68285968 67078000 65907360 64802288 
2855.809 63783444 62860416 62035340 61303252 60654792 60078756 59562308 
2859.184 59093392 58661352 58255924 57868440 57490832 57115708 56736788 
2862.560 56348960 55948696 55534084 55104664 54661992 54209600 53752316 
2865.935 53297572 52853628 52430028 52037024 51682924 51375580 51120036 
2869.310 50918956 50772604 50678164 50630768 50622692 50644504 50685540 
2872.685 50734692 50782100 50820240 50844416 50852796 50846168 50826572 
2876.061 50795808 50755396 50706128 50647932 50581180 50506660 50426044 
2879.436 50341208 50254488 50167712 50082404 50000200 49922056 49849728 
2882.811 49784736 49728776 49683044 49648684 49626096 49615920 49618408 
2886.186 49634640 49664840 49709608 49768236 49839064 49919868 50007560 
2889.562 50099844 50195420 50293808 50395680 50502116 50614128 50732160 
2892.937 50856072 50985352 51119140 51257148 51399376 51546052 51698152 
2896.312 51857252 52024624 52202040 52391340 52593736 52809924 53039508 
2899.687 53281760 53534796 53797092 54066712 54342700 54624268 54911212 
2903.063 55202968 55500200 55803392 56114792 56437580 56776248 57135924 
2906.438 57522188 57939848 58393604 58887868 59427412 60018868 60669536 
2909.813 61387816 62181792 63057064 64014876 65050236 66152388 67302216 
2913.188 68473416 69635792 70752512 71784728 72696856 73455840 74037888 
2916.563 74430912 74635152 74662504 74533336 74274696 73912640 73469856 
2919.939 72964048 72404888 71795712 71135504 70421632 69652408 68829832 
2923.314 67960072 67054652 66129200 65200904 64287460 63404844 62564500 
2926.689 61774364 61037680 60353524 59717928 59125324 58569280 58043604 
2930.064 57543640 57066392 56611108 56179120 55773628 55398964 55060204 
2933.440 54762188 54509228 54304472 54149844 54045620 53990500 53981572 
2936.815 54013768 54080784 54175440 54289528 54416528 54550668 54687960 
2940.190 54826696 54966484 55107448 55250268 55394412 55538828 55680956 
2943.565 55816692 55940820 56046176 56124328 56166828 56165356 56114036 
2946.941 56010476 55857312 55661860 55435516 55193076 54950316 54721636 
2950.316 54519636 54353360 54227544 54143124 54097412 54085288 54099512 
2953.691 54132464 54177316 54227996 54280256 54331360 54379460 54423364 
2957.066 54461748 54493788 54519072 54537928 54552092 54564076 54577076 
2960.442 54593720 54615888 54644108 54677704 54715624 54756360 54799324 
2963.817 54844176 54891096 54940388 54991680 55044520 55098084 55151424 
2967.192 55203912 55255008 55304796 55353532 55401904 55450800 55501816 
2970.567 55556560 55616820 55683668 55757128 55836096 55918624 56002524 
2973.943 56086064 56168372 56249944 56331684 56414000 56495808 56574044 
2977.318 56643312 56697108 56728144 56730520 56700240 56635532 56537096 
2980.693 56407852 56252208 56075240 55883088 55681412 55475124 55268028 
2984.068 55062200 54857296 54651060 54439588 54218536 53983412 53731388 
2987.444 53461080 53172808 52868336 52549120 52215976 51868040 51502588 
2990.819 51115188 50701624 50258804 49786632 49288360 48771264 48245092 
2994.194 47719700 47203580 46701808 46215016 45739932 45270692 44800568 
2997.569 44323940 43837352 43340292 42834616 42323580 41811172 41300824 
3000.945 40795592 40297340 39807980 39328528 38860000 38403168 37958604 
3004.320 37526592 37107568 36701860 36309856 35931740 35567620 35217312 
3007.695 34879928 34554172 34238812 33932136 33633408 33341646 33056270 
3011.070 32776796 32502356 32232196 31965520 31701964 31441812 31185658 
3014.446 30935030 30691054 30454464 30225606 30004146 29789540 29581214 
3017.821 29378482 29181090 28988886 28801478 28618610 28439994 28265516 
3021.196 28095598 27931116 27772882 27622294 27480158 27347456 27224602 
3024.571 27112576 27012602 26926362 26855684 26801866 26765072 26744318 
3027.947 26736142 26735438 26735860 26729800 26709468 26668138 26600038 
3031.322 26501590 26371688 26211696 26025552 25818212 25595826 25364102 
3034.697 25127552 24889798 24653016 24418534 24187264 23960040 23737724 
3038.072 23521086 23310780 23107110 22910206 22719780 22535406 22356762 
3041.448 22183352 22014854 21850814 21691188 21535906 21385272 21240084 
3044.823 21101308 20969498 20845064 20727372 20615584 20508268 20404456 
3048.198 20303616 20205926 20111970 20022270 19936888 19854990 19775156 
3051.573 19695612 19614628 19531440 19446084 19359396 19272586 19186970 
3054.948 19103690 19023198 18945974 18871944 18801148 18733682 18669550 
3058.324 18609022 18552170 18499438 18451034 18407508 18368966 18335268 
3061.699 18306270 18281594 18260928 18244584 18233284 18228308 18231142 
3065.074 18242752 18263072 18290476 18322444 18354796 18383278 18404054 
3068.449 18413974 18411276 18395516 18367516 18328874 18281388 18227168 
3071.825 18167980 18104932 18039026 17970850 17900892 17829838 17758590 
3075.200 17688248 17619646 17553676 17490302 17429388 17369928 17311030 
3078.575 17251484 17191086 17129350 17066590 17003012 16939274 16875816 
3081.950 16813370 16752549 16694078 16638095 16584391 16532345 16480960 
3085.326 16429408 16377416 16325876 16276751 16232343 16195025 16166342 
3088.701 16145881 16131988 16121535 16111527 16099045 16082816 16062839 
3092.076 16040320 16017215 15995489 15976684 15961628 15950836 15943754 
3095.451 15940180 15939526 15941452 15945816 15952658 15962420 15975241 
3098.827 15991295 16010409 16031897 16054587 16076935 16097773 16115963 
3102.202 16131196 16143680 16153961 16163006 16171604 16180683 16191071 
3105.577 16203245 16217932 16235163 16254392 16274927 16295498 16314730 
3108.952 16331621 16345933 16358320 16370017 16382508 16396994 16414542 
3112.328 16435051 16458005 16482817 16508287 16533721 16557679 16579708 
3115.703 16598608 16613651 16624633 16631588 16635099 16636133 16635375 
3119.078 16633309 16629867 16624600 16617164 16607145 16595028 16581429 
3122.453 16567316 16553409 16539952 16526837 16513621 16500233 16486948 
3125.829 16474558 16464062 16456421 16452258 16451398 16453221 16456662 
3129.204 16460551 16464131 16466986 16469361 16471736 16474936 16479548 
3132.579 16486397 16495861 16508251 16523223 16540537 16559433 16579330 
3135.954 16599882 16620640 16641743 16663194 16684713 16706372 16727755 
3139.330 16749071 16770491 16792774 16816710 16843024 16871648 16902066 
3142.705 16933002 16963046 16990886 17016004 17038850 17060492 17082272 
3146.080 17105466 17130938 17159132 17190086 17223904 17260518 17300100 
3149.455 17342546 17387206 17433250 17479368 17524420 17567268 17607914 
3152.831 17646354 17683140 17719310 17755240 17791726 17828906 17867088 
3156.206 17906450 17946988 17988706 18031464 18074844 18118820 18163178 
3159.581 18208510 18255296 18303850 18354658 18407370 18461718 18517140 
3162.956 18573574 18631330 18690788 18752572 18816890 18883192 18950298 
3166.332 19017002 19081844 19144308 19204252 19262332 19319036 19374882 
3169.707 19429834 19483926 19537020 19589634 19642534 19696722 19752928 
3173.082 19811256 19870842 19929672 19985942 20038126 20085562 20128352 
3176.457 20167918 20205962 20244112 20283654 20325560 20370110 20417722 
3179.833 20468220 20521574 20577504 20635700 20695538 20757086 20820000 
3183.208 20884486 20950790 21018984 21089134 21160864 21233716 21307276 
3186.583 21381200 21455762 21531240 21608230 21687080 21768102 21851022 
3189.958 21935248 22020362 22105734 22190918 22275838 22360284 22444818 
3193.333 22529858 22616204 22704208 22794362 22886456 22980278 23075066 
3196.709 23170502 23266068 23362350 23459426 23557884 23657838 23759284 
3200.084 23861452 23963646 24065546 24167226 24269632 24373568 24479562 
3203.459 24587512 24696890 24806646 24915728 25023858 25131064 25237980 
3206.834 25345414 25453228 25560962 25667424 25771272 25871770 25969232 
3210.210 26064602 26159398 26255094 26352640 26452146 26553296 26655806 
3213.585 26759506 26865274 26973676 27085736 27201392 27320144 27440590 
3216.960 27561000 27679394 27794604 27905996 28013880 28119174 28223330 
3220.335 28328218 28435252 28545532 28659702 28777332 28897580 29018854 
3223.711 29139702 29258738 29375256 29489358 29601112 29710980 29819316 
3227.086 29926008 30031130 30134962 30238038 30341174 30445260 30550720 
3230.461 30657166 30763532 30868324 30970042 31067588 31160952 31250350 
3233.836 31336882 31421292 31504654 31587352 31670314 31754542 31841352 
3237.212 31931888 32027118 32127074 32231052 32337732 32445762 32553710 
3240.587 32661040 32767288 32872532 32976470 33078902 33179674 33278968 
3243.962 33377748 33476836 33577952 33682176 33789676 33899892 34011464 
3247.337 34123204 34234872 34346812 34460328 34577136 34698284 34823700 
3250.713 34952280 35082188 35211024 35337272 35459892 35579304 35696452 
3254.088 35812732 35929976 36049776 36173744 36303156 36438372 36579720 
3257.463 36725836 36875144 37025328 37174632 37321996 37467608 37612252 
3260.838 37757236 37903716 38052084 38202028 38352532 38502616 38651804 
3264.214 38800000 38947740 39095780 39244704 39395024 39547064 39700644 
3267.589 39856280 40014444 40175492 40339736 40506872 40676624 40848152 
3270.964 41020656 41193596 41366892 41540740 41715488 41891624 42069724 
3274.339 42250024 42432916 42618184 42806096 42996500 43189076 43383712 
3277.715 43580600 43779776 43981936 44187532 44397224 44610984 44828484 
3281.090 45048744 45270472 45492868 45715672 45939176 46165044 46394500 
3284.465 46629384 46870600 47118524 47372716 47631800 47894364 48158972 
3287.840 48424448 48690644 48957888 49227416 49500604 49778564 50062252 
3291.216 50351996 50647300 50947756 51252972 51563028 51878796 52201068 
3294.591 52530384 52866616 53208612 53554924 53903764 54254348 54606648 
3297.966 54961484 55320712 55685252 56055712 56431848 56812840 57197908 
3301.341 57587032 57980740 58380488 58787704 59203804 59629276 60064448 
3304.717 60509276 60963476 61427128 61899752 62380776 62868916 63362972 
3308.092 63861588 64364612 64872920 65387792 65911368 66444776 66988268 
3311.467 67541072 68101904 68669904 69245104 69828568 70421976 71026776 
3314.842 71643408 72270720 72906984 73550152 74198624 74852168 75511272 
3318.218 76176664 76848896 77527312 78210720 78897360 79586184 80276152 
3321.593 80967096 81659064 82351816 83044272 83735424 84423848 85108608 
3324.968 85789328 86465696 87137576 87804080 88463608 89114376 89754680 
3328.343 90383032 90998072 91598648 92183208 92749480 93294896 93817096 
3331.719 94314192 94785032 95229192 95646424 96035536 96394920 96722392 
3335.094 97016512 97277080 97505176 97703344 97874408 98019976 98139704 
3338.469 98231664 98292040 98317424 98304832 98252608 98160136 98027280 
3341.844 97854408 97641480 97388936 97097216 96767104 96399552 95994408 
3345.219 95550744 95066424 94539088 93967224 93351088 92693656 91999416 
3348.595 91274312 90523888 89752352 88961936 88153664 87327904 86484584 
3351.970 85624080 84747688 83856536 82952608 82037920 81115248 80188352 
3355.345 79261120 78338016 77422800 76517768 75623928 74741208 73869008 
3358.720 73006976 72155768 71316728 70491856 69682664 68889696 68112832 
3362.096 67351552 66605464 65874660 65159784 64461848 63781412 63118556 
3365.471 62472436 61841676 61225376 60622940 60034696 59461456 58903880 
3368.846 58361804 57834484 57320244 56817148 56323384 55838168 55360984 
3372.221 54891920 54430800 53977596 53531872 53093832 52663304 52241012 
3375.597 51827644 51423392 51027980 50640488 50259212 49882472 49509624 
3378.972 49140288 48775120 48414856 48059808 47709824 47363776 47020368 
3382.347 46678192 46336876 45996560 45658024 45322216 44989496 44659932 
3385.722 44333004 44008448 43685964 43366356 43050244 42738636 42432256 
3389.098 42130548 41832332 41536472 41241176 40945684 40650352 40355912 
3392.473 40063816 39775512 39491792 39212572 38937048 38664012 38391872 
3395.848 38120196 37849052 37579336 37312464 37050444 36794500 36544792 
3399.223 36300996 36061404 35824172 35587256 35348952 35108808 34867032 
3402.599 34624716 34383716 34145752 33912288 33684212 33461772 33244916 
3405.974 33032562 32823392 32615996 32409132 32201398 31992306 31781706 
3409.349 31569928 31357538 31145290 30934070 30724340 30516524 30311224 
3412.724 30108896 29910318 29715912 29525886 29340088 29157560 28977020 
3416.100 28797300 28616876 28435430 28252468 28068558 27884088 27699946 
3419.475 27516940 27336166 27158604 26985594 26818360 26657392 26502648 
3422.850 26353238 26207402 26063300 25919144 25773838 25627352 25480634 
3426.225 25334386 25189944 25047408 24906116 24764832 24622366 24477424 
3429.601 24329796 24180328 24030246 23881546 23736080 23594932 23459214 
3432.976 23329100 23204160 23083522 22966340 22850866 22735736 22619660 
3436.351 22501626 22381634 22260108 22138334 22017782 21899598 21784370 
3439.726 21671650 21560104 21447998 21333726 21216354 21096474 20974646 
3443.102 20852538 20731090 20610476 20489824 20367784 20242828 20114990 
3446.477 19985214 19856100 19731186 19613380 19503956 19402598 19306704 
3449.852 19213014 19117714 19018696 18914962 18807202 18697326 18586612 
3453.227 18476272 18366858 18257852 18148738 18039336 17929516 17819756 
3456.603 17710508 17602014 17493958 17386206 17278308 17170026 17061766 
3459.978 16953742 16846436 16740393 16635513 16532138 16430439 16330831 
3463.353 16233753 16139725 16048262 15958775 15870202 15781268 15690980 
3466.728 15599439 15506887 15414182 15322082 15231030 15140306 15049464 
3470.104 14957578 14864407 14769990 14675386 14581043 14487612 14394509 
3473.479 14300946 14205521 14107515 14006793 13904556 13802718 13703436 
3476.854 13608791 13519670 13435830 13356004 13278004 13199471 13118117 
3480.229 13033229 12944704 12853637 12762384 12672925 12587168 12505623 
3483.604 12427365 12350316 12272393 12191759 12108210 12022803 11938025 
3486.980 11856771 11781015 11710955 11645536 11581998 11517415 11449541 
3490.355 11377631 11302229 11224494 11146128 11067878 10989437 10910094 
3493.730 10829032 10745439 10660130 10574803 10491326 10412006 10338434 
3497.105 10271288 10210121 10153780 10099888 10046206 9990056 9929505 
3500.481 9862625 9789249 9709683 9625797 9540233 9455939 9375555 9301244 
3504.338 9233750 9173474 9119501 9070710 9024869 8980114 8933910 8883923 
3508.196 8828734 8768447 8704213 8639042 8576653 8520151 8471428 8430548 
3512.053 8395280 8362547 8328939 8291584 8249101 8201826 8150066 8095477 
3515.910 8039274 7982337 7925609 7870238 7817371 7768895 7726226 7689767 
3519.768 7659077 7632673 7607618 7581453 7551377 7515843 7474109 7426447 
3523.625 7373566 7316682 7257042 7196164 7135800 7077971 7024526 6977284 
3527.483 6937520 6904729 6877630 6854167 6831649 6807987 6782240 6754508 
3531.340 6725568 6696931 6669273 6642760 6615879 6586644 6552803 6512877 
3535.198 6466598 6415415 6362220 6310746 6263682 6223043 6188760 6159487 
3539.055 6133307 6108575 6084246 6060525 6038047 6017519 5998806 5980430 
3542.912 5960208 5935250 5903508 5863608 5816559 5765452 5713511 5664733 
3546.770 5622337 5587464 5559540 5536585 5515746 5493732 5468130 5437429 
3550.627 5401128 5360570 5317667 5275070 5235429 5199983 5169268 5142343 
3554.485 5117499 5092690 5066106 5036573 5003724 4967660 4928919 4887868 
3558.342 4845146 4800954 4755494 4709536 4664186 4620481 4579996 4543900 
3562.199 4512461 4485142 4460436 4435397 4406643 4370461 4323607 4264277 
3566.057 4193278 4113494 4030782 3951830 3882086 3825290 3781435 3748113 
3569.914 3720943 3695211 3667041 3633694 3594670 3550037 3501501 3450967 
3573.772 3400338 3351083 3303771 3258668 3215572 3174115 3133898 3094585 
3577.629 3055776 3017438 2979971 2943708 2909149 2876927 2847510 2820796 
3581.487 2796384 2773308 2750500 2726359 2699852 2669480 2634243 2593342 
3585.344 2546212 2492656 2433775 2371837 2310474 2254150 2207656 2173889 
3589.201 2153876 2146150 2146783 2150512 2151978 2146283 2130267 2102865 
3593.059 2065410 2021034 1974233 1928701 1887600 1852127 1821514 1794398 
3596.916 1768813 1743263 1716716 1689273 1661200 1633893 1608717 1587433 
3600.774 1571205 1560963 1556307 1555842 1557770 1559965 1560265 1557538 
3604.631 1550754 1539083 1521759 1497454 1464506 1421886 1370031 1311269 
3608.489 1250355 1193037 1143634 1104468 1073975 1048067 1021430 989979 
3612.346 951591 908756 866656 831233 808095 799331 802916 813805 824693 
3616.686 828345 818485 792228 749409 695111 636706 582655 540819 515540 
3621.025 507280 513085 528411 548051 567957 585973 601501 615569 628576 
3625.365 639659 645466 639958 615669 565701 487774 387211 278249 179888 
3629.704 109289 73762 70481 90001 120293 151515 176408 192286 199479 200938 
3634.526 200275 200440 202860 206971 210982 213269 211943 205976 195369 
3638.866 180319 161359 139152 114658 89537 66140 47450 36813 36846 48278 
3643.688 69785 98286 128512 154365 170607 172596 157912 126689 81185 25149 
3648.509 -36445 -98264 -154509 -199222 -226643 -233002 -217437 -182662 
3652.367 -135000 -82065 -32503 6560 30219 37476 31080 18058 8416 10503 29390 
3657.671 65113 112869 165536 214397 252554 274602 278647 265948 241150 
3662.010 211048 182209 160332 148863 148001 156420 171833 192153 216419 
3666.350 243968 274270 306962 341812 381507 433543 512421 638332 833192 
3670.689 1111012 1474646 1915721 2420014 2970730 3550639 4139987 4705583 
3674.547 5196831 5551486 5706058 5625962 5319042 4828762 4212951 3527556 
3678.404 2823497 2143020 1523455 996356 578507 270855 58750 -81071 -173521 
3682.744 -237771 -284197 -316679 -335286 -341808 -341510 -343166 -356409 
3686.601 -390176 -447807 -526412 -616617 -705479 -781194 -836292 -868997 
3690.459 -881398 -877628 -861094 -835168 -802857 -767368 -732207 -701047 
3694.316 -676169 -658503 -647751 -642126 -639215 -636700 -632763 -626808 
3698.174 -619992 -614003 -612382 -618701 -636171 -666112 -707100 -754601 
3702.031 -801402 -840161 -864930 -873329 -866121 -846775 -820054 -790620 
3705.888 -762076 -736871 -716594 -702403 -695357 -696349 -706538 -725592 
3709.746 -753311 -787312 -824784 -861888 -894426 -918200 -930169 -928515 
3713.603 -913339 -887251 -854646 -820848 -791182 -770411 -759695 -758305 
3717.461 -762241 -766574 -767137 -761944 -752021 -741205 -733928 -732935 
3721.318 -739650 -751855 -766839 -781326 -794390 -806363 -819856 -836226 
3725.176 -856233 -877364 -895418 -905371 -903056 -887846 -862119 -831332 
3729.033 -802030 -781094 -773619 -781624 -803849 -835201 -868898 -898030 
3732.890 -919158 -933574 -946667 -964950 -992786 -1029314 -1067557 -1097205 
3736.748 -1108508 -1097072 -1064715 -1018769 -966966 -915588 -867873 -823494 
3740.605 -781789 -744149 -715403 -706009 -729462 -796540 -908644 -1049279 
3744.463 -1185837 -1280133 -1309105 -1274055 -1195023 -1099948 -1013744 
3747.838 -956420 -938137 -959759 -1012191 -1081109 -1149619 -1204870 
3751.213 -1239926 -1252117 -1240917 -1208240 -1156394 -1090958 -1019232 
3754.588 -950271 -891781 -849785 -825908 -818765 -824089 -836226 -851240 
3758.446 -866782 -881861 -895550 -905734 -908677 -900708 -880769 -851174 
3762.303 -817739 -788404 -770345 -767368 -778481 -798094 -817938 -830108 
3766.161 -830505 -819922 -803882 -789164 -781425 -783443 -794655 -810761 
3770.018 -826470 -836722 -838409 -831133 -816086 -796077 -773983 -752749 
3773.875 -734424 -720597 -711037 -705479 -702601 -701874 -703693 -709416 
3777.733 -720465 -737864 -759595 -782450 -799847 -806627 -800013 -781326 
3781.590 -755692 -729727 -710210 -700981 -702635 -712195 -724732 -734953 
3785.448 -739518 -736905 -727940 -714378 -697276 -677790 -656551 -634351 
3789.305 -613076 -595275 -583231 -578333 -580484 -588029 -598551 -610066 
3793.163 -622109 -635807 -653441 -676599 -705016 -735978 -763432 -780896 
3797.020 -783542 -770312 -744711 -714477 -689005 -678617 -690659 -727411 
3800.877 -782980 -844725 -894690 -917869 -908379 -870188 -815094 -758041 
3804.735 -714279 -695357 -706009 -742395 -792174 -838376 -864566 -862946 
3808.592 -834837 -788801 -735052 -682422 -636005 -596566 -562516 -531840 
3812.450 -504437 -483189 -473657 -481568 -511056 -560795 -623102 -684308 
3816.307 -729363 -749309 -743057 -718711 -688542 -666840 -664723 -688542 
3820.165 -737169 -800906 -862946 -904875 -915257 -892111 -843435 -781458 
3824.022 -719439 -667535 -630745 -609338 -598783 -592231 -582867 -566586 
3827.879 -543819 -518602 -496097 -481766 -478357 -485605 -500664 -518966 
3831.737 -535347 -546301 -549875 -546103 -536042 -522308 -507747 -496163 
3835.594 -491464 -497024 -515094 -544878 -582569 -621447 -654103 -675045 
3839.452 -682025 -676533 -662936 -646460 -632234 -622870 -619925 -622473 
3843.309 -628065 -633524 -635906 -632664 -622539 -605830 -584025 -559439 
3847.167 -534123 -509865 -486896 -464820 -442577 -420433 -400902 -389680 
3851.024 -395672 -428874 -497620 -602522 -732373 -862549 -965247 -1020984 
3854.881 -1025578 -988455 -925308 -850975 -776133 -707200 -647188 -596665 
3858.739 -555567 -523401 -499771 -483851 -474584 -470712 -471076 -475411 
3862.596 -484315 -498910 -519529 -544183 -567877 -583760 -585712 -570921 
3866.454 -542231 -507945 -479251 -467302 -479913 -517940 -574032 -632962 
3870.311 -677724 -697540 -690858 -664954 -631142 -600768 -580914 -573105 
3874.168 -573238 -573932 -568175 -551331 -523599 -488849 -453864 -425034 
3878.026 -408383 -407622 -423279 -451978 -487327 -520720 -544150 -552522 
3881.883 -545110 -526710 -505364 -490206 -489577 -508243 -544349 -589485 
3885.741 -629719 -651787 -647122 -616054 -566123 -509699 -459425 -425464 
3889.598 -413713 -424802 -453401 -489908 -524294 -548121 -557222 -551728 
3893.456 -534785 -509865 -480277 -448800 -417486 -388687 -364785 -348430 
3897.313 -342040 -346476 -361275 -383555 -409211 -433739 -454162 -469321 
3901.170 -480839 -491662 -504834 -522011 -542396 -562649 -577969 -583429 
3905.028 -575951 -555170 -523864 -486400 -447642 -412124 -382628 -360183 
3908.885 -344060 -332803 -324393 -317341 -310520 -303335 -295686 -287442 
3912.743 -278799 -269792 -261150 -254295 -250752 -251944 -258567 -270256 
3916.600 -284958 -299362 -310355 -315586 -313930 -305620 -291746 -274097 
3920.458 -254030 -232969 -212834 -195844 -184583 -181801 -188988 -205945 
3924.315 -230319 -257640 -282673 -300786 -309494 -308931 -301415 -289826 
3928.172 -277243 -265653 -255885 -247805 -241513 -237141 -235386 -236910 
3932.030 -241546 -248136 -254593 -258732 -259196 -255587 -249560 -243202 
3935.887 -238698 -237042 -238035 -240221 -241877 -241413 -238963 -235949 
3939.745 -234558 -237208 -245420 -259362 -277574 -297342 -315189 -328366 
3943.602 -334690 -333432 -325353 -312275 -296514 -280720 -267375 -258368 
3947.459 -254659 -255885 -261050 -268468 -276382 -282905 -287177 -288004 
3951.317 -284925 -277408 -265620 -249791 -231578 -212933 -196473 -184484 
3955.174 -178125 -177330 -180642 -185577 -189750 -191373 -189717 -185510 
3959.032 -179913 -174316 -169712 -166731 -165439 -165638 -167195 -170076 
3962.889 -174018 -178489 -182563 -185676 -186902 -186173 -183855 -180443 
3966.747 -176932 -173753 -171004 -168222 -165439 -162028 -158451 -155337 
3970.604 -152687 -150799 -149176 -146858 -142982 -137087 -129104 -119928 
3974.461 -110454 -101808 -94521 -89055 -84781 -81700 -79448 -78023 -77294 
3978.801 -77394 -78056 -78884 -79415 -79348 -78156 -76035 -73253 -69774 
3983.141 -65865 -61923 -58278 -56059 -55661 -57583 -61956 -68018 -74545 
3987.480 -80176 -83754 -84649 -83125 -79812 -75671 -71397 -66925 -62221 
3991.820 -57086 -51553 -46020 -41581 -39129 -39096 -41349 -45192 -49499 
3996.159 -53309 -56257 -58709 -60995 -64540 -69642 -76599 -84781 -93659 
4000.499 -101974 
##END=
