
##TITLE=1708_2_b
##JCAMP-DX=5.01  $$ Nicolet v. 1
##DATATYPE=INFRARED SPECTRUM
##ORIGIN=UniL
##OWNER=Nicolet
##LONGDATE=2011/09/08
##TIME=13:24:56
##SPECTROMETER/DATA SYSTEM=Nicolet iS5
##DATA PROCESSING=
Ratio against background
%Transmittance->Absorbance
Truncated
ElementMultiply or ElementDivide
##COMMENTS=
Number of sample scans: 32
Collection length: 51.18 sec
Sample gain: 2.0
Background collected on: Jeu Sep 08 13:21:44 2011 (GMT+02:00);
Number of background scans: 32
Background gain: 2.0
Sample spacing:  1.000
Number of scan points: 12415
Resolution points: 8192
Number of FFT points: 65536
Apodization: N-B fort;
Phase correction: Mertz;
Laser frequency: 15798.0 cm-1
Number of rejected sample scans: 0
Number of rejected background scans: 0
Bench serial number: ASB1000141;
##RESOLUTION=4.000
##XUNITS=1/CM
##YUNITS=ABSORBANCE
##FIRSTX=649.893372
##LASTX=4000.122314
##FIRSTY=0.106360
##MAXX=4000.122314
##MINX=649.893372
##MAXY=0.288151
##MINY=-0.001863
##XFACTOR=1.000000
##YFACTOR=1.000000E-009
##NPOINTS=6950
##DELTAX=0.482117
##ZPD=6100
##XYDATA=(X++(Y..Y))
649.893 106360360 106311648 106357400 106514720 106771400 107096320 
652.786 107450256 107807872 108165656 108538040 108943600 109392392 
655.679 109879520 110389816 110911440 111446656 112014576 112644216 
658.571 113358648 114161344 115033528 115942264 116859840 117777624 
661.464 118711504 119691296 120747952 121892192 123110104 124367224 
664.357 125624928 126850752 128015520 129086760 130008472 130686704 
667.250 131008120 130885240 130314944 129386960 128229272 126933960 
670.142 125527816 123986848 122271744 120360408 118271696 116068072 
673.035 113832600 111651080 109579168 107633528 105803672 104068352 
675.928 102413976 100841000 99359344 97978320 96698464 95508760 94391808 
679.302 93332312 92323464 91367464 90470672 89636504 88862032 88138328 
682.677 87456312 86810968 86206024 85649872 85150768 84709992 84318376 
686.052 83957392 83606696 83250752 82882752 82506048 82128184 81755448 
689.427 81388112 81018960 80638248 80239128 79821056 79391416 78961768 
692.802 78543024 78142056 77761232 77401488 77066264 76763872 76506744 
696.177 76304816 76159720 76057664 75969368 75855912 75673736 75389104 
699.551 74986312 74469304 73860360 73193168 72507184 71836720 71209560 
702.926 70644384 70148520 69721336 69354272 69034752 68747960 68480008 
706.301 68220952 67965992 67715952 67474840 67249880 67047924 66873848 
709.676 66733764 66634976 66587740 66608480 66714832 66921236 67232040 
713.051 67633432 68089344 68540576 68919256 69156784 69199096 69022208 
716.425 68633120 68070896 67393688 66677160 66003008 65448804 65093344 
719.800 65006284 65237172 65806716 66685312 67786792 68955872 69996704 
723.175 70704584 70894864 70461496 69396296 67797328 65837332 63729456 
726.550 61681708 59840364 58287184 57036428 56055788 55289932 54682740 
729.925 54193232 53792068 53461004 53186740 52956624 52761320 52595832 
733.300 52462332 52368388 52322560 52330372 52389956 52492656 52625192 
736.674 52775612 52935668 53101472 53272996 53449836 53629632 53808904 
740.049 53984124 54155020 54326024 54504944 54699012 54910268 55132052 
743.424 55346644 55531112 55655684 55691996 55616176 55408300 55055352 
746.799 54551828 53901436 53118736 52230888 51277468 50301992 49348120 
750.174 48453232 47640932 46924528 46307716 45789300 45367016 45039848 
753.548 44807288 44669736 44625416 44669372 44791864 44977372 45204320 
756.923 45444340 45666420 45841476 45945952 45968788 45914056 45800196 
760.298 45654344 45506112 45380808 45292648 45246092 45238040 45263376 
763.673 45320376 45415240 45563848 45795192 46150896 46680184 47438612 
767.048 48471196 49794324 51375208 53117872 54869064 56422680 57575984 
770.423 58174960 58154012 57566904 56575292 55416468 54317012 53447700 
773.797 52873536 52544332 52317812 52009272 51464988 50593796 49400316 
777.172 47969656 46443980 44975272 43683108 42646148 41888192 41390436 
780.547 41107228 40985404 40977976 41047060 41169188 41331252 41527356 
783.922 41756632 42020924 42323288 42666724 43053720 43485660 43963680 
787.297 44489868 45068628 45706760 46413744 47199928 48074760 49046764 
790.671 50123308 51312144 52623996 54073544 55678548 57460048 59436076 
794.046 61618124 64007080 66589864 69339736 72215432 75169976 78152840 
797.421 81118720 84040288 86916160 89781288 92702512 95779048 99118832 
800.796 102803736 106864240 111237760 115757440 120126248 123959208 
803.689 126847640 128398952 128358216 126661720 123470912 119135272 
806.581 114120792 108923208 103921136 99338888 95216568 91443280 87820504 
809.956 84144080 80286720 76220256 72024176 67838536 63831688 60146488 
813.331 56869948 54037592 51635528 49622048 47941460 46540268 45373636 
816.706 44402292 43595364 42927952 42379432 41935484 41586276 41325456 
820.081 41147984 41048660 41021896 41062684 41168640 41340728 41583144 
823.455 41901512 42301264 42784412 43350324 43994988 44711860 45490880 
826.830 46318884 47178576 48048444 48907120 49738176 50536772 51315240 
830.205 52105872 52962992 53952008 55148228 56627492 58448680 60645156 
833.580 63203088 66049836 69031648 71913432 74416008 76220576 77045216 
836.955 76712904 75178328 72557632 69091048 65113940 60967404 56944208 
840.329 53273448 50082776 47418284 45263892 43566500 42256120 41258956 
843.704 40510400 39952352 39534796 39220080 38980540 38800108 38672704 
847.079 38598572 38578796 38612224 38694328 38818080 38976804 39166700 
850.454 39386824 39638024 39920712 40232816 40570640 40929880 41309280 
853.829 41711620 42144384 42616284 43135572 43707916 44335900 45021252 
857.204 45768644 46586228 47488288 48493464 49622496 50899920 52353508 
860.578 54013128 55912856 58082008 60533804 63249776 66165396 69163576 
863.953 72064616 74659872 76731848 78081448 78579352 78177160 76922776 
867.328 74943824 72435544 69628096 66734032 63943616 61396896 59172404 
870.703 57304552 55788472 54597516 53693220 53036400 52593100 52332500 
874.078 52229240 52261940 52411452 52663644 53009932 53448376 53983976 
877.452 54625848 55383344 56260732 57251436 58333340 59469584 60606028 
880.827 61676244 62615476 63362360 63874596 64138032 64169676 64015836 
884.202 63740352 63417608 63113764 62877224 62737816 62705232 62777168 
887.577 62944784 63199988 63536532 63949680 64433752 64979428 65573060 
890.952 66198960 66840916 67484520 68118840 68734528 69323296 69876712 
894.327 70386096 70843808 71245080 71588272 71874952 72108592 72294328 
897.701 72438400 72548896 72637248 72717424 72804320 72911256 73045312 
901.076 73205992 73385056 73570640 73749856 73914800 74064336 74204568 
904.451 74347032 74506000 74697328 74937640 75243256 75632600 76123760 
907.826 76731688 77468576 78340984 79349568 80492216 81765648 83167960 
911.201 84699768 86363328 88161296 90096632 92173416 94400000 96793560 
914.575 99379712 102194400 105279200 108671600 112401640 116482336 120905584 
917.950 125633912 130594760 135678144 140715616 145487696 149741120 
920.843 153188896 155579856 156744704 156640864 155388224 153267376 
923.736 150710352 148203904 146255376 145324864 145722592 147593056 
926.628 150863392 155260992 160306224 165376544 169840880 173088160 
929.521 174669968 174369120 172187904 168322576 163075120 156805360 
932.414 149850064 142498736 135012064 127605496 120467136 113772664 
935.306 107662096 102247104 97607800 93783296 90785544 88604664 87215776 
938.681 86582232 86649016 87340096 88539008 90086560 91797728 93454576 
942.056 94845952 95801688 96199336 95994496 95218176 93971048 92396296 
945.431 90654064 88905088 87274832 85850048 84678184 83768608 83106496 
948.806 82663536 82410384 82319736 82368960 82540784 82818112 83184256 
952.181 83623896 84123168 84672184 85265232 85899472 86572256 87279736 
955.555 88015400 88772432 89545032 90330976 91131576 91949784 92787920 
958.930 93645360 94517592 95398584 96283280 97170480 98063368 98967528 
962.305 99888848 100830264 101790896 102767344 103756000 104755816 105768208 
965.680 106796528 107843000 108907584 109987208 111077816 112176664 
968.573 113284456 114404776 115542048 116698384 117872056 119056984 
971.465 120246904 121437936 122631416 123833864 125054152 126300064 
974.358 127574784 128877488 130205808 131559032 132940800 134358384 
977.251 135818736 137325088 138872800 140450064 142039280 143623328 
980.143 145188016 146722192 148216480 149659872 151037120 152331712 
983.036 153529056 154621696 155612176 156512512 157340256 158111520 
985.929 158838992 159531328 160195776 160843056 161488816 162151952 
988.821 162851168 163598960 164398880 165246128 166132240 167050176 
991.714 167998048 168978272 169995040 171048816 172134720 173242240 
994.607 174359776 175479984 176601408 177728624 178867136 180018464 
997.500 181178336 182337840 183487888 184624640 185752272 186881616 
1000.392 188025184 189190800 190380192 191589216 192813712 194054688 
1003.285 195320976 196626672 197987088 199410912 200898288 202441968 
1006.178 204033600 205669280 207353440 209096112 210908016 212792880 
1009.070 214744256 216745776 218776304 220816688 222850992 224865152 
1011.963 226843216 228759312 230579408 232267328 233792480 235141600 
1014.856 236322464 237362304 238296688 239160352 239982832 240784656 
1017.748 241583696 242400752 243259424 244184608 245195792 246300464 
1020.641 247493696 248763568 250100464 251505072 252992992 254588224 
1023.534 256317232 258197392 260232240 262412752 264723360 267148608 
1026.427 269672736 272276608 274928416 277571808 280129120 282503488 
1029.320 284586368 286278688 287489888 288137632 288150912 287460000 
1032.213 286003808 283745696 280683936 276865312 272378624 267352112 
1035.106 261930192 256251392 250454672 244666080 239000432 233575136 
1037.999 228496752 223857472 219736448 216186064 213235696 210894784 
1040.892 209151664 207971120 207283184 206980960 206901200 206825552 
1043.785 206517120 205726432 204244144 201948880 198814992 194924384 
1046.678 190435104 185564640 180541872 175569776 170826224 166435296 
1049.571 162468416 158955024 155883840 153216864 150896688 148863280 
1052.464 147059696 145437632 143962064 142606848 141349856 140171008 
1055.357 139048320 137959056 136883936 135807904 134721104 133618040 
1058.250 132493064 131339104 130146696 128906832 127615136 126275208 
1061.144 124899688 123508200 122122880 120766152 119455880 118206576 
1064.037 117029952 115934912 114926536 114002904 113152440 112350224 
1066.930 111558496 110736096 109841000 108841592 107724256 106493424 
1069.823 105171120 103789456 102388176 101006040 99675680 98424224 97268544 
1073.198 96215248 95261864 94397656 93606680 92870680 92173248 91502464 
1076.573 90850232 90212520 89586088 88966568 88348952 87727872 87101008 
1079.948 86471240 85847824 85245472 84680512 84169416 83726056 83359976 
1083.324 83079208 82890496 82800312 82815472 82941904 83182808 83538976 
1086.699 84008968 84590288 85280920 86079168 86982496 87983752 89070248 
1090.074 90222184 91414448 92624216 93832848 95031856 96222200 97411040 
1093.449 98605848 99807872 101008840 102191296 103334312 104417728 105432704 
1096.825 106385720 107302312 108222536 109194096 110262088 111450080 
1099.718 112748672 114101744 115413056 116546080 117344232 117670344 
1102.611 117419032 116545952 115074040 113089104 110722624 108119464 
1105.504 105432416 102793280 100300192 98023832 95999416 94233760 92711296 
1108.879 91400824 90262768 89251864 88326864 87450392 86589840 85720944 
1112.254 84823608 83882656 82889248 81840176 80740552 79602224 78444328 
1115.630 77289920 76160672 75077288 74055576 73105528 72232880 71439672 
1119.005 70724544 70083688 69510720 68997272 68532576 68106088 67707432 
1122.380 67326552 66953824 66577816 66182292 65747692 65249300 64661256 
1125.755 63963084 63142276 62199496 61148208 60014948 58834444 57641624 
1129.131 56471584 55350864 54296024 53314392 52404012 51556984 50761840 
1132.506 50007260 49284088 48586724 47914048 47268672 46655652 46080780 
1135.881 45549384 45065100 44630044 44245312 43911692 43630056 43401584 
1139.256 43227360 43107140 43039340 43020976 43048964 43120824 43235596 
1142.632 43393672 43596096 43842704 44131300 44456832 44812504 45190900 
1146.007 45585156 45990484 46403460 46821328 47241816 47662192 48080128 
1149.382 48494536 48905896 49316568 49729560 50147852 50573172 51005960 
1152.757 51445140 51889656 52338412 52790240 53243556 53695396 54140948 
1156.133 54574220 54989012 55379352 55740740 56069212 56360164 56607488 
1159.508 56802836 56935668 56996268 56975900 56868548 56671436 56384348 
1162.883 56008480 55546172 55000632 54376420 53679908 52920280 52108672 
1166.258 51256964 50378228 49484376 48586760 47696288 46823024 45976928 
1169.634 45168032 44404568 43693916 43041608 42450632 41923152 41460496 
1173.009 41064612 40737904 40483700 40305156 40205300 40186724 40251716 
1176.384 40403476 40646860 40987484 41432612 41989604 42664900 43464932 
1179.759 44395500 45463068 46676016 48043336 49575208 51281268 53169288 
1183.135 55244396 57508232 59957048 62577972 65343416 68210136 71108464 
1186.510 73945560 76615816 78997456 80973928 82448112 83343920 83622368 
1189.885 83281944 82359392 80922504 79061808 76884760 74494400 71987256 
1193.260 69448704 66943228 64521620 62221060 60064788 58066932 56232748 
1196.635 54559904 53040256 51661836 50411756 49276628 48245648 47311528 
1200.011 46469612 45717032 45051796 44470704 43968628 43539100 43174036 
1203.386 42865412 42605940 42388088 42204484 42046584 41903956 41766188 
1206.761 41622704 41465052 41288324 41091200 40875928 40646752 40409840 
1210.136 40172076 39940876 39725080 39534288 39378552 39268424 39212680 
1213.512 39218556 39291348 39434424 39650436 39941380 40308540 40751732 
1216.887 41268652 41854880 42504160 43209792 43966684 44771804 45624460 
1220.262 46525628 47476904 48480164 49536772 50649344 51821484 53057476 
1223.637 54361472 55734972 57174968 58672428 60212904 61777120 63341700 
1227.013 64882040 66372380 67785544 69097840 70289128 71347224 72270680 
1230.388 73069696 73765720 74386560 74966624 75543560 76154672 76841856 
1233.763 77649408 78621320 79804616 81242024 82968896 85013328 87392040 
1237.138 90112280 93171848 96559928 100255448 104222192 108411672 112758896 
1240.514 117185240 121612560 125962672 130165536 134165000 137910928 
1243.407 141356784 144458864 147169280 149438400 151217872 152456128 
1246.300 153103152 153113472 152447440 151082304 149018064 146280064 
1249.193 142915536 138984224 134550704 129671904 124399032 118783056 
1252.086 112878248 106754448 100499976 94211656 87998680 81971048 76222232 
1255.461 70835464 65870492 61358888 57309768 53708744 50525900 47719992 
1258.836 45246460 43063452 41130212 39412836 37882780 36515488 35291480 
1262.212 34195040 33211794 32329988 31537964 30824070 30178506 29592636 
1265.587 29060302 28577842 28143072 27753948 27407980 27101538 26831012 
1268.962 26593840 26389646 26220530 26090392 26003528 25963638 25972784 
1272.337 26032516 26144828 26313246 26543468 26842116 27215150 27665266 
1275.713 28189812 28779032 29414362 30070934 30715164 31307858 31810832 
1279.088 32187554 32411416 32471470 32373004 32137066 31794220 31381116 
1282.463 30930548 30467650 30009614 29565252 29138320 28730990 28345476 
1285.838 27984476 27650824 27346116 27070714 26823788 26605006 26414468 
1289.214 26253228 26121852 26019114 25941620 25884642 25843146 25814520 
1292.589 25799786 25803232 25831470 25890304 25984358 26115552 26284874 
1295.964 26493844 26746044 27046770 27403038 27820886 28305194 28859760 
1299.339 29486946 30189268 30967732 31819210 32732882 33685608 34643808 
1302.715 35561648 36389332 37082452 37605532 37939800 38085036 38058416 
1306.090 37890592 37619948 37291052 36945992 36621640 36348296 36144144 
1309.465 36016584 35962584 35971656 36029360 36120956 36234324 36360076 
1312.840 36490624 36619084 36737448 36837164 36910424 36951404 36956812 
1316.216 36926368 36861400 36763520 36633540 36472100 36280572 36061980 
1319.591 35822412 35569416 35310784 35053272 34801444 34557868 34325152 
1322.966 34106900 33909352 33740468 33608132 33519070 33477518 33485390 
1326.341 33544056 33655428 33822088 34046296 34327232 34659632 35032116 
1329.717 35430372 35839468 36247076 36646196 37034712 37412236 37777908 
1333.092 38127864 38454208 38747648 38998804 39201368 39353120 39455944 
1336.467 39515200 39537880 39533492 39514040 39493496 39489472 39519848 
1339.842 39599544 39739276 39942472 40207044 40527640 40898860 41317148 
1343.218 41780200 42287164 42836300 43425788 44054064 44721448 45429660 
1346.593 46180008 46969384 47782904 48593096 49355172 50012056 50507028 
1349.968 50786236 50813424 50575668 50084488 49375180 48499060 47521664 
1353.343 46509068 45521864 44613996 43822876 43171436 42667568 42307036 
1356.719 42077688 41963584 41950484 42025704 42178012 42396892 42669396 
1360.094 42981212 43319496 43675668 44048932 44446516 44881908 45367900 
1363.469 45909232 46498928 47117304 47734120 48309780 48801964 49167040 
1366.844 49361484 49351456 49116396 48654912 47985756 47145296 46180780 
1370.219 45137004 44054104 42961676 41877500 40814956 39787680 38813732 
1373.595 37919116 37133304 36479452 35968816 35595888 35342664 35186192 
1376.970 35108840 35104640 35182172 35361856 35674544 36159740 36860100 
1380.345 37822624 39093060 40700892 42643700 44863496 47244844 49603700 
1383.720 51710356 53336380 54258404 54307888 53402548 51572876 48981072 
1387.096 45892184 42641612 39531312 36770336 34463484 32614782 31170280 
1390.471 30050092 29177866 28488638 27931860 27473380 27090498 26770888 
1393.846 26512052 26317786 26193886 26143914 26165274 26249040 26383518 
1397.221 26555198 26752386 26966940 27193736 27431378 27681724 27948114 
1400.597 28234008 28540296 28864964 29202564 29545390 29884870 30214416 
1403.972 30530778 30834066 31126176 31408686 31681292 31941872 32189194 
1407.347 32425304 32656648 32894154 33150316 33435538 33757444 34119084 
1410.722 34520952 34963160 35446012 35968776 36526772 37108616 37696448 
1414.098 38268100 38806232 39303640 39769088 40226124 40710464 41263948 
1417.473 41923408 42714688 43641668 44680424 45781492 46882080 47923148 
1420.848 48857540 49657152 50313412 50836704 51259832 51636052 52037096 
1424.223 52531136 53166404 53959548 54894668 55937052 57048180 58201136 
1427.599 59380304 60578752 61793544 63020364 64255612 65500200 66767612 
1430.974 68084080 69479736 70983040 72609008 74359064 76224800 78201520 
1434.349 80298912 82542464 84968888 87606928 90457008 93473808 96581488 
1437.724 99705608 102793408 105816448 108750544 111559864 114172592 
1440.617 116478656 118354672 119664848 120291176 120155176 119216880 
1443.510 117486264 115021008 111933192 108375472 104518200 100551008 
1446.404 96647712 92958336 89609824 86683000 84205736 82145120 80424424 
1449.779 78943528 77609312 76368104 75213784 74188728 73356504 72779912 
1453.154 72488480 72467296 72658200 72974048 73322920 73616048 73798936 
1456.529 73872616 73903960 73998760 74254960 74743256 75493448 76513024 
1459.905 77798880 79337168 81100832 83039736 85086040 87141168 89073128 
1463.280 90738784 91987336 92705760 92858328 92504080 91777760 90833320 
1466.655 89815504 88828976 87936888 87179608 86576016 86126632 85811088 
1470.030 85584136 85377664 85103368 84681968 84068680 83279096 82387744 
1473.406 81498384 80706152 80067448 79608912 79340904 79270896 79409840 
1476.781 79765832 80332600 81082576 81966928 82927912 83902720 84841016 
1480.156 85713592 86514376 87262552 87994536 88759704 89608400 90592304 
1483.531 91768304 93196040 94938176 97049616 99558864 102445600 105617584 
1486.906 108916224 112100872 114868048 116901736 117882752 117562392 
1489.800 115831072 112753184 108572880 103635976 98314888 92905360 87587144 
1493.175 82457008 77539152 72835000 68370240 64204672 60440300 57201692 
1496.550 54591952 52662144 51398480 50745156 50624884 50962436 51695764 
1499.925 52767716 54121808 55701112 57439848 59268252 61118648 62907592 
1503.301 64537996 65889388 66787472 67012080 66316136 64497440 61528476 
1506.676 57647224 53308360 48969388 44922140 41256224 37933220 34878848 
1510.051 32038924 29391990 26951322 24745012 22791744 21096160 19643088 
1513.426 18405780 17354514 16461687 15702557 15051659 14483912 13979316 
1516.802 13527121 13131334 12805210 12562133 12404727 12319296 12276927 
1520.177 12244753 12198404 12138295 12090629 12094514 12177583 12340873 
1523.552 12562986 12812342 13064744 13309298 13553887 13818828 14126991 
1526.927 14490627 14906652 15361590 15841197 16338605 16857180 17407450 
1530.302 18001242 18645304 19339996 20080392 20859560 21673530 22521760 
1533.678 23404240 24315324 25243108 26169604 27077732 27950834 28776800 
1537.053 29549930 30265358 30919590 31506292 32012992 32419984 32706946 
1540.428 32866382 32908808 32860234 32750140 32596066 32399028 32144486 
1543.803 31813864 31397358 30904148 30363206 29814098 29289256 28799778 
1547.179 28334372 27865894 27367288 26823858 26244358 25658144 25105364 
1550.554 24615668 24197144 23835968 23507936 23191822 22879608 22580044 
1553.929 22313402 22099530 21945528 21840464 21757338 21660956 21509826 
1557.304 21260370 20877012 20347784 19709480 19046844 18457740 18003106 
1560.680 17690906 17494580 17374964 17295274 17224802 17144102 17046638 
1564.055 16939514 16840752 16771145 16745282 16764292 16816332 16881432 
1567.430 16940822 16981926 17002874 17012076 17024066 17053048 17106224 
1570.805 17184294 17283998 17401588 17533700 17676204 17822312 17959730 
1574.181 18072426 18145524 18171746 18159516 18133052 18123932 18153124 
1577.556 18223090 18319264 18421716 18511608 18577274 18616458 18632852 
1580.931 18632920 18621714 18600998 18569494 18525542 18469460 18404294 
1584.306 18333850 18260756 18183596 18097642 17997166 17879690 17749406 
1587.682 17617368 17498478 17407864 17357720 17354686 17401726 17500650 
1591.057 17652946 17858942 18113706 18404364 18707462 18991488 19225516 
1594.432 19383614 19452982 19436002 19348380 19213428 19054632 18893782 
1597.807 18747418 18629046 18551754 18528136 18569390 18683732 18874506 
1601.183 19139944 19476198 19878992 20345004 20869502 21443890 22050688 
1604.558 22662422 23245512 23760682 24169994 24443842 24561320 24514794 
1607.933 24309016 23960738 23493560 22934622 22315146 21667156 21022184 
1611.308 20411470 19858286 19375922 18965424 18616976 18313528 18035090 
1614.684 17763870 17486956 17200152 16911160 16639575 16411515 16249403 
1618.059 16167065 16164830 16232310 16351335 16500989 16661610 16817778 
1621.434 16963458 17104122 17255486 17436698 17662056 17935282 18248696 
1624.809 18589518 18946354 19314118 19692630 20083966 20487394 20897384 
1628.185 21304250 21698886 22076554 22439584 22795270 23151316 23510944 
1631.560 23871288 24222018 24549224 24840082 25082898 25271694 25406082 
1634.935 25492896 25543954 25575406 25603768 25639934 25688654 25746592 
1638.310 25804852 25849650 25865546 25840790 25769972 25658212 25518512 
1641.686 25368386 25221124 25081318 24942468 24789142 24602484 24364560 
1645.061 24065650 23708400 23311236 22903744 22520504 22192766 21938838 
1648.436 21764688 21664300 21624144 21622822 21630308 21607846 21504814 
1651.811 21269276 20874126 20351116 19799326 19329914 19003086 18807444 
1655.187 18694870 18612030 18521498 18403812 18253430 18074844 17876446 
1658.562 17665920 17446218 17215528 16968938 16701069 16408108 16089693 
1661.937 15749555 15396194 15041952 14700886 14386357 14106899 13864016 
1665.312 13651495 13456507 13261811 13048389 12799818 12506544 12169166 
1668.688 11799263 11415897 11040789 10691473 10378171 10103110 9863371 
1672.063 9651341 9455330 9261200 9053287 8819030 8556275 8278684 8014399 
1675.920 7793891 7638304 7549928 7516214 7516585 7532902 7555120 7582700 
1679.778 7623129 7685956 7777227 7894430 8027731 8162288 8285877 8395145 
1683.635 8501668 8627416 8796104 9018204 9287231 9587077 9902115 10221417 
1687.492 10538239 10847581 11145278 11425932 11684405 11918374 12129879 
1690.868 12325602 12514080 12702471 12892683 13079085 13248147 13382486 
1694.243 13464948 13487506 13459035 13407158 13367109 13361266 13389594 
1697.618 13428619 13443656 13393967 13246985 12993180 12660986 12312308 
1700.993 12009824 11786598 11634509 11522825 11414367 11279240 11098571 
1704.369 10865111 10584377 10271864 9948728 9633453 9337399 9063707 8809359 
1708.226 8567528 8330662 8092405 7849320 7601245 7350886 7103129 6862650 
1712.083 6631556 6409967 6195145 5983991 5774618 5567494 5364897 5168865 
1715.941 4980162 4796632 4616395 4441255 4279134 4142562 4043290 3986706 
1719.798 3969284 3980955 4008074 4037404 4061116 4076501 4087137 4099813 
1723.656 4121355 4155275 4200806 4253938 4309585 4364638 4417321 4466328 
1727.513 4509950 4544369 4564860 4568343 4554715 4527594 4492708 4453741 
1731.371 4408383 4345996 4249420 4101720 3896061 3647494 3391655 3172079 
1735.228 3016704 2927962 2888535 2873325 2860084 2832568 2783912 2716190 
1739.085 2638543 2562944 2499055 2451702 2420614 2403722 2398324 2403355 
1742.943 2417815 2439673 2466031 2493089 2517584 2537980 2554645 2569076 
1746.800 2582209 2593075 2599109 2596142 2580376 2549679 2504953 2449436 
1750.658 2389162 2330328 2279830 2242026 2219546 2211786 2215982 2226473 
1754.515 2235632 2235832 2220578 2188241 2142887 2093442 2050695 2021367 
1758.373 2006021 1998964 1991175 1972934 1938453 1887667 1826672 1765685 
1762.230 1714221 1678163 1658173 1651089 1651721 1655612 1658971 1658506 
1766.087 1651654 1636421 1612542 1582312 1550887 1523953 1505732 1495725 
1769.945 1488510 1476242 1450210 1406362 1348194 1287274 1237927 1210116 
1773.802 1205995 1219685 1241781 1263979 1282190 1297311 1312897 1332539 
1777.660 1356902 1382296 1402706 1412445 1408889 1394927 1377476 1364347 
1781.517 1360325 1365344 1375083 1383393 1385354 1379803 1368768 1357101 
1785.375 1348925 1346066 1347994 1352847 1358929 1366674 1376546 1389110 
1789.232 1402473 1412047 1411681 1395260 1361056 1313230 1261221 1216528 
1793.089 1187721 1177256 1181741 1194167 1207889 1218987 1225732 1228457 
1796.947 1227826 1223672 1214701 1199982 1179382 1155029 1131077 1112075 
1800.804 1101379 1099685 1105332 1115630 1128087 1142206 1158219 1177123 
1804.662 1199284 1223705 1247763 1269296 1286743 1299670 1308776 1315290 
1808.519 1319478 1321040 1319378 1314492 1307679 1301465 1298507 1300501 
1812.376 1306549 1313761 1318514 1318082 1312532 1304123 1297576 1297344 
1816.234 1306616 1325925 1353146 1385421 1420224 1456626 1494927 1536289 
1820.091 1580649 1627042 1673307 1716250 1753476 1782786 1803214 1814361 
1823.949 1817222 1813895 1808704 1806908 1813928 1833227 1864872 1905238 
1827.806 1947239 1983020 2006653 2017039 2018837 2020701 2032718 2060915 
1831.664 2105295 2161001 2220745 2278098 2329695 2375136 2417116 2458766 
1835.521 2502287 2548112 2595375 2643877 2694751 2751400 2817761 2897307 
1839.378 2991381 3098289 3213936 3333420 3452837 3568946 3680708 3788287 
1843.236 3893386 3998778 4107774 4223691 4348071 4479852 4614286 4743937 
1847.093 4859722 4952344 5015288 5045925 5045993 5020450 4974699 4913604 
1850.951 4838344 4748828 4643924 4524581 4393957 4257384 4120284 3986338 
1854.808 3856679 3729899 3604392 3479824 3358129 3243278 3139004 3046734 
1858.666 2965392 2891370 2820395 2749566 2678615 2609175 2543513 2482925 
1862.523 2426778 2373137 2320668 2269571 2221877 2181115 2149447 2126438 
1866.380 2108325 2089447 2063812 2029589 1989244 1949369 1917252 1898516 
1870.238 1893291 1898749 1908999 1919715 1928468 1935158 1939983 1943212 
1874.095 1943112 1937088 1922344 1897817 1864406 1824942 1783152 1741433 
1877.953 1701048 1662164 1624448 1589029 1557637 1532000 1511917 1494860 
1881.810 1475643 1448182 1408889 1357467 1298972 1240087 1188951 1150511 
1885.667 1125496 1110414 1100017 1089985 1077429 1062449 1046373 1031394 
1889.525 1018408 1007979 1000308 996156 996987 1004160 1017511 1035014 
1893.382 1053182 1068793 1080252 1088823 1097592 1110447 1129383 1152737 
1897.240 1175794 1193004 1200447 1197656 1187987 1176591 1168319 1165661 
1901.097 1167920 1172339 1176392 1179847 1184100 1192140 1205563 1223008 
1904.955 1241416 1255937 1263248 1263115 1258729 1254110 1253578 1258396 
1908.812 1266538 1274447 1279033 1279033 1275942 1272818 1271788 1273649 
1912.669 1276839 1279199 1279498 1278302 1277305 1278069 1279963 1280163 
1916.527 1274613 1260124 1237728 1213139 1194699 1189316 1199051 1219220 
1920.384 1240452 1252415 1248294 1227227 1195496 1162737 1137655 1124831 
1924.242 1123370 1128220 1134831 1141010 1148285 1160079 1178485 1202141 
1928.099 1226297 1245138 1254542 1255007 1251252 1250188 1256934 1272486 
1931.957 1292193 1309408 1318780 1318680 1312731 1307048 1307779 1316819 
1935.814 1332340 1348991 1362452 1371360 1377643 1385055 1396157 1409952 
1939.671 1422086 1426673 1419825 1402539 1380268 1361621 1353113 1356470 
1943.529 1368037 1381498 1391636 1398152 1405365 1419692 1446453 1485551 
1947.386 1531402 1575827 1611211 1633794 1645867 1652452 1659005 1668218 
1951.244 1677897 1683452 1681190 1670247 1653583 1636854 1624714 1617896 
1955.101 1613772 1607753 1596047 1579186 1561960 1550521 1550588 1562093 
1958.958 1580184 1597643 1607686 1608085 1601667 1594350 1590925 1593785 
1962.816 1600835 1608784 1615202 1620856 1627707 1639015 1653949 1666788 
1966.673 1669416 1654448 1619393 1570673 1520429 1481062 1462079 1464240 
1970.531 1480830 1501111 1516073 1522357 1523388 1526081 1537487 1561196 
1974.388 1597643 1645135 1704807 1780757 1878915 2002259 2146683 2297617 
1978.246 2434408 2538380 2596142 2606542 2577943 2525182 2462465 2399990 
1982.103 2341988 2288090 2238596 2193503 2156306 2130600 2117848 2116483 
1985.960 2121311 2126571 2129035 2128603 2127803 2130700 2137992 2146517 
1989.818 2150612 2144519 2126172 2099868 2073866 2059251 2062680 2086650 
1993.675 2126871 2175787 2224941 2268538 2303280 2327430 2339356 2337191 
1997.533 2318170 2283394 2235798 2183146 2134629 2097937 2075531 2064278 
2001.390 2056021 2041207 2014542 1976762 1934359 1898283 1878549 1881377 
2005.248 1908034 1954861 2015441 2083155 2151545 2213784 2264042 2295785 
2009.105 2305611 2293453 2264808 2228438 2195235 2174222 2168760 2178151 
2012.962 2197466 2220911 2246223 2273201 2303946 2339722 2378900 2417882 
2016.820 2452368 2480826 2505586 2533181 2570110 2619842 2680082 2743431 
2020.677 2799986 2842007 2867755 2880763 2889002 2899475 2914853 2932999 
2024.535 2949279 2957986 2958019 2951314 2942940 2936769 2934200 2932099 
2028.392 2925761 2912585 2893705 2874559 2863753 2868522 2892771 2935968 
2032.250 2995284 3068089 3152921 3250556 3361902 3483932 3609638 3729164 
2036.107 3832109 3912376 3969151 4006168 4030013 4045397 4055263 4058708 
2039.964 4054226 4041852 4024595 4006469 3992491 3984599 3980653 3976173 
2043.822 3967278 3952766 3936516 3926753 3932604 3960758 4012723 4085331 
2047.679 4170362 4259793 4345528 4419631 4476739 4510686 4516880 4494851 
2051.537 4448485 4387565 4325749 4278431 4256447 4263608 4294326 4337596 
2055.394 4380268 4412367 4430677 4438409 4442493 4447949 4457155 4468135 
2059.251 4476505 4478881 4475333 4469307 4465524 4468002 4476471 4487385 
2063.109 4494784 4494013 4483066 4464353 4441857 4421003 4404735 4393388 
2066.966 4386125 4380569 4375950 4371934 4368922 4365642 4360287 4350180 
2070.824 4334049 4313032 4291180 4274215 4266619 4270501 4283082 4298575 
2074.681 4311727 4318420 4318821 4316479 4316479 4322402 4334985 4352187 
2078.539 4370461 4387096 4401522 4415413 4430877 4448887 4468504 4486414 
2082.396 4499404 4505564 4506066 4504292 4503655 4506869 4513231 4519559 
2086.253 4521433 4515608 4501212 4479852 4454812 4428367 4401522 4373407 
2090.111 4342248 4307243 4269831 4233694 4203382 4182974 4174844 4178892 
2093.968 4194114 4218806 4251528 4291347 4336458 4383381 4427932 4464955 
2097.826 4490867 4504794 4509280 4508878 4508577 4511657 4519023 4530038 
2101.683 4542962 4557795 4576479 4602096 4637025 4681602 4733184 4786984 
2105.541 4838177 4884048 4924629 4962868 5003020 5047668 5097619 5151296 
2109.398 5206153 5259508 5310623 5359228 5405791 5449810 5489907 5524101 
2113.255 5550982 5571455 5588437 5606159 5628077 5655736 5688165 5721737 
2117.113 5752726 5778849 5800340 5819514 5839394 5862533 5889334 5919026 
2120.970 5949525 5978986 6007171 6034553 6062070 6090127 6118118 6145204 
2124.828 6170846 6196087 6223581 6256085 6295853 6342551 6393558 6444671 
2128.685 6491957 6533159 6568311 6599360 6629639 6661736 6697638 6738591 
2132.542 6786581 6843665 6912405 6993985 7086626 7184408 7279111 7362040 
2136.400 7426717 7472424 7502628 7523698 7542140 7561121 7580508 7597435 
2140.257 7608630 7611631 7607787 7598446 7585431 7568808 7546691 7517124 
2144.115 7479570 7437098 7394529 7357592 7328544 7305461 7282211 7250203 
2147.972 7202936 7139202 7063388 6982200 6901599 6823974 6744783 6657261 
2151.830 6553880 6430581 6289163 6135525 5975895 5815954 5658791 5505947 
2155.687 5363790 5244551 5167155 5154581 5224329 5379355 5603910 5866429 
2159.544 6127930 6352906 6520815 6624390 6669576 6669509 6637108 6585298 
2163.402 6523371 6459065 6397929 6344669 6300123 6261194 6222404 6175753 
2167.259 6114556 6036434 5942606 5837917 5727209 5614348 5500443 5385125 
2171.117 5268228 5153073 5046361 4956835 4893598 4861765 4860793 4885221 
2174.974 4924495 4966353 4998697 5011433 4997021 4952244 4878251 4782461 
2178.832 4676846 4577417 4500475 4456720 4449757 4473894 4516211 4560508 
2182.689 4593859 4610100 4608861 4594897 4573834 4548621 4520262 4487854 
2186.546 4451063 4413706 4380469 4357543 4348239 4351820 4362864 4374511 
2190.404 4380502 4377524 4367483 4353125 4337997 4323607 4308916 4292151 
2194.261 4274114 4257049 4245070 4243197 4253235 4272207 4294694 4313467 
2198.119 4323908 4326083 4324076 4323574 4329162 4341913 4357910 4371967 
2201.976 4378929 4377624 4370696 4363065 4358948 4360187 4365106 4369390 
2205.833 4369390 4364470 4356003 4347168 4341378 4338366 4336324 4331338 
2209.691 4321398 4307042 4292218 4281777 4279769 4286696 4299345 4311660 
2213.548 4319290 4320260 4315944 4310690 4309016 4313567 4323172 4334952 
2217.406 4345260 4352154 4356003 4358781 4362764 4368955 4376553 4383916 
2221.263 4389037 4391748 4393522 4396602 4401589 4407882 4412769 4412367 
2225.121 4404334 4388669 4367483 4344557 4323506 4305603 4290544 4277460 
2228.978 4265682 4256079 4251428 4254071 4265414 4283685 4305302 4325013 
2232.835 4339303 4346833 4349176 4349678 4351953 4357810 4367248 4379632 
2236.693 4393556 4409890 4429907 4455582 4487619 4524581 4562617 4597843 
2240.550 4626944 4648579 4664186 4676946 4689741 4704813 4722800 4743334 
2244.408 4766247 4791808 4821324 4856203 4896413 4940347 4984686 5025210 
2248.265 5058496 5082700 5097987 5105698 5108011 5106805 5103754 5100837 
2252.123 5100703 5105799 5118706 5141136 5171347 5206052 5240258 5268966 
2255.980 5288788 5299286 5301433 5297475 5289694 5278391 5263466 5244484 
2259.837 5221881 5197300 5173492 5153173 5137985 5127624 5121087 5116997 
2263.695 5115421 5117097 5124305 5138119 5157935 5180836 5202330 5217454 
2267.552 5223356 5219869 5209607 5196429 5184122 5174733 5168094 5162863 
2271.410 5157230 5150357 5142578 5135168 5129234 5125412 5123702 5123199 
2275.267 5123467 5124707 5127758 5133626 5143081 5155788 5170509 5186268 
2279.125 5201861 5216649 5230767 5244417 5257362 5269302 5279598 5288050 
2282.982 5295697 5303244 5312099 5322631 5333835 5343596 5349466 5349735 
2286.839 5344032 5334036 5322732 5312434 5305256 5300997 5298112 5294590 
2290.697 5288754 5280235 5270241 5261018 5254579 5252600 5255954 5263969 
2294.554 5275774 5289928 5305122 5319746 5332459 5341985 5348124 5351579 
2298.412 5353961 5357617 5364696 5375934 5390795 5406965 5421224 5431054 
2302.269 5435248 5434409 5431188 5428639 5430048 5437295 5451085 5470949 
2306.126 5495779 5524168 5555077 5587464 5620760 5654394 5688400 5723113 
2309.984 5759273 5797922 5839629 5884061 5930278 5976366 6020240 6060692 
2313.841 6097351 6131157 6163351 6195280 6227917 6261564 6295349 6329237 
2317.699 6363195 6397626 6434011 6473594 6517249 6565788 6618940 6675094 
2321.556 6731288 6782980 6823672 6846325 6844742 6815089 6758176 6679232 
2325.414 6588225 6496699 6415886 6354218 6314982 6296694 6293534 6298744 
2329.271 6305905 6311217 6313705 6314646 6316024 6319621 6326447 6336600 
2333.128 6350418 6368373 6390800 6418307 6450187 6485028 6520680 6555225 
2336.986 6587384 6617258 6645990 6674858 6705074 6736370 6767566 6797318 
2340.843 6824412 6848008 6868104 6884531 6896246 6901296 6896751 6879717 
2344.701 6848748 6805362 6753836 6701979 6659078 6633844 6633945 6663620 
2348.558 6723851 6811925 6922472 7047257 7176087 7300036 7411111 7505257 
2352.416 7582430 7646060 7701942 7754795 7807723 7861061 7913832 7963437 
2356.273 8008728 8049367 8085619 8118163 8147264 8172653 8193858 8211246 
2360.130 8225834 8239240 8252545 8265884 8277975 8286249 8288680 8284324 
2363.988 8274563 8262102 8250013 8240422 8233770 8228502 8222120 8212833 
2367.845 8199901 8184707 8169378 8155806 8145002 8136325 8128156 8118635 
2371.703 8106313 8091055 8073299 8053957 8033773 8013117 7992428 7972111 
2375.560 7953719 7938736 7929017 7925744 7929220 7938736 7952774 7970255 
2379.417 7990031 8012205 8037013 8065231 8096996 8132274 8170391 8210706 
2383.275 8252511 8295536 8339206 8383253 8427102 8469874 8511028 8550124 
2387.132 8586960 8622075 8655672 8687885 8718513 8747282 8773958 8798505 
2390.990 8821396 8843105 8864274 8885073 8905331 8924778 8943584 8962051 
2394.847 8981163 9002068 9025613 9051629 9079812 9108910 9138653 9169143 
2398.705 9201632 9237981 9279310 9326126 9377417 9431694 9486925 9542130 
2402.562 9597646 9655000 9716460 9783894 9858659 9940523 10028675 10121424 
2406.419 10217449 10315598 10415331 10516309 10618567 10722445 10828727 
2409.795 10938466 11052889 11172543 11296855 11424163 11551645 11675453 
2413.170 11792454 11900768 11999741 12090187 12173256 12249831 12320318 
2416.545 12384202 12440766 12489834 12531814 12568102 12600266 12630113 
2419.920 12658666 12687050 12715435 12744335 12774601 12807360 12843193 
2423.296 12882511 12925212 12970614 13018376 13068398 13121635 13179387 
2426.671 13243637 13316131 13398137 13490275 13592996 13706342 13830185 
2430.046 13964158 14107481 14258897 14417115 14581010 14750347 14925308 
2433.421 15107164 15297198 15496036 15703415 15918251 16138453 16362069 
2436.797 16587626 16814506 17042710 17272688 17505066 17740330 17979242 
2440.172 18221986 18469218 18721058 18977330 19236702 19497336 19756778 
2443.547 20013144 20265254 20513272 20758166 21001456 21244260 21487162 
2446.922 21730062 21971808 22212084 22450052 22685496 22918134 23147506 
2450.298 23372422 23591400 23803416 24007520 24204010 24393756 24577870 
2453.673 24757744 24934082 25107436 25277876 25445570 25610234 25771694 
2457.048 25928606 26079204 26220916 26351056 26467042 26567526 26651862 
2460.423 26720214 26772896 26810042 26832140 26839014 26832316 26814342 
2463.799 26789072 26761478 26736672 26718876 26711230 26715986 26733958 
2467.174 26766342 26814942 26881698 26969338 27079600 27213844 27371982 
2470.549 27553268 27756456 27980308 28223330 28484640 28762498 29054350 
2473.924 29357104 29666562 29978122 30286850 30588192 30878320 31153798 
2477.300 31412672 31654098 31877756 32084298 32274236 32447082 32601390 
2480.675 32734598 32843724 32925892 32979262 33004072 33001568 32974542 
2484.050 32926180 32859414 32777332 32682724 32578636 32468148 32354366 
2487.425 32239546 32124650 32008924 31890274 31765308 31631220 31485878 
2490.801 31328938 31160456 30981394 30792234 30592598 30380900 30154922 
2494.176 29912980 29653542 29376354 29081948 28771312 28445406 28104964 
2497.551 27750664 27383134 27003646 26613848 26215602 25811672 25404430 
2500.926 24996166 24588948 24185022 23786862 23396688 23016856 22648842 
2504.302 22293520 21950514 21618782 21297152 20984660 20681290 20387612 
2507.677 20104786 19834528 19577746 19335664 19108468 18896274 18698676 
2511.052 18515274 18345186 18187640 18041652 17906518 17782096 17668094 
2514.427 17564854 17472226 17389792 17316754 17252346 17195602 17146448 
2517.802 17105502 17073898 17052806 17043090 17044674 17056598 17077586 
2521.178 17106086 17140622 17180364 17224766 17273138 17324962 17379412 
2524.553 17435628 17492820 17550086 17606636 17661226 17712098 17757346 
2527.928 17794626 17822312 17839124 17845028 17840540 17825764 17801496 
2531.303 17767460 17723246 17668714 17604532 17531940 17453360 17371412 
2534.679 17288516 17206254 17125422 17046260 16968350 16891490 16816194 
2538.054 16743112 16673351 16607834 16547250 16491696 16440488 16392762 
2541.429 16347138 16301932 16255837 16207991 16158467 16108088 16058369 
2544.804 16011406 15968435 15929971 15895395 15863054 15831163 15798483 
2548.180 15764674 15730282 15696168 15663704 15633168 15604144 15575981 
2551.555 15548335 15520966 15495040 15471725 15452257 15436601 15424139 
2554.930 15412981 15401240 15387474 15371065 15352391 15332345 15311716 
2558.305 15290746 15269192 15246610 15222348 15196028 15167548 15136841 
2561.681 15103596 15067473 15027854 14984328 14937858 14889508 14841435 
2565.056 14795495 14753262 14715454 14682036 14652870 14628093 14608148 
2568.431 14594099 14586869 14586869 14593448 14605202 14620074 14636454 
2571.806 14653144 14669835 14687142 14705685 14726079 14748634 14773041 
2575.182 14798958 14826144 14854293 14883232 14913099 14943311 14973663 
2578.557 15004050 15034577 15065724 15098691 15134371 15173656 15216788 
2581.932 15263907 15314771 15368696 15425717 15485529 15548335 15613589 
2585.307 15681053 15749728 15818998 15887868 15956026 16023163 16089693 
2588.683 16155992 16222918 16291061 16361073 16433297 16507495 16583219 
2592.058 16659269 16734401 16807204 16877090 16943786 17007768 17069900 
2595.433 17130696 17190706 17249624 17306754 17361722 17413902 17463844 
2598.808 17512242 17560196 17608708 17658880 17711544 17767460 17827628 
2602.184 17892466 17962666 18037852 18117404 18199802 18283530 18367826 
2605.559 18452450 18538164 18626454 18718980 18816788 18920500 19029672 
2608.934 19143822 19261986 19383544 19507908 19634422 19762186 19890056 
2612.309 20016788 20141472 20263656 20383480 20501148 20616696 20729736 
2615.685 20839396 20944428 21044336 21139364 21230340 21319006 21406574 
2619.060 21493534 21579188 21661862 21739536 21810676 21874576 21931692 
2622.435 21983344 22031272 22076766 22120902 22164486 22208038 22252156 
2625.810 22297288 22343574 22390636 22437422 22482676 22524900 22563604 
2629.186 22599134 22632922 22666716 22702148 22739786 22779380 22819748 
2632.561 22858968 22895780 22928858 22957746 22982828 23004558 23023740 
2635.936 23041242 23057946 23074788 23092258 23110988 23130768 23151422 
2639.311 23172320 23192978 23213494 23234886 23258166 23285118 23316722 
2642.687 23353610 23395568 23441904 23491882 23544732 23600738 23659586 
2646.062 23721978 23787946 23857216 23929298 24003772 24079942 24157664 
2649.437 24237188 24318268 24400872 24484224 24567420 24649474 24729720 
2652.812 24808226 24885376 24962192 25040424 25120954 25205078 25293468 
2656.188 25386338 25483620 25584896 25689358 25796308 25904900 26014260 
2659.563 26123680 26233094 26341938 26450596 26559388 26668490 26778288 
2662.938 26889068 27000966 27113880 27228130 27343046 27458556 27574414 
2666.313 27690340 27806262 27922674 28039856 28158310 28278494 28400620 
2669.688 28524514 28650214 28777720 28906930 29037946 29170920 29305952 
2673.064 29442940 29581852 29722868 29865950 30011460 30159432 30310050 
2676.439 30463030 30617558 30772994 30928378 31083496 31238460 31393938 
2679.814 31550936 31710446 31872980 32039136 32208998 32382854 32561350 
2683.189 32745316 32935720 33133042 33337676 33549316 33767436 33991000 
2686.565 34219416 34452220 34689380 34930948 35176748 35426636 35680084 
2689.940 35936888 36196864 36460280 36727640 36999708 37277116 37559756 
2693.315 37847928 38140888 38438100 38739176 39043648 39351672 39663396 
2696.690 39979348 40299924 40625464 40956460 41292696 41633900 41979644 
2700.066 42329168 42681788 43036412 43392500 43749360 44106216 44462664 
2703.441 44817648 45170272 45519540 45864268 46203596 46536948 46863624 
2706.816 47183268 47495496 47799624 48095340 48382036 48659360 48927144 
2710.191 49185448 49434136 49673684 49904624 50127620 50343364 50552848 
2713.567 50756328 50954056 51145308 51328964 51503112 51665904 51815508 
2716.942 51950228 52068924 52171440 52258168 52330296 52389844 52439564 
2720.317 52482524 52521896 52561164 52603012 52650100 52704340 52767568 
2723.692 52841316 52927468 53027524 53143148 53275508 53425740 53593796 
2727.068 53779500 53982024 54200216 54432716 54678116 54934444 55200296 
2730.443 55473880 55753512 56037960 56325948 56616244 56907792 57199156 
2733.818 57488528 57774340 58054660 58327888 58592752 58848180 59093736 
2737.193 59328752 59553148 59766780 59970440 60165252 60352496 60534108 
2740.569 60711948 60887840 61063500 61240944 61422048 61609608 61805996 
2743.944 62013860 62235020 62469984 62718788 62979988 63251460 63531084 
2747.319 63816340 64104228 64391480 64674100 64947100 65205716 65445304 
2750.694 65661928 65853408 66018552 66157168 66269784 66356824 66418520 
2754.070 66455468 66467868 66456316 66420876 66361496 66277272 66166356 
2757.445 66026384 65854684 65649100 65408320 65131724 64819984 64474456 
2760.820 64096556 63688824 63254064 62795432 62317124 61824216 61321604 
2764.195 60814960 60309588 59810624 59323056 58851444 58400200 57973356 
2767.571 57573904 57204260 56865980 56559628 56285436 56043232 55832928 
2770.946 55654100 55506560 55389856 55302724 55243268 55208688 55195368 
2774.321 55198828 55214292 55236572 55260540 55281688 55295840 55299752 
2777.696 55291248 55268364 55229644 55173736 55099176 55004732 54890120 
2781.072 54755612 54603640 54437632 54262496 54082924 53903464 53727488 
2784.447 53556648 53391344 53230932 53073652 52917776 52761020 52601176 
2787.822 52435564 52261644 52076732 51878492 51665796 51437828 51195932 
2791.197 50941684 50678424 50409560 50139408 49871696 49610532 49359516 
2794.573 49121924 48900924 48698980 48518544 48361816 48230132 48125136 
2797.948 48047632 47998484 47977760 47985568 48021504 48084644 48173556 
2801.323 48286672 48421632 48576092 48747724 48934488 49134464 49346336 
2804.698 49568788 49799936 50038268 50280936 50525380 50768020 51005736 
2808.073 51235596 51454840 51660308 51849000 52017676 52162132 52278644 
2811.449 52364052 52415640 52432576 52415188 52365172 52284400 52176292 
2814.824 52043524 51889768 51719388 51536800 51347124 51156492 50970484 
2818.199 50794952 50636016 50498728 50388688 50310920 50269332 50266840 
2821.574 50304780 50382432 50497092 50644544 50819604 51015832 51227060 
2824.950 51447040 51669080 51887008 52095336 52288736 52463008 52615128 
2828.325 52743360 52846892 52925820 52981108 53013748 53025916 53020192 
2831.700 52999860 52968532 52930576 52888956 52847156 52807528 52771872 
2835.075 52741936 52718968 52704676 52700488 52708192 52729108 52765436 
2838.451 52819464 52894908 52996384 53129708 53301952 53520552 53793116 
2841.826 54127360 54531244 55013308 55583036 56251528 57030192 57930608 
2845.201 58961716 60127312 61421972 62828520 64316200 65836100 67326552 
2848.576 68716592 69927112 70887264 71538216 71840856 71782616 71377096 
2851.952 70662392 69690608 68526600 67238816 65888696 64533264 63219300 
2855.327 61980268 60839772 59810624 58895572 58090488 57385428 56767828 
2858.702 56223164 55737272 55297720 54892372 54511448 54146316 53789328 
2862.077 53434584 53076720 52712008 52338372 51954672 51562204 51163612 
2865.453 50763480 50368444 49985884 49624648 49293108 48998800 48747988 
2868.828 48544852 48391184 48286636 48228724 48212356 48229980 48272604 
2872.203 48330152 48391704 48448412 48492944 48520660 48529992 48521732 
2875.578 48498168 48461824 48415704 48362220 48303300 48240684 48176372 
2878.954 48111628 48047596 47984832 47923440 47863436 47805096 47749392 
2882.329 47698100 47653688 47618820 47595640 47586064 47590464 47608912 
2885.704 47640820 47685376 47741700 47808760 47885668 47971176 48063988 
2889.079 48162860 48266900 48375296 48487832 48604400 48725112 48850200 
2892.455 48979808 49114060 49253360 49397452 49546464 49700060 49857832 
2895.830 50019640 50185900 50357540 50536396 50724564 50924212 51136624 
2899.205 51362040 51599780 51848028 52105160 52369248 52639476 52915156 
2902.580 53196664 53484572 53779988 54084612 54401392 54733960 55086760 
2905.956 55464956 55873852 56318516 56804456 57337524 57924736 58574624 
2909.331 59296244 60099152 60991388 61977400 63056676 64222188 65460288 
2912.706 66748984 68058344 69354080 70594600 71736456 72739640 73567696 
2916.081 74195448 74610608 74815448 74824736 74662424 74358080 73940416 
2919.457 73433208 72854440 72212856 71510952 70746120 69914424 69013392 
2922.832 68044968 67016176 65940528 64836720 63724772 62626460 61560968 
2926.207 60543404 59584504 58690100 57861288 57095300 56386912 55729100 
2929.582 55114036 54534620 53985212 53462124 52964448 52493964 52054356 
2932.958 51650568 51287796 50970372 50700956 50480568 50308244 50181768 
2936.333 50097128 50049016 50031724 50038080 50060728 50092780 50128068 
2939.708 50162244 50192744 50219596 50244032 50268736 50296524 50329264 
2943.083 50367512 50409372 50450756 50485408 50504796 50500628 50465048 
2946.458 50392216 50280304 50131712 49953244 49754936 49549620 49350384 
2949.834 49168972 49014932 48894436 48809672 48759624 48740388 48746316 
2953.209 48770748 48807488 48850904 48896404 48940792 48981512 49016640 
2956.584 49044496 49063716 49073472 49073692 49065312 49050360 49031328 
2959.959 49010892 48991384 48974396 48961192 48952624 48949248 48951844 
2963.335 48960744 48976100 48997020 49021980 49048876 49075292 49099328 
2966.710 49120032 49137060 49150792 49162032 49171308 49179360 49186668 
2970.085 49194352 49203520 49215952 49233056 49255732 49284128 49317384 
2973.460 49354392 49393928 49435140 49478172 49523184 49570380 49618928 
2976.836 49666736 49710424 49745384 49766712 49769684 49750920 49708232 
2980.211 49641064 49550628 49439668 49312036 49172348 49025544 48875564 
2983.586 48725412 48575980 48426264 48273044 48111776 47937836 47746548 
2986.961 47535120 47302552 47049948 46779848 46495348 46198912 45891852 
2990.337 45572972 45239544 44888080 44515272 44120296 43704652 43273664 
2993.712 42834728 42395724 41963696 41542560 41133088 40732444 40335772 
2997.087 39937716 39533960 39121956 38701576 38274324 37843300 37411116 
3000.462 36980772 36554380 36133416 35719332 35312904 34915256 34527264 
3003.838 34149588 33782908 33427808 33084802 32753996 32435264 32128040 
3007.213 31831476 31544342 31265448 30993920 30729354 30471488 30220384 
3010.588 29976134 29738408 29506450 29279190 29055838 28835612 28618398 
3013.963 28404334 28194054 27987798 27786162 27589210 27397250 27210598 
3017.339 27029986 26855826 26688468 26527972 26373624 26224436 26079452 
3020.714 25938102 25800632 25667808 25541178 25422170 25311592 25210100 
3024.089 25117372 25033264 24958086 24892464 24837696 24795246 24765884 
3027.464 24749714 24744626 24747012 24751396 24751012 24738488 24707238 
3030.840 24651720 24568296 24456498 24317882 24156474 23977510 23787072 
3034.215 23590244 23391652 23194374 23000366 22810460 22625106 22444120 
3037.590 22267536 22094824 21925734 21759916 21596946 21436928 21279854 
3040.965 21126180 20976210 20830602 20689630 20553742 20422896 20296986 
3044.341 20175798 20059016 19946252 19836954 19731014 19628702 19530296 
3047.716 19436904 19349142 19267702 19192302 19122112 19055496 18990728 
3051.091 18926348 18861738 18797168 18733372 18671382 18611962 18554866 
3054.466 18499368 18444500 18389430 18334024 18279002 18225682 18175754 
3057.842 18130634 18091184 18057746 18030184 18007562 17989362 17974822 
3061.217 17963252 17954310 17947644 17943294 17941706 17943398 17949302 
3064.592 17959904 17975512 17995716 18019512 18045520 18071806 18096502 
3067.967 18117954 18134434 18144626 18147250 18141446 18126834 18103482 
3071.343 18072012 18033190 17988222 17938354 17884904 17829112 17772638 
3074.718 17717032 17663850 17613814 17567546 17524420 17483162 17442390 
3078.093 17401002 17358342 17314616 17270586 17227042 17184294 17142416 
3081.468 17100744 17058838 17016108 16972932 16929866 16887702 16847296 
3084.844 16809064 16773453 16740840 16711881 16687537 16668772 16656343 
3088.219 16650282 16649112 16650937 16653279 16654208 16652692 16649043 
3091.594 16644258 16640196 16638406 16639713 16644498 16652314 16662402 
3094.969 16674178 16687606 16702445 16719146 16738085 16759677 16784130 
3098.344 16811302 16840820 16872062 16903962 16935450 16965422 16993676 
3101.720 17020104 17045640 17071174 17097918 17126386 17156926 17188776 
3105.095 17221526 17254416 17286826 17318408 17348892 17377894 17404762 
3108.470 17429214 17451254 17471570 17491580 17513242 17538702 17569202 
3111.845 17605360 17646354 17690284 17734912 17777918 17817098 17850862 
3115.221 17878620 17899994 17915428 17926166 17933280 17938148 17941878 
3118.596 17944744 17946678 17946644 17943708 17937216 17927374 17915496 
3121.971 17903342 17893088 17886390 17884112 17886182 17891638 17899752 
3125.346 17909592 17920780 17933348 17947576 17963012 17979416 17995958 
3128.722 18011672 18026006 18038750 18050078 18060718 18071390 18082964 
3132.097 18095812 18110182 18126350 18144280 18164214 18186190 18210756 
3135.472 18238086 18268670 18302848 18340348 18380652 18422686 18465138 
3138.847 18506732 18546740 18585020 18622268 18659864 18698604 18738976 
3142.223 18780872 18822808 18863778 18902710 18939432 18974668 19010010 
3145.598 19046912 19086414 19128724 19173500 19219800 19267390 19316024 
3148.973 19366326 19418642 19473530 19530434 19588354 19646104 19702096 
3152.348 19755494 19806088 19854436 19901296 19947712 19994790 20043504 
3155.724 20094618 20148794 20206170 20266364 20328304 20390424 20451168 
3159.099 20509172 20564268 20617146 20669684 20723584 20780686 20841900 
3162.474 20907120 20975410 21045658 21116544 21187546 21258560 21329482 
3165.849 21400796 21472436 21544366 21616030 21687566 21758244 21827956 
3169.225 21896496 21963792 22029772 22094996 22160056 22225930 22293520 
3172.600 22363528 22435608 22509092 22582242 22653798 22722294 22787238 
3175.975 22849224 22909472 22969624 23031146 23095298 23162394 23232544 
3179.350 23305466 23380916 23458376 23537352 23617428 23697866 23778252 
3182.726 23858302 23937560 24016482 24095526 24175004 24255232 24336384 
3186.101 24417764 24499264 24580392 24661188 24742382 24825206 24911028 
3189.476 25001254 25096800 25197774 25303794 25413424 25524660 25635788 
3192.851 25745218 25852076 25956428 26059010 26161158 26264244 26369224 
3196.227 26476868 26586690 26698474 26810924 26923224 27034428 27144318 
3199.602 27253072 27361078 27469428 27579006 27690622 27804566 27920870 
3202.977 28038902 28157922 28277504 28397012 28516766 28636906 28757542 
3206.352 28878246 28998272 29116068 29230384 29340760 29447726 29553016 
3209.728 29658758 29767362 29880644 29998856 30121112 30246068 30371768 
3213.103 30496974 30621396 30745642 30870528 30996874 31125250 31255302 
3216.478 31386532 31517800 31648290 31777394 31904500 32029934 32154050 
3219.853 32277484 32401346 32526676 32654290 32784298 32916706 33050298 
3223.229 33184112 33317104 33448708 33578776 33708064 33836952 33965776 
3226.604 34094428 34222428 34349216 34474388 34598196 34720784 34842552 
3229.979 34963664 35083480 35201540 35317252 35430408 35541760 35652640 
3233.354 35764156 35877396 35992500 36108676 36225212 36341020 36455776 
3236.729 36570024 36684808 36800772 36918540 37037888 37158316 37279280 
3240.105 37400284 37521532 37643108 37765692 37888816 38012120 38135064 
3243.480 38256884 38378048 38499100 38621528 38746492 38874788 39006420 
3246.855 39140372 39275820 39411528 39547064 39682744 39819236 39957732 
3250.230 40099140 40244120 40392712 40544520 40698712 40854300 41010240 
3253.606 41165616 41320212 41474132 41628212 41783520 41940740 42100280 
3256.981 42261200 42422064 42580976 42736660 42888704 43038096 43186296 
3260.356 43335348 43486908 43641636 43799272 43959352 44121104 44284056 
3263.731 44448352 44614144 44781132 44949112 45116856 45283676 45449048 
3267.107 45613528 45778364 45945144 46115120 46288768 46465440 46643772 
3270.482 46821956 46999176 47174664 47348776 47522148 47695548 47869388 
3273.857 48044080 48219876 48396704 48574976 48755252 48937716 49122328 
3277.232 49308992 49497260 49686724 49876936 50067940 50259620 50451796 
3280.608 50644396 50837636 51032044 51228624 51428952 51634520 51845864 
3283.983 52063132 52285188 52510084 52736140 52962392 53188684 53416336 
3287.358 53647032 53881968 54121956 54366620 54614912 54866096 55119748 
3290.733 55376308 55636512 55901776 56173124 56451016 56735128 57025204 
3294.109 57320092 57619036 57920724 58224136 58528176 58832016 59135572 
3297.484 59439456 59745148 60054744 60369628 60691140 61019492 61354040 
3300.859 61693624 62037672 62385900 62739304 63098824 63466156 63842280 
3304.234 64227568 64622076 65025068 65435976 65854108 66279276 66711388 
3307.610 67150936 67598400 68054664 68520400 68996072 69481208 69974640 
3310.985 70474824 70980152 71489584 72003288 72523088 73051000 73589552 
3314.360 74140136 74702952 75276744 75859504 76449328 77045568 77648496 
3317.735 78258768 78877408 79504456 80139248 80780136 81425552 82073984 
3321.111 82724984 83378640 84034984 84693600 85353504 86013200 86671192 
3324.486 87326808 87979240 88629160 89276160 89919792 90558464 91190344 
3327.861 91812880 92423808 93021344 93603272 94167616 94712784 95236616 
3331.236 95737616 96215048 96668664 97098384 97503808 97883880 98236448 
3334.612 98559576 98851856 99113664 99346768 99554192 99738248 99900064 
3337.987 100038256 100149608 100229736 100274600 100281528 100249640 
3340.880 100179032 100070800 99925216 99742328 99521480 99262256 98964456 
3344.255 98627928 98253016 97839376 97386656 96894688 96363688 95795360 
3347.630 95192840 94560136 93901120 93219160 92515920 91791968 91046936 
3351.006 90281168 89495480 88691504 87871696 87038320 86193744 85340280 
3354.381 84480032 83615984 82751480 81889744 81033544 80184360 79342488 
3357.756 78507216 77678416 76856488 76043616 75242784 74457384 73689936 
3361.131 72941240 72209952 71493528 70789480 70095600 69411104 68736936 
3364.507 68074576 67425728 66791996 66174416 65573296 64988656 64420836 
3367.882 63869492 63334876 62816376 62313036 61823912 61347856 60883112 
3371.257 60428152 59980860 59539088 59100872 58664616 58229708 57797240 
3374.632 57369132 56948248 56536980 56136852 55747556 55367496 54994576 
3378.008 54627048 54263888 53905752 53553612 53208576 52870880 52539284 
3381.383 52211756 51885700 51559108 51230600 50900476 50569676 50239236 
3384.758 49910236 49583344 49258700 48936676 48617592 48302040 47990640 
3388.133 47684084 47382364 47085212 46791916 46501804 46214464 45929712 
3391.509 45647608 45368340 45092156 44819008 44548532 44280168 44013396 
3394.884 43747088 43480864 43214108 42947008 42680876 42417496 42159060 
3398.259 41907896 41665228 41430680 41202592 40978128 40753916 40527604 
3401.634 40297920 40065272 39831148 39597584 39366144 39137436 38911424 
3405.010 38687444 38464672 38242880 38022248 37803464 37587068 37373056 
3408.385 37161060 36950356 36739972 36529512 36318468 36107164 35895856 
3411.760 35685156 35475600 35267296 35061248 34857268 34656044 34457636 
3415.135 34261544 34067008 33872988 33678700 33483852 33288628 33093884 
3418.510 32900370 32709230 32520924 32336056 32154902 31977646 31805198 
3421.886 31638238 31477186 31322102 31172132 31025448 30879564 30732450 
3425.261 30581968 30427384 30268838 30107368 29944396 29782018 29621652 
3428.636 29464358 29310560 29160216 29013010 28868010 28724442 28581626 
3432.011 28439392 28297554 28156826 28017414 27879742 27743740 27608734 
3435.387 27473910 27338212 27201320 27063202 26924706 26787310 26652354 
3438.762 26520856 26392884 26268010 26144302 26019640 25892414 25761146 
3442.137 25625664 25486888 25346118 25205428 25066190 24929344 24794718 
3445.512 24661784 24529344 24396490 24263010 24128836 23994248 23860192 
3448.888 23726352 23593042 23459530 23325568 23190880 23055884 22921208 
3452.263 22787972 22656592 22527588 22400228 22273848 22147504 22019874 
3455.638 21890886 21760368 21628950 21497432 21366754 21237856 21111502 
3459.013 20988276 20867974 20750796 20635770 20522408 20409560 20296708 
3462.389 20183364 20069704 19955898 19841846 19727338 19612028 19494808 
3465.764 19375262 19253502 19129798 19005336 18881774 18760044 18641222 
3469.139 18525542 18413074 18303160 18195760 18090182 17985942 17882108 
3472.514 17777574 17670854 17561266 17448322 17332478 17215078 17098092 
3475.890 16983098 16871476 16763741 16659165 16556852 16454943 16351713 
3479.265 16245518 16135084 16019382 15899003 15775291 15650926 15529756 
3482.640 15415418 15310995 15217544 15133753 15056599 14981379 14903327 
3486.015 14818739 14726045 14625420 14518582 14408586 14298138 14189327 
3489.391 14083419 13980786 13881327 13784659 13690338 13598124 13507399 
3492.766 13417752 13328329 13238207 13147487 13055457 12962660 12869882 
3496.141 12778013 12688414 12602347 12520423 12442778 12368793 12296355 
3499.516 12223282 12147188 12065759 11977703 11883162 11783193 11680116 
3502.892 11576723 11475668 11379127 11288728 11205590 11129300 11059312 
3506.267 10993821 10930141 10864940 10795573 10719491 10636427 10547779 
3509.642 10456569 10367006 10283162 10207475 10141468 10084288 10033999 
3513.017 9988089 9943981 9899030 9851406 9799483 9742179 9679088 9610756 
3516.875 9538844 9465590 9394176 9326803 9265228 9209855 9159464 9111718 
3520.732 9064214 9014619 8961172 8903336 8841178 8775243 8706782 8636609 
3524.590 8566075 8496059 8427777 8361838 8298914 8239037 8181769 8126130 
3528.447 8071273 8016458 7961177 7905970 7851715 7799694 7751759 7708553 
3532.304 7670139 7635438 7602088 7566853 7526935 7480379 7426784 7367433 
3536.162 7305192 7243599 7185654 7132904 7085515 7042643 7002403 6963345 
3540.019 6924559 6885777 6847065 6808155 6768576 6726846 6681991 6632229 
3543.877 6577057 6516543 6451969 6384849 6316999 6251110 6189096 6132602 
3547.734 6082869 6039995 6002838 5969311 5936089 5900116 5859376 5812764 
3551.592 5761255 5707468 5654125 5603742 5557761 5515779 5476955 5439912 
3555.449 5403577 5367446 5331486 5295328 5258435 5219835 5177986 5132084 
3559.306 5081862 5028327 4973325 4919033 4867093 4818342 4772914 4729801 
3563.164 4687631 4644392 4597676 4544536 4482129 4408417 4322904 4227772 
3567.021 4128179 4031584 3945009 3874029 3820443 3782405 3755499 3733943 
3570.879 3712588 3687391 3655914 3617790 3573556 3524883 3473444 3420809 
3574.736 3368347 3316759 3266580 3217541 3169009 3120048 3069858 3018372 
3578.594 2966126 2914219 2864086 2817361 2775009 2737329 2704320 2675047 
3582.451 2649044 2625109 2601808 2577076 2548212 2511419 2463565 2402122 
3586.308 2327230 2242426 2153642 2068839 1995802 1939351 1900546 1877251 
3590.166 1864639 1857152 1848999 1836155 1815326 1785148 1746357 1700683 
3594.023 1651388 1602033 1556640 1517636 1486382 1462744 1445024 1431061 
3597.881 1418030 1403271 1385121 1362752 1336029 1306649 1276906 1249258 
3601.738 1226663 1210979 1202839 1201809 1206029 1211910 1215531 1212342 
3605.595 1197789 1168651 1122639 1059991 983703 899326 814170 735236 667600 
3609.935 612616 568289 530070 493082 453477 410459 366219 325067 291876 
3614.275 269595 258124 254079 251891 245095 228386 198584 155459 101932 
3618.614 43705 -12524 -60664 -96011 -116516 -122876 -117874 -104757 -87431 
3622.954 -68383 -49433 -31012 -12590 5765 22664 34759 35786 18190 -25413 
3627.776 -98264 -195976 -304660 -405636 -480939 -521944 -530946 -518337 
3631.633 -496263 -476404 -466276 -468527 -481667 -501061 -521084 -537333 
3635.490 -548585 -554905 -558843 -562649 -567678 -573932 -580947 -587830 
3639.348 -594249 -600305 -606459 -612812 -618867 -623400 -624591 -621646 
3643.205 -613837 -602720 -590378 -579922 -574660 -577341 -589650 -612282 
3647.063 -645335 -687914 -738790 -796408 -857721 -918100 -971859 -1012058 
3650.920 -1032553 -1031462 -1009480 -971496 -924912 -878521 -840029 -816516 
3654.778 -811489 -824254 -849685 -878719 -901204 -909768 -901403 -877893 
3658.635 -845122 -810497 -780797 -761249 -754535 -760058 -774645 -793563 
3662.492 -811786 -824982 -830406 -826470 -812845 -789694 -757644 -717785 
3666.350 -671836 -622109 -572079 -523765 -476338 -422717 -349423 -236015 
3670.207 -60929 190363 522573 930239 1402207 1924840 2482826 3057611 3614883 
3674.547 4102657 4455113 4606316 4520027 4203984 3703364 3079034 2389428 
3678.404 1686878 1013990 406910 -104624 -505165 -794853 -988488 -1108772 
3682.262 -1180451 -1222943 -1246831 -1256644 -1253142 -1237547 -1214154 
3685.637 -1190562 -1175395 -1176783 -1199285 -1242140 -1298931 -1361032 
3689.012 -1419063 -1466948 -1502412 -1525988 -1539657 -1545005 -1543421 
3692.387 -1535893 -1524172 -1510007 -1494553 -1479331 -1463910 -1447134 
3695.763 -1428376 -1406678 -1382402 -1357399 -1334178 -1315283 -1303622 
3699.138 -1301144 -1309138 -1328001 -1356936 -1393335 -1433065 -1470844 
3702.513 -1501752 -1522157 -1531006 -1529289 -1520308 -1507827 -1494917 
3705.888 -1483987 -1475732 -1470019 -1466617 -1465561 -1468368 -1476854 
3709.264 -1493431 -1519087 -1552962 -1592414 -1632820 -1668502 -1695006 
3712.639 -1709264 -1711046 -1702432 -1686721 -1667413 -1648136 -1631005 
3716.014 -1617140 -1606081 -1596310 -1585680 -1571946 -1554877 -1535332 
3719.389 -1516379 -1501686 -1494091 -1494884 -1502577 -1513606 -1523445 
3722.765 -1528728 -1527539 -1521200 -1512945 -1506573 -1505054 -1509478 
3726.140 -1517733 -1526351 -1530676 -1527011 -1514134 -1493431 -1468103 
3729.515 -1443237 -1423984 -1414472 -1416751 -1431051 -1453805 -1480784 
3732.890 -1508025 -1533879 -1559301 -1587132 -1619352 -1655827 -1692530 
3736.266 -1722927 -1739659 -1739725 -1722861 -1693059 -1655662 -1614961 
3739.641 -1574125 -1534077 -1495445 -1459683 -1431513 -1418567 -1430787 
3743.016 -1477085 -1558344 -1662726 -1766225 -1839280 -1862540 -1834660 
3746.391 -1769228 -1685797 -1603638 -1538930 -1501289 -1494553 -1516016 
3749.767 -1558344 -1612486 -1669954 -1724775 -1771736 -1806119 -1823409 
3753.142 -1820572 -1797837 -1759097 -1711706 -1664343 -1623742 -1595253 
3756.517 -1580464 -1578021 -1585151 -1598423 -1615589 -1635560 -1656916 
3759.892 -1677678 -1693884 -1701343 -1697448 -1681771 -1657973 -1631434 
3763.268 -1608788 -1594428 -1590434 -1594428 -1602285 -1608326 -1608821 
3766.643 -1603407 -1594296 -1585151 -1579935 -1580530 -1586538 -1595881 
3770.018 -1604860 -1610802 -1612222 -1609614 -1603969 -1597597 -1592117 
3773.393 -1588453 -1586769 -1586142 -1584887 -1581586 -1574983 -1565145 
3776.769 -1553755 -1544048 -1538831 -1540911 -1550387 -1564518 -1578549 
3780.144 -1587165 -1587165 -1577558 -1561513 -1543487 -1528101 -1519087 
3783.519 -1517172 -1521233 -1528728 -1536751 -1543949 -1549826 -1554316 
3786.894 -1557518 -1558938 -1557353 -1551741 -1542133 -1529818 -1517535 
3790.270 -1507398 -1500794 -1496436 -1491516 -1482798 -1468103 -1448091 
3793.645 -1426824 -1410476 -1405192 -1415199 -1439968 -1474179 -1508356 
3797.020 -1532954 -1541671 -1533416 -1512681 -1488841 -1472991 -1474444 
3800.395 -1498846 -1543586 -1598423 -1646651 -1672628 -1667941 -1633282 
3803.771 -1577921 -1514497 -1457932 -1420318 -1409056 -1424908 -1459848 
3807.146 -1500794 -1532987 -1547713 -1543619 -1525988 -1502709 -1481048 
3810.521 -1464372 -1451889 -1439505 -1422233 -1397463 -1366284 -1334343 
3813.896 -1309931 -1301805 -1314721 -1347225 -1389239 -1425998 -1444558 
3817.271 -1438746 -1410773 -1371040 -1333649 -1312178 -1317562 -1353964 
3820.647 -1415430 -1487553 -1550651 -1589575 -1597267 -1578252 -1542397 
3824.022 -1502577 -1469689 -1450040 -1444525 -1448950 -1455753 -1456843 
3827.397 -1446903 -1425106 -1395349 -1364170 -1338670 -1324367 -1323706 
3830.772 -1335367 -1354624 -1375730 -1391782 -1397827 -1392311 -1375929 
3834.148 -1352444 -1327472 -1307586 -1298633 -1304910 -1326944 -1361726 
3837.523 -1402880 -1441718 -1471208 -1487388 -1491020 -1485440 -1476161 
3840.898 -1467773 -1463150 -1462721 -1464999 -1467674 -1468500 -1465561 
3844.273 -1457866 -1445350 -1428211 -1407206 -1383195 -1356936 -1328859 
3847.649 -1299459 -1268372 -1235069 -1199153 -1161615 -1124933 -1095519 
3851.024 -1081869 -1094693 -1143010 -1230212 -1348414 -1476854 -1589641 
3854.399 -1665762 -1697580 -1690154 -1655563 -1606676 -1552500 -1499209 
3857.774 -1449512 -1404333 -1364566 -1331139 -1305108 -1287765 -1279043 
3861.150 -1277986 -1282149 -1289482 -1298468 -1309469 -1322880 -1339100 
3864.525 -1355648 -1368233 -1371866 -1362353 -1339760 -1308841 -1278448 
3867.900 -1257932 -1256247 -1276929 -1316472 -1363377 -1403507 -1424908 
3871.275 -1424347 -1406083 -1379430 -1355087 -1340685 -1338571 -1346003 
3874.651 -1356210 -1361693 -1357135 -1341709 -1318553 -1293315 -1272138 
3878.026 -1259848 -1258923 -1269462 -1288029 -1308874 -1325986 -1333517 
3881.401 -1328364 -1310658 -1284428 -1255719 -1232096 -1220862 -1227007 
3884.776 -1250961 -1287071 -1324730 -1351519 -1357399 -1339132 -1300483 
3888.152 -1250267 -1200078 -1160525 -1140267 -1143208 -1167762 -1206423 
3891.527 -1249210 -1285750 -1308379 -1313433 -1301706 -1276070 -1240223 
3894.902 -1198261 -1153949 -1110226 -1070168 -1036586 -1011463 -996257 
3898.277 -991166 -995067 -1005546 -1020091 -1036685 -1053873 -1072317 
3901.653 -1093172 -1118092 -1147769 -1181343 -1216137 -1248285 -1273163 
3905.028 -1287269 -1289218 -1279506 -1260740 -1235961 -1208438 -1181012 
3908.403 -1155469 -1132831 -1113432 -1097105 -1083621 -1072416 -1063029 
3911.778 -1054865 -1047031 -1038867 -1030272 -1022008 -1015265 -1012323 
3915.154 -1014538 -1022802 -1036751 -1054204 -1072053 -1087455 -1098097 
3918.529 -1102955 -1102691 -1098262 -1090958 -1081770 -1071292 -1060253 
3921.904 -1049808 -1041544 -1037677 -1040189 -1049444 -1064252 -1082299 
3925.279 -1099287 -1111713 -1117365 -1115547 -1107549 -1095420 -1081671 
3928.655 -1067987 -1055394 -1044519 -1035561 -1029181 -1025876 -1025876 
3932.030 -1029148 -1034470 -1040354 -1045114 -1047626 -1048320 -1047990 
3935.405 -1048254 -1050171 -1054105 -1059162 -1063327 -1065078 -1063194 
3938.780 -1057873 -1050568 -1043924 -1040057 -1040453 -1045213 -1052749 
3942.156 -1060583 -1065706 -1065872 -1059724 -1047593 -1031066 -1012719 
3945.531 -995629 -982504 -975264 -975000 -980918 -991034 -1003067 -1014009 
3949.388 -1022108 -1026306 -1027132 -1025182 -1021909 -1017843 -1013348 
3952.763 -1008158 -1001910 -995364 -989281 -985083 -984224 -987728 -995298 
3956.621 -1005381 -1016389 -1025843 -1031925 -1034206 -1032818 -1029248 
3959.996 -1024752 -1021083 -1018769 -1017843 -1017976 -1017777 -1016686 
3963.371 -1014075 -1010042 -1005182 -1000224 -996257 -993513 -992125 -990967 
3967.229 -989050 -985546 -979727 -971694 -962768 -953775 -946039 -940253 
3971.086 -936484 -934268 -933277 -933012 -933210 -934268 -936021 -938038 
3974.944 -939724 -939988 -938071 -933640 -927226 -920316 -914100 -909669 
3978.801 -907553 -907388 -908379 -909471 -910628 -912083 -914298 -918200 
3982.658 -923820 -930830 -938071 -944386 -948353 -949709 -948452 -944782 
3986.516 -939625 -933475 -926862 -920150 -913637 -907586 -902130 -897170 
3990.373 -892045 -886192 -878819 -869560 -858812 -847503 -836854 -828190 
3994.231 -822039 -818401 -816714 -816284 -816714 -818037 -820848 -825743 
3998.088 -833184 -842972 -853918 -864699 -873925 -880769 
##END=
