
##TITLE=1708_2_e
##JCAMP-DX=5.01  $$ Nicolet v. 1
##DATATYPE=INFRARED SPECTRUM
##ORIGIN=UniL
##OWNER=Nicolet
##LONGDATE=2011/09/08
##TIME=13:33:09
##SPECTROMETER/DATA SYSTEM=Nicolet iS5
##DATA PROCESSING=
Ratio against background
%Transmittance->Absorbance
Truncated
ElementMultiply or ElementDivide
##COMMENTS=
Number of sample scans: 32
Collection length: 51.18 sec
Sample gain: 2.0
Background collected on: Jeu Sep 08 13:21:44 2011 (GMT+02:00);
Number of background scans: 32
Background gain: 2.0
Sample spacing:  1.000
Number of scan points: 12415
Resolution points: 8192
Number of FFT points: 65536
Apodization: N-B fort;
Phase correction: Mertz;
Laser frequency: 15798.0 cm-1
Number of rejected sample scans: 0
Number of rejected background scans: 0
Bench serial number: ASB1000141;
##RESOLUTION=4.000
##XUNITS=1/CM
##YUNITS=ABSORBANCE
##FIRSTX=649.893372
##LASTX=4000.122314
##FIRSTY=0.103903
##MAXX=4000.122314
##MINX=649.893372
##MAXY=0.289574
##MINY=-0.000305
##XFACTOR=1.000000
##YFACTOR=1.000000E-009
##NPOINTS=6950
##DELTAX=0.482117
##ZPD=6100
##XYDATA=(X++(Y..Y))
649.893 103903424 103688136 103591640 103611920 103714728 103851184 
652.786 103976240 104071976 104151648 104253112 104415368 104662880 
655.679 104994960 105391232 105822872 106271056 106734544 107225064 
658.571 107758784 108343456 108974432 109639384 110330560 111052184 
661.464 111823664 112672264 113623664 114691136 115875416 117172648 
664.357 118584392 120121880 121792656 123577872 125393000 127041248 
667.250 128237472 128689840 128253088 127023848 125267416 123264192 
670.142 121187472 119105496 117012248 114875248 112678192 110436128 
673.035 108189384 105992096 103886792 101893400 100013856 98242096 96576192 
676.410 95023152 93594552 92297648 91127648 90067232 89089848 88169616 
679.785 87290024 86446128 85641920 84883880 84174568 83509784 82881272 
683.159 82279448 81699576 81143160 80615824 80123912 79669728 79250936 
686.534 78860760 78492280 78139712 77799800 77470592 77147344 76821568 
689.909 76480824 76111088 75701424 75248456 74756872 74237976 73707048 
693.284 73180072 72670536 72192152 71759480 71386080 71085472 70864368 
696.659 70717416 70623920 70547480 70443336 70263728 69973200 69556536 
700.034 69021784 68397584 67724704 67048072 66403656 65814740 65290040 
703.408 64825760 64410040 64028508 63670136 63327512 62998600 62685408 
706.783 62391712 62121540 61878012 61662456 61475564 61317444 61191272 
710.158 61104916 61072344 61115860 61259944 61525308 61919852 62428324 
713.533 63007912 63585856 64078464 64401084 64489060 64315504 63894056 
716.908 63277752 62541388 61777884 61083252 60544736 60248604 60269960 
720.282 60662032 61446020 62586696 63982816 65452160 66763280 67674712 
723.657 67967888 67519192 66321352 64494708 62247064 59833440 57500176 
727.032 55419368 53684932 52310340 51253792 50445432 49814836 49309956 
730.407 48893656 48543072 48242388 47976948 47734120 47506508 47292724 
733.782 47097912 46930580 46797820 46701660 46639164 46603232 46587152 
737.156 46586264 46598988 46624920 46663804 46713724 46772284 46838412 
740.531 46914564 47005972 47120220 47262912 47434952 47631504 47841716 
743.906 48052332 48248572 48415668 48539480 48602992 48588060 48477088 
747.281 48255348 47918412 47474904 46948304 46371568 45781384 45211380 
750.656 44684244 44212660 43799712 43443728 43140548 42887316 42682080 
754.031 42523788 42411576 42344072 42319412 42334320 42384108 42460496 
757.405 42552872 42649584 42740168 42819188 42889256 42959700 43044168 
760.780 43155776 43302692 43484856 43696336 43927784 44173080 44433704 
764.155 44723100 45066532 45505380 46094300 46894224 47970212 49371468 
767.530 51109900 53137416 55332044 57506832 59417000 60828184 61569252 
770.905 61580396 60943920 59868620 58645692 57543260 56750948 56320516 
774.279 56160492 56066308 55787340 55123364 53965400 52337996 50373612 
777.654 48280488 46274764 44523092 43131840 42129232 41484884 41132140 
781.029 40996732 41015192 41138004 41335044 41588756 41888996 42230412 
784.404 42611168 43032428 43497348 44010760 44577828 45202264 45888648 
787.779 46643144 47473832 48392964 49415088 50554376 51824768 53238088 
791.154 54805116 56538904 58455996 60576808 62924944 65520584 68374584 
794.528 71482008 74818552 78339040 81977496 85659792 89306144 92844336 
797.903 96228480 99447776 102541920 105595016 108734448 112101944 115808744 
801.278 119905840 124334792 128914576 133315232 137107776 139839680 
804.171 141083040 140570272 138252592 134332192 129213896 123420368 
807.063 117493336 111834424 106668664 102017216 97740152 93608776 89396592 
810.438 84969256 80306256 75506264 70732344 66175656 61995556 58286920 
813.813 55087404 52379676 50116204 48234056 46673176 45381876 44314436 
817.188 43433808 42709936 42118060 41642364 41273424 41006712 40839960 
820.563 40769824 40790932 40897296 41083988 41349840 41698092 42135000 
823.938 42667604 43300424 44034336 44865260 45784696 46778332 47826588 
827.312 48905376 49984284 51033424 52029108 52961344 53841764 54708140 
830.687 55626800 56680004 57963244 59572644 61581392 64029044 66895104 
834.062 70087536 73419272 76610800 79336728 81232760 81984616 81403096 
837.437 79454640 76288936 72193008 67555936 62766484 58152460 53966524 
840.812 50345188 47333036 44905640 42998328 41528704 40410712 39570220 
844.186 38940200 38463548 38098060 37812432 37589600 37423868 37316328 
847.561 37269028 37281088 37346764 37457456 37605456 37786332 38000404 
850.936 38250840 38540668 38869964 39235636 39633052 40058916 40514364 
854.311 41005108 41539132 42125072 42769676 43477388 44252612 45103292 
857.686 46041688 47087240 48264308 49599280 51122716 52867512 54867896 
861.060 57160640 59775300 62720740 65967060 69429960 72963264 76348304 
864.435 79334856 81665624 83109144 83520192 82852360 81174200 78647256 
867.810 75510008 72038448 68483928 65069748 61958484 59241020 56956296 
871.185 55097780 53632520 52512772 51688968 51117764 50759420 50581812 
874.560 50559288 50669940 50898912 51238136 51687256 52253384 52947456 
877.935 53780292 54755084 55862436 57073572 58343044 59606244 60785840 
881.309 61808212 62605828 63134304 63381412 63369340 63152276 62801444 
884.684 62398640 62015088 61700840 61486024 61379228 61376748 61470296 
888.059 61653980 61926192 62287828 62738844 63273808 63880392 64541376 
891.434 65236248 65944768 66650548 67339440 67999008 68618560 69187048 
894.809 69694920 70135632 70505768 70805976 71039496 71211824 71330976 
898.183 71406896 71454432 71491224 71537168 71611128 71725392 71884184 
901.558 72081672 72305832 72541488 72775992 73003952 73227728 73457608 
904.933 73708192 73997928 74346368 74772264 75295976 75936848 76710776 
908.308 77631336 78706392 79938504 81326848 82869072 84563312 86409696 
911.683 88410000 90566464 92881760 95359960 98009632 100848608 103904216 
915.058 107215400 110828072 114785480 119121840 123851752 128963856 
917.950 134410240 140099632 145897488 151601968 156956000 161668352 
920.843 165415440 167919952 169003568 168637808 166980832 164373152 
923.736 161325072 158400624 156178976 155176352 155731568 157990656 
926.628 161851072 166985904 172835520 178680560 183794864 187475568 
929.521 189204848 188728304 186040672 181359408 175026336 167456000 
932.414 159046288 150149936 141094512 132155808 123573512 115565216 
935.306 108296856 101892944 96436616 91962480 88474664 85954072 84367152 
938.681 83666672 83784160 84625632 86047728 87855344 89823576 91688496 
942.056 93197352 94149832 94407088 93927200 92760232 91039744 88946720 
945.431 86677136 84422160 82326464 80486392 78950880 77725448 76789176 
948.806 76106864 75643408 75365968 75247312 75265400 75398648 75625896 
952.181 75928408 76289728 76698792 77150112 77642040 78173592 78742336 
955.555 79342528 79966904 80608488 81262720 81928632 82607504 83300848 
958.930 84008408 84727112 85452768 86182064 86914744 87653344 88402680 
962.305 89166496 89945384 90736944 91536376 92339496 93145784 93957392 
965.680 94779176 95614744 96465336 97328528 98200304 99077832 99961376 
969.055 100855344 101766184 102699384 103657216 104638424 105639552 
971.947 106658120 107694880 108753856 109841120 110961656 112116736 
974.840 113304328 114520520 115762976 117032904 118334696 119673488 
977.733 121051320 122464456 123903456 125354440 126803320 128238840 
980.625 129651936 131035000 132378448 133669064 134892208 136034864 
983.518 137090320 138061168 138958528 139798608 140596784 141365168 
986.411 142111808 142842416 143565312 144292720 145039600 145821504 
989.304 146648704 147524448 148444576 149401840 150390288 151407776 
992.196 152456896 153540912 154660624 155811968 156986688 158175520 
995.089 159373008 160579408 161799952 163040096 164301552 165579616 
997.982 166865152 168148480 169425200 170698576 171979360 173280752 
1000.874 174612064 175976832 177373520 178798912 180253856 181745840 
1003.767 183286896 184889920 186562272 188303088 190105376 191961152 
1006.660 193867328 195828608 197855920 199960384 202146608 204408624 
1009.552 206730096 209088880 211464000 213836448 216188400 218499744 
1012.445 220739648 222868592 224845120 226632544 228212976 229591312 
1015.338 230794720 231861568 232832304 233743616 234623072 235494496 
1018.231 236382816 237313040 238310624 239394672 240572944 241842208 
1021.123 243193936 244623168 246136960 247757424 249514896 251441632 
1024.016 253559296 255873744 258376384 261050496 263877536 266837472 
1026.909 269906272 273045600 276190528 279253024 282123104 284676320 
1029.802 286798016 288382688 289334816 289574400 289026048 287627200 
1032.695 285343968 282181376 278197088 273493728 268215504 262523088 
1035.588 256568976 250503600 244460160 238555888 232907456 227617872 
1038.481 222774608 218452288 214699280 211542256 208987968 207022128 
1041.374 205605360 204661152 204073728 203668800 203214752 202463424 
1044.267 201156144 199079888 196116720 192252256 187585824 182296288 
1047.160 176624256 170819600 165101888 159661184 154627936 150074832 
1050.053 146029696 142477568 139376048 136664016 134278160 132158280 
1052.947 130252720 128523976 126943456 125487792 124137056 122870056 
1055.840 121665528 120505448 119374792 118263432 117165152 116074096 
1058.733 114982752 113882520 112764224 111622888 110460312 109286520 
1061.626 108117976 106973968 105874280 104834680 103867216 102980904 
1064.519 102181104 101469200 100838960 100275064 99748376 99217160 98636120 
1067.894 97959144 97151000 96196352 95099992 93887096 92594736 91269288 
1071.269 89956224 88693416 87512640 86434072 85466768 84610816 83857824 
1074.645 83193888 82601856 82065264 81570304 81105504 80662896 80234496 
1078.020 79811616 79384736 78944360 78484112 78003960 77511032 77019736 
1081.395 76547880 76115344 75740160 75436648 75217368 75093000 75073344 
1084.770 75168592 75387608 75736888 76220344 76839368 77593624 78482240 
1088.146 79503016 80651088 81914304 83272832 84696016 86145824 87586008 
1091.521 88986088 90328888 91612552 92847456 94048936 95228904 96390944 
1094.896 97527944 98626600 99672760 100662200 101605504 102533616 103491808 
1098.271 104531600 105698424 107011400 108449440 109938248 111359168 
1101.164 112550904 113333528 113553552 113097880 111925816 110073728 
1104.057 107650088 104812544 101731168 98581936 95513464 92633776 90018264 
1107.433 87702288 85690512 83964744 82491744 81230248 80133952 79159920 
1110.808 78269008 77425928 76603608 75779728 74937368 74065824 73160504 
1114.183 72224040 71265304 70299568 69345840 68422128 67545640 66729396 
1117.558 65981252 65305524 64703404 64173864 63714028 63319496 62984160 
1120.934 62699756 62457400 62247600 62060264 61884624 61706720 61507364 
1124.309 61262920 60944112 60520052 59966332 59267376 58423052 57448400 
1127.684 56373708 55238864 54084652 52950936 51868412 50855624 49920680 
1131.059 49061412 48268864 47530460 46833692 46168104 45527048 44908140 
1134.435 44313264 43746868 43214404 42720684 42268904 41860352 41495092 
1137.810 41172904 40893836 40658648 40468392 40322900 40221108 40160304 
1141.185 40137444 40150268 40198280 40282796 40406240 40570492 40775204 
1144.560 41017124 41290732 41589232 41905852 42235672 42574876 42919940 
1147.936 43268136 43616024 43960376 44299208 44632576 44962596 45292316 
1151.311 45625232 45963560 46307792 46657240 47010916 47368396 47729904 
1154.686 48095784 48465420 48836704 49205484 49566704 49914700 50244668 
1158.061 50552256 50832904 51080900 51288876 51447940 51549444 51585940 
1161.437 51552280 51446296 51268332 51019820 50702632 50319552 49874000 
1164.812 49370984 48818056 48224688 47601184 46958824 46308012 45657916 
1168.187 45017684 44395460 43799784 43239368 42721744 42253456 41839408 
1171.562 41482332 41184308 40947140 40773204 40665852 40628776 40665308 
1174.938 40777972 40968620 41239064 41592732 42035160 42574032 43218684 
1178.313 43978452 44861364 45875020 47026164 48322704 49775368 51396096 
1181.688 53198236 55195028 57396512 59808912 62433300 65264204 68284776 
1185.063 71462320 74746128 78057056 81290256 84327272 87031728 89273432 
1188.438 90943728 91957200 92269296 91877440 90821400 89176584 87044240 
1191.814 84545640 81798368 78913128 75988624 73099688 70304864 67646176 
1195.189 65148740 62826372 60682532 58712708 56906960 55252336 53736152 
1198.564 52346484 51074600 49915516 48866664 47926996 47095328 46368912 
1201.939 45742652 45209580 44760932 44387608 44081016 43831488 43629616 
1205.315 43464348 43323048 43193760 43065028 42928392 42779476 42617492 
1208.690 42444644 42264740 42082212 41902240 41730332 41574280 41443508 
1212.065 41348820 41301916 41313104 41390436 41539932 41765352 42068924 
1215.440 42452464 42916832 43460868 44081236 44772024 45525540 46333892 
1218.816 47191428 48095232 49045684 50044812 51095512 52200768 53363356 
1222.191 54587220 55878036 57242664 58688472 60220096 61837132 63532196 
1225.566 65290852 67092812 68911328 70717528 72479856 74163608 75737048 
1228.941 77171208 78445168 79550136 80490384 81284296 81959200 82552568 
1232.317 83108664 83674512 84306272 85064480 86010616 87209936 88721704 
1235.692 90594056 92865224 95558264 98682904 102236704 106206736 110567064 
1239.067 115274168 120269808 125476240 130798552 136141024 141406416 
1241.960 146504016 151357856 155895456 160046736 163744352 166916688 
1244.853 169493392 171412016 172613344 173048336 172680448 171487488 
1247.746 169469984 166655456 163099760 158877920 154072176 148762144 
1250.639 143011120 136868992 130381136 123595880 116579496 109422392 
1253.532 102228400 95119464 88221136 81642312 75480680 69807128 64659028 
1256.908 60047556 55956048 52349512 49179548 46393984 43943072 41778520 
1260.283 39859548 38151888 36626112 35259248 34033212 32931752 31941946 
1263.658 31050468 30243864 29510566 28840250 28225346 27662124 27148446 
1267.033 26682972 26263718 25887104 25548874 25245460 24974966 24738524 
1270.409 24539406 24381980 24270366 24208040 24197950 24243810 24350928 
1273.784 24526504 24778722 25114494 25536996 26043248 26622410 27253320 
1277.159 27908150 28548788 29131162 29612250 29951390 30120152 30107900 
1280.534 29923488 29593522 29155114 28651242 28119634 27587444 27072088 
1283.910 26581124 26116326 25678812 25270638 24895378 24557286 24259156 
1287.285 24001846 23784620 23606442 23466698 23365358 23302074 23274142 
1290.660 23276168 23301340 23342282 23394450 23457852 23536548 23636880 
1294.035 23764742 23924010 24115736 24339608 24596452 24889624 25225690 
1297.411 25613574 26061368 26576192 27163472 27826750 28569490 29392804 
1300.786 30293566 31259466 32264526 33270598 34225544 35072492 35760920 
1304.161 36249992 36518588 36566524 36413760 36095572 35655772 35145452 
1307.536 34613056 34101056 33645364 33268094 32979690 32778296 32653466 
1310.912 32589924 32571528 32585386 32621570 32672614 32731884 32791552 
1314.287 32842938 32878176 32890652 32877282 32837722 32773506 32685940 
1317.662 32575138 32440406 32281622 32100354 31901542 31691950 31479038 
1321.037 31269044 31065880 30871452 30687996 30519012 30371378 30254202 
1324.413 30176588 30146150 30167886 30243794 30375962 30566754 30819268 
1327.788 31135822 31514484 31947258 32418162 32907590 33395712 33866616 
1331.163 34312100 34731124 35126520 35501236 35855228 36184080 36480752 
1334.538 36738244 36952160 37122332 37252892 37350736 37423976 37482560 
1337.914 37538660 37605932 37702012 37844748 38048796 38323976 38672488 
1341.289 39090920 39572252 40109496 40697436 41331288 42006692 42717612 
1344.664 43456948 44218936 45000596 45802112 46624664 47464668 48306152 
1348.039 49118252 49850476 50439368 50822212 50941832 50762288 50274800 
1351.415 49499304 48481276 47282936 45980944 44651340 43363100 42178156 
1354.790 41140264 40276912 39598604 39101324 38770836 38587996 38535744 
1358.165 38599292 38766452 39026644 39367308 39773880 40233144 40734884 
1361.540 41276920 41864364 42508144 43217004 43990960 44817060 45669512 
1364.916 46513164 47303588 47994748 48539072 48887688 49001028 48852576 
1368.291 48436040 47768220 46887208 45845560 44695812 43486612 42256264 
1371.666 41029436 39825592 38663832 37567560 36568652 35701848 34994552 
1375.041 34459648 34090660 33867220 33763532 33760272 33852288 34050448 
1378.417 34379700 34875868 35584628 36554920 37840444 39492264 41541576 
1381.792 43980176 46732948 49657004 52528588 55072580 57018028 58103444 
1385.167 58135112 57023960 54816168 51713344 48036456 44185220 40515640 
1388.542 37271124 34570892 32415736 30739170 29445282 28442752 27654568 
1391.917 27020464 26499830 26065168 25700958 25402850 25173792 25020066 
1395.293 24945732 24948892 25021190 25150478 25322902 25525786 25749718 
1398.668 25988298 26238832 26502366 26782342 27082494 27404944 27748438 
1402.043 28108430 28477494 28846800 29209438 29561210 29901196 30230154 
1405.418 30548302 30854414 31146144 31422720 31687778 31949576 32221132 
1408.794 32516282 32845154 33213544 33621416 34066112 34545456 35059128 
1412.169 35607680 36188764 36793488 37405952 38005036 38573472 39104624 
1415.544 39607824 40107824 40641948 41252980 41977416 42839224 43838160 
1418.919 44945472 46106568 47254632 48327816 49276704 50071208 50701588 
1422.295 51179008 51540532 51847880 52185412 52635440 53257300 54074856 
1425.670 55073256 56216152 57462580 58784856 60168260 61606516 63095256 
1429.045 64624996 66183800 67763976 69372464 71032712 72776072 74633664 
1432.420 76623016 78746944 80997160 83369496 85876856 88550016 91432888 
1435.796 94559520 97931208 101494816 105161752 108844104 112478784 116029640 
1439.171 119463992 122733512 125746144 128364664 130437640 131802928 
1442.064 132325280 131921528 130559992 128270624 125138592 121310640 
1444.957 116974424 112331304 107598632 102971160 98614160 94667416 91220232 
1448.332 88304008 85882752 83870368 82154128 80628432 79232248 77958288 
1451.708 76853200 75987328 75428368 75206296 75301928 75648648 76149024 
1455.083 76701920 77208776 77606656 77889776 78122424 78413016 78865888 
1458.458 79560280 80532264 81792008 83335928 85147024 87193056 89416824 
1461.833 91743744 94066744 96243288 98119264 99532392 100361096 100568384 
1465.208 100220720 99467104 98476264 97405776 96368032 95428968 94629344 
1468.584 93985784 93495304 93131408 92840520 92544296 92144288 91556016 
1471.959 90740128 89730560 88627952 87561440 86642344 85930968 85449584 
1475.334 85200560 85184112 85406784 85874792 86581104 87497240 88571184 
1478.709 89740992 90938416 92108688 93220880 94270352 95281056 96296016 
1482.085 97372312 98566968 99937024 101545016 103456528 105740904 108457904 
1485.460 111636384 115246776 119172544 123217064 127084928 130407456 
1488.353 132803712 133897576 133406936 131224336 127456248 122419432 
1491.246 116541184 110268496 103946648 97779080 91869376 86237024 80876080 
1494.621 75808688 71096952 66851236 63207844 60279820 58121700 56715872 
1497.997 55997548 55878600 56274236 57115592 58341188 59891208 61705348 
1501.372 63712688 65835944 67999048 70106352 72046432 73681808 74813672 
1504.747 75189632 74524808 72579672 69310192 64974076 60081760 55155564 
1508.122 50535652 46334332 42515088 38998408 35724152 32668114 29845116 
1511.498 27287156 25017118 23041908 21346360 19901332 18673424 17630686 
1514.873 16744422 15984695 15322356 14733860 14205726 13741292 13354330 
1518.248 13059349 12859268 12739285 12666888 12604871 12524107 12422933 
1521.623 12328772 12285653 12326147 12454302 12648807 12875924 13108385 
1524.999 13332633 13555151 13796596 14080920 14421328 14815140 15248120 
1528.374 15704790 16177760 16670080 17193052 17759072 18374602 19038326 
1531.749 19742318 20476314 21234030 22015586 22825302 23663892 24524928 
1535.124 25393364 26251398 27079708 27862714 28591218 29257214 29854630 
1538.500 30374790 30803832 31122472 31313308 31374064 31321354 31186264 
1541.875 31000040 30779858 30523704 30214560 29832518 29368130 28833204 
1545.250 28259398 27688610 27153806 26664932 26209020 25757736 25283880 
1548.625 24773180 24234876 23697832 23200492 22770198 22412998 22114940 
1552.000 21853148 21608716 21375734 21163194 20989042 20869086 20806130 
1555.376 20787152 20785344 20767966 20696440 20528868 20228142 19775676 
1558.751 19198710 18575476 18005074 17556470 17246452 17054736 16944372 
1562.126 16877710 16822082 16755408 16668737 16567798 16469637 16395789 
1565.501 16361862 16370602 16411135 16464578 16512450 16542567 16552687 
1568.877 16550932 16551688 16569382 16612275 16682854 16779720 16900584 
1572.252 17042676 17200944 17367204 17526282 17659192 17748544 17785858 
1575.627 17780474 17759176 17757622 17799356 17887908 18008668 18140516 
1579.002 18263762 18366720 18446748 18507494 18555040 18594116 18626244 
1582.378 18650006 18663980 18668304 18665122 18656234 18640806 18613346 
1585.753 18565274 18488234 18379026 18242716 18093360 17949718 17831496 
1589.128 17755552 17732702 17769704 17871266 18040580 18277654 18575408 
1592.503 18915930 19268256 19591264 19845348 19996212 20026710 19938794 
1595.879 19752684 19499970 19214536 18929430 18670898 18459606 18313804 
1599.254 18248384 18275028 18400872 18627560 18951268 19366186 19866610 
1602.629 20447208 21100788 21814856 22567060 23323576 24044394 24683596 
1606.004 25196966 25549506 25715652 25684576 25460186 25059904 24510482 
1609.380 23843318 23094704 22302204 21503144 20735260 20027614 19398650 
1612.755 18853222 18383002 17970920 17595008 17234592 16873026 16502434 
1616.130 16128033 15768418 15450747 15200901 15035743 14958298 14959327 
1619.505 15021097 15121231 15238717 15355824 15464447 15568459 15682666 
1622.881 15826490 16015496 16254736 16537610 16851360 17183744 17528662 
1626.256 17884836 18252636 18630638 19012362 19387390 19745888 20082924 
1629.631 20401086 20707562 21011020 21315420 21618362 21909670 22174876 
1633.006 22398972 22567374 22670170 22703196 22671706 22589886 22480164 
1636.382 22366982 22268024 22190812 22131920 22080704 22021720 21938906 
1639.757 21820884 21663534 21473794 21265694 21056996 20860638 20680526 
1643.132 20509416 20331568 20127658 19879756 19577156 19221706 18830178 
1646.507 18431086 18058576 17743782 17505168 17348650 17268276 17250142 
1649.883 17273308 17308720 17319548 17257208 17070830 16731853 16265674 
1653.258 15762784 15328843 15025316 14846990 14752576 14694614 14638819 
1656.633 14566824 14472573 14358650 14231027 14094919 13951976 13800085 
1660.008 13634707 13451551 13247702 13022815 12779924 12525436 12269428 
1663.384 12023756 11800250 11607180 11446717 11313995 11197838 11082765 
1666.759 10950732 10785960 10579080 10329781 10048444 9753260 9465590 
1670.134 9203053 8975751 8786366 8631472 8503121 8389233 8275104 8143989 
1673.991 7981695 7783569 7560042 7336901 7143851 7003581 6920822 6885406 
1677.849 6878034 6880693 6882511 6882545 6888469 6911059 6957789 7027220 
1681.706 7107945 7180365 7224295 7226922 7193167 7146815 7123506 7150520 
1685.564 7234368 7364669 7525519 7703460 7888964 8076438 8262507 8443858 
1689.421 8617783 8783966 8945038 9106982 9276500 9458309 9651477 9848729 
1693.279 10036169 10197265 10317600 10391542 10428635 10453615 10495874 
1696.654 10572222 10679655 10796388 10892087 10932010 10887873 10750533 
1700.029 10541396 10311289 10113284 9978053 9902013 9861337 9825173 9767323 
1703.886 9669398 9522215 9328225 9099977 8857106 8618661 8397543 8199057 
1707.744 8021285 7857822 7701200 7544938 7385631 7223250 7060357 6901161 
1711.601 6749461 6606930 6473223 6346249 6223782 6104341 5987519 5873079 
1715.459 5759206 5642175 5516417 5379188 5234222 5093863 4975436 4894168 
1719.316 4856505 4859152 4891420 4939508 4990451 5036908 5076397 5111766 
1723.174 5148948 5193545 5248374 5312770 5383381 5456520 5529135 5599144 
1727.031 5664598 5722677 5769347 5800709 5815484 5815854 5807055 5795303 
1730.888 5783013 5765720 5730097 5655535 5522625 5322531 5070028 4803031 
1734.746 4569147 4400886 4304131 4263340 4253837 4252365 4240989 4210441 
1738.603 4160293 4097673 4033658 3978614 3939425 3917625 3911975 3919665 
1742.461 3938121 3965138 3997976 4034059 4070413 4104831 4136240 4164441 
1746.318 4189598 4211612 4229211 4240219 4241959 4231788 4207832 4169492 
1750.176 4117842 4055664 3988713 3924546 3870552 3832711 3813423 3810816 
1754.033 3818404 3827095 3827529 3812019 3778594 3732038 3682379 3641078 
1757.890 3614917 3603824 3601252 3597176 3580939 3545928 3491013 3421377 
1761.748 3346509 3276395 3218743 3176886 3150685 3137435 3133631 3135233 
1765.605 3137369 3135433 3125488 3106098 3079802 3052606 3031619 3021175 
1769.463 3020341 3022076 3016404 2993149 2947978 2885766 2820462 2769207 
1773.320 2743464 2745531 2768339 2800986 2833936 2862819 2888435 2915253 
1777.177 2947311 2985676 3026480 3062817 3087210 3095353 3088111 3071293 
1781.035 3053140 3039360 3032286 3030050 3028516 3023878 3015036 3003725 
1784.892 2993583 2988078 2989179 2997086 3011065 3030584 3056043 3087177 
1788.750 3122818 3158562 3187667 3201485 3192573 3158562 3103629 3038726 
1792.607 2976935 2929730 2901877 2892070 2894605 2903578 2914686 2925560 
1796.465 2935334 2943708 2949412 2950813 2946310 2935268 2918889 2899976 
1800.322 2881931 2867288 2856615 2849578 2845242 2843374 2844975 2851812 
1804.179 2865120 2885566 2911884 2941406 2971564 3000356 3026881 3050804 
1808.037 3072127 3090280 3104296 3113707 3118679 3121182 3124186 3130527 
1811.894 3141674 3156693 3172847 3186699 3195744 3200184 3201753 3204022 
1815.752 3210398 3222949 3241676 3265078 3290918 3318195 3347177 3379032 
1819.609 3415766 3458080 3505509 3556485 3608368 3658019 3702195 3737653 
1823.467 3761315 3772244 3771409 3763888 3757438 3760412 3778762 3814025 
1827.324 3862396 3915519 3963399 3998109 4016535 4022522 4024695 4033992 
1831.181 4057604 4096870 4147915 4203917 4258488 4307678 4350816 4390209 
1835.039 4429505 4472019 4519994 4574671 4637226 4709268 4793249 4891588 
1838.896 5005735 5135303 5278558 5431860 5591626 5754607 5917313 6076820 
1842.754 6230437 6376207 6514693 6648446 6782307 6920721 7064870 7211493 
1846.611 7353346 7480210 7581823 7650579 7683527 7682448 7652063 7597840 
1850.469 7523732 7430694 7318164 7185486 7034359 6869585 6698210 6526937 
1854.326 6360572 6201027 6047589 5899175 5755983 5620323 5495645 5384220 
1858.183 5285937 5197401 5113510 5029098 4941754 4851847 4762428 4676846 
1862.041 4597408 4524213 4456385 4393121 4335956 4287600 4251361 4228408 
1865.898 4216096 4207932 4195252 4170395 4131089 4081050 4029578 3986940 
1869.756 3961193 3953636 3960423 3974333 3988646 3998979 4003995 4004095 
1873.613 4000450 3993628 3982894 3967479 3946681 3920902 3891146 3858451 
1877.470 3823217 3785146 3744036 3700390 3656582 3615685 3580137 3550137 
1881.328 3523013 3493418 3455141 3404812 3342669 3274025 3205992 3146981 
1885.185 3102327 3073428 3057745 3050671 3047768 3045599 3042329 3036924 
1889.043 3028949 3018506 3006361 2995384 2989512 2993182 3009631 3038692 
1892.900 3076932 3118012 3155558 3185764 3208328 3226120 3243712 3263943 
1896.758 3286444 3307544 3322302 3327210 3322335 3310783 3297795 3288113 
1900.615 3283673 3283706 3285542 3286945 3287612 3289448 3294924 3305908 
1904.472 3321600 3339263 3354957 3366911 3375025 3382572 3393058 3408720 
1908.330 3429325 3451534 3470906 3484733 3492549 3496257 3499363 3503606 
1912.187 3509117 3514127 3516399 3515196 3512157 3509718 3509317 3509752 
1916.045 3507180 3495723 3471540 3435403 3393892 3357261 3334388 3329280 
1919.902 3338328 3353087 3363037 3360767 3345274 3321734 3298997 3285509 
1923.760 3285976 3299798 3322702 3350249 3379934 3411959 3447360 3486337 
1927.617 3525718 3560660 3586151 3600149 3604793 3605896 3610273 3621966 
1931.474 3640677 3660659 3675428 3679872 3673490 3660458 3647093 3638773 
1935.332 3637436 3640844 3644687 3646424 3646458 3647995 3655647 3671285 
1939.189 3693038 3715228 3731202 3736583 3731837 3722012 3714593 3715094 
1943.047 3725120 3741462 3759443 3776455 3793702 3815563 3847085 3890110 
1946.904 3941197 3991689 4032053 4056199 4063624 4060045 4054326 4054761 
1950.761 4065029 4083692 4105701 4126339 4143365 4157884 4172905 4190234 
1954.619 4209003 4225564 4236170 4239784 4238513 4238880 4246041 4263005 
1958.476 4286797 4310221 4325448 4328795 4322904 4316044 4318387 4337027 
1962.334 4372637 4419162 4468571 4512729 4548219 4575609 4597710 4616228 
1966.191 4629154 4632202 4621051 4595935 4562416 4530373 4509180 4504828 
1970.049 4516144 4536400 4556724 4571189 4579392 4586458 4599350 4623126 
1973.906 4658291 4701263 4747756 4795594 4846821 4906432 4977514 5058563 
1977.763 5139795 5206321 5245020 5247100 5212525 5148781 5066709 4977514 
1981.621 4888404 4803802 4726083 4657722 4601728 4562115 4540485 4535328 
1985.478 4541388 4552605 4564124 4575643 4590677 4613649 4647641 4689741 
1989.336 4731308 4761758 4772981 4763299 4739582 4714594 4701933 4710775 
1993.193 4742496 4791071 4847726 4903349 4952680 4994105 5027221 5051390 
1997.051 5064429 5062888 5046026 5016026 4979793 4945943 4921948 4910387 
2000.908 4907873 4907136 4900133 4882540 4857074 4830337 4811776 4809363 
2004.765 4825881 4859152 4904087 4954690 5006473 5057189 5104156 5144422 
2008.623 5173694 5189052 5189152 5178053 5162059 5149586 5147037 5156224 
2012.480 5174096 5195054 5214604 5231304 5246865 5265143 5288587 5316091 
2016.338 5344300 5369358 5390258 5410589 5438134 5479538 5537223 5606192 
2020.195 5675811 5733353 5769347 5782576 5779823 5773342 5775223 5791844 
2024.052 5822704 5861828 5900956 5934578 5960947 5981203 5997529 6010161 
2027.910 6016343 6013084 5998705 5975895 5951171 5932394 5926348 5935384 
2031.767 5957755 5989702 6029076 6076418 6135424 6210774 6302879 6407412 
2035.625 6515265 6616316 6702685 6772446 6828182 6875072 6916984 6954287 
2039.482 6983614 7000248 7001123 6987116 6962907 6935467 6910621 6890961 
2043.340 6875779 6862818 6850296 6839727 6835015 6841410 6862920 6899209 
2047.197 6946746 6998564 7047829 7088243 7114783 7124214 7114547 7083932 
2051.054 7034157 6970281 6901834 6840434 6799606 6788230 6809064 6856659 
2054.912 6920553 6987890 7048099 7096461 7133375 7162546 7187338 7209202 
2058.769 7226619 7237468 7239826 7235076 7226653 7218837 7214895 7215131 
2062.627 7217152 7217186 7212638 7202531 7188450 7172045 7154865 7136137 
2066.484 7113705 7085380 7050052 7009407 6966442 6924862 6886618 6851946 
2070.342 6819128 6787187 6756763 6730783 6713218 6707497 6714126 6729269 
2074.199 6746701 6760061 6765143 6761609 6752489 6742865 6736639 6735932 
2078.056 6740273 6748114 6758446 6771638 6789375 6813271 6842857 6875980 
2081.914 6908500 6936140 6956678 6970651 6980583 6989540 6999170 7008531 
2085.771 7014828 7014660 7005568 6987722 6963176 6935198 6906076 6877024 
2089.629 6847368 6816166 6783317 6750369 6720116 6696056 6680174 6673344 
2093.486 6674824 6683674 6699690 6722909 6753768 6791394 6832154 6870864 
2097.344 6901868 6921360 6929070 6928935 6927219 6929642 6939776 6957419 
2101.201 6979304 7001056 7019947 7036380 7053487 7074906 7103870 7141493 
2105.058 7186732 7237804 7293465 7354424 7421897 7497133 7579126 7664507 
2108.916 7747678 7823477 7887682 7939410 7980075 8013049 8041840 8068776 
2112.773 8095409 8122214 8150370 8181499 8217494 8259164 8305668 8354542 
2116.631 8402002 8444940 8482442 8515319 8546982 8580539 8618223 8660066 
2120.488 8704788 8749785 8793603 8835903 8877937 8921904 8969560 9021926 
2124.345 9079135 9141056 9207182 9277515 9351178 9426614 9500472 9569260 
2128.203 9630099 9681867 9726761 9768915 9813718 9865778 9927539 9999007 
2132.060 10078455 10163854 10253442 10346544 10441906 10537492 10629365 
2135.436 10712801 10784126 10841738 10887941 10927626 10965786 11006021 
2138.811 11048436 11090651 11128587 11160134 11184171 11202870 11218579 
2142.186 11231771 11240680 11241121 11229017 11202088 11162072 11113426 
2145.561 11061488 11009555 10958208 10904419 10844387 10776483 10702408 
2148.937 10628177 10559796 10500932 10450934 10403996 10352585 10290321 
2152.312 10215210 10130377 10041628 9954050 9869472 9785893 9700772 9614889 
2156.169 9535898 9478019 9459766 9495764 9590025 9730726 9894115 10051563 
2160.027 10176574 10255817 10286080 10274375 10232409 10172063 10104059 
2163.402 10036338 9973578 9918522 9871133 9827816 9782403 9727371 9655982 
2167.259 9565331 9456108 9334251 9206302 9078188 8953528 8832184 8713543 
2171.117 8597166 8486193 8386496 8305060 8246736 8213307 8200644 8201556 
2174.974 8206891 8208140 8199800 8177481 8138858 8082953 8010754 7925811 
2178.832 7836128 7752738 7687507 7649399 7641744 7659415 7691757 7724877 
2182.689 7747611 7755335 7749128 7734253 7716546 7698738 7679143 7653917 
2186.546 7618206 7570427 7512843 7450378 7388294 7331542 7281739 7238310 
2190.404 7200510 7167463 7140011 7118926 7105218 7097505 7093598 7091005 
2194.261 7089085 7088883 7092857 7103668 7121822 7145434 7170125 7191246 
2198.119 7206271 7215097 7221162 7227697 7237333 7250405 7264522 7276921 
2201.976 7285648 7290567 7293263 7295352 7297273 7296902 7290871 7275944 
2205.833 7251248 7219275 7184340 7150823 7121856 7097101 7074569 7051231 
2209.691 7026715 7003110 6985230 6976913 6980314 6992941 7009575 7023078 
2213.548 7029241 7027725 7022001 7017320 7018802 7028735 7045169 7064702 
2217.406 7083426 7099929 7114850 7130142 7147826 7167801 7187878 7205092 
2221.263 7215940 7219848 7217186 7209876 7199500 7186564 7169822 7148533 
2225.121 7122327 7093093 7063691 7037895 7017354 7001999 6989304 6976610 
2228.978 6962233 6946847 6933144 6924424 6923414 6929609 6940517 6952233 
2232.835 6961290 6966577 6968967 6971223 6976543 6987419 7004423 7027490 
2236.693 7055676 7087603 7121991 7157088 7189730 7216715 7234301 7240938 
2240.550 7237804 7228337 7217725 7211560 7213278 7224261 7243431 7268869 
2244.408 7298789 7332419 7369825 7410639 7453142 7494335 7530070 7556806 
2248.265 7573057 7580104 7581115 7580508 7581857 7587151 7596322 7608495 
2252.123 7623028 7639619 7658841 7681200 7706091 7731892 7756144 7775877 
2255.980 7789371 7795882 7795578 7788494 7774663 7753007 7723224 7685686 
2259.837 7643463 7600975 7563414 7535498 7519484 7514764 7519012 7529025 
2263.695 7542578 7558660 7577035 7597671 7618881 7637427 7649635 7652332 
2267.552 7644812 7629334 7610619 7593591 7582396 7578081 7578823 7581250 
2271.410 7581453 7577103 7567898 7554884 7539948 7524878 7510786 7497673 
2275.267 7485874 7475457 7467064 7461232 7457929 7456614 7455165 7452334 
2279.125 7447008 7438817 7428570 7417987 7408819 7402685 7400663 7403629 
2282.982 7412156 7426548 7446839 7471716 7499290 7527036 7552220 7572888 
2286.839 7588499 7599998 7609237 7618206 7628525 7640766 7654457 7668655 
2290.697 7682516 7695568 7708080 7720796 7734220 7749095 7766230 7785998 
2294.554 7808802 7835049 7864435 7896253 7929085 7961818 7993339 8024086 
2298.412 8054734 8087139 8122754 8161849 8204020 8247581 8290470 8331708 
2302.269 8371397 8410887 8452744 8499371 8552456 8612781 8680009 8753504 
2306.126 8832352 8916086 9004368 9096492 9191851 9289261 9387438 9485435 
2309.984 9582708 9678681 9773490 9866896 9958424 10048275 10136449 10224029 
2313.841 10312748 10404845 10502494 10607057 10718947 10837457 10960790 
2317.217 11086912 11213750 11339503 11462877 11583087 11699926 11813631 
2320.592 11924062 12030705 12131515 12223077 12300002 12356691 12389078 
2323.967 12395454 12379055 12346805 12309342 12277779 12262100 12269088 
2327.342 12300616 12354135 12423241 12500099 12576186 12644577 12700696 
2330.718 12742390 12769960 12786101 12795280 12803265 12815550 12837255 
2334.093 12871214 12918112 12976042 13041901 13112005 13183520 13254671 
2337.468 13325049 13394821 13464162 13532317 13597782 13658709 13712771 
2340.843 13758324 13793825 13817460 13826218 13815681 13778708 13707026 
2344.219 13592517 13429371 13217848 12966654 12694385 12426991 12193633 
2347.594 12024540 11942385 11961661 12086575 12310535 12616878 12980549 
2350.969 13374559 13771354 14148830 14494190 14803037 15077901 15323729 
2354.344 15545485 15746154 15927015 16089486 16236058 16370293 16495105 
2357.719 16611861 16719077 16812920 16889630 16946816 16985132 17007596 
2361.095 17018106 17019656 17012834 16995606 16965422 16919774 16858870 
2364.470 16784472 16699484 16606800 16507529 16401535 16287519 16164623 
2367.845 16032755 15893606 15749006 15600778 15449819 15295825 15138487 
2371.220 14976955 14811162 14641492 14468634 14292728 14114052 13932644 
2374.596 13748884 13564210 13381085 13201999 13029405 12864934 12708782 
2377.971 12560838 12420547 12288447 12165418 12053699 11954884 11870188 
2381.346 11799773 11742681 11697782 11663881 11640737 11628553 11627328 
2384.721 11636925 11655713 11681376 11710785 11740707 11768929 11794019 
2388.097 11815674 11833992 11849484 11862969 11875058 11886465 11897941 
2391.472 11909759 11922087 11934449 11946165 11956723 11966294 11975796 
2394.847 11986900 12001479 12020963 12045592 12074822 12107562 12142724 
2398.222 12180207 12220692 12265782 12316534 12373736 12437356 12506305 
2401.598 12579733 12656857 12737579 12821830 12909920 13001476 13095716 
2404.973 13191991 13289551 13388705 13490411 13596243 13707744 13825670 
2408.348 13950231 14081229 14218496 14362109 14511970 14667846 14828236 
2411.723 14990296 15150599 15304817 15449957 15584052 15707126 15820337 
2415.099 15924815 16021341 16110014 16190039 16260412 16321162 16372219 
2418.474 16414853 16450021 16478894 16502092 16520333 16534824 16547319 
2421.849 16560156 16575716 16595922 16621536 16652212 16687330 16726550 
2425.224 16770285 16820050 16878056 16946474 17026960 17120356 17226938 
2428.600 17346582 17479506 17625546 17784718 17955690 18136474 18324898 
2431.975 18518836 18717666 18922436 19135444 19359362 19595806 19844342 
2435.350 20102530 20366776 20632990 20898740 21163610 21429024 21697770 
2438.725 21972678 22255886 22548528 22850550 23161172 23479254 23803696 
2442.101 24132968 24465400 24799174 25132608 25464506 25794268 26121922 
2445.476 26447780 26771946 27094800 27416062 27735864 28054276 28371510 
2448.851 28687664 29002062 29313608 29619734 29918306 30207100 30485244 
2452.226 30752862 31011678 31263206 31509284 31750656 31987060 32217492 
2455.602 32440368 32653894 32856304 33045292 33218984 33375564 33513382 
2458.977 33631152 33728080 33803856 33857552 33888644 33896024 33879148 
2462.352 33838744 33776960 33697644 33606020 33508010 33408556 33312026 
2465.727 33221808 33140444 33071070 33017584 32984302 32976080 32996920 
2469.103 33049296 33133540 33248562 33392060 33561920 33756296 33973840 
2472.478 34213752 34474604 34753952 35048424 35353804 35665268 35977384 
2475.853 36285580 36585020 36871572 37141892 37393604 37625148 37836216 
2479.228 38026444 38195516 38342036 38463984 38559312 38625732 38662204 
2482.604 38668976 38647424 38599728 38528684 38436724 38326980 38202680 
2485.979 38067748 37926456 37783080 37640432 37499608 37359512 37217152 
2489.354 37068272 36909340 36737704 36552540 36353664 36141840 35917560 
2492.729 35680624 35430124 35165068 34885092 34589908 34280116 33956176 
2496.104 33618124 33265628 32897334 32512248 32109450 31689416 31253378 
2499.480 30803938 30344586 29879794 29413796 28951200 28496104 28051768 
2502.855 27620244 27202556 26798200 26406086 26024778 25653502 25292662 
2506.230 24942644 24605360 24281720 23972398 23677292 23395882 23127728 
2509.605 22873288 22633796 22410660 22205250 22017468 21846250 21689202 
2512.981 21543774 21408140 21281282 21163646 21055988 20959380 20874162 
2516.356 20800430 20737484 20685460 20644736 20616174 20600434 20597552 
2519.731 20606446 20624860 20650156 20679936 20712706 20748016 20786422 
2523.106 20828690 20875240 20926034 20980454 21037486 21095778 21154184 
2526.482 21210822 21264092 21311628 21351126 21380434 21398358 21404206 
2529.857 21398080 21380050 21350606 21309644 21257412 21194574 21122388 
2533.232 21043052 20959518 20874162 20789238 20705756 20623436 20542172 
2536.607 20461134 20380112 20299658 20220576 20143968 20071228 20003116 
2539.983 19940424 19883466 19832308 19786356 19744258 19704176 19663924 
2543.358 19621492 19576256 19528460 19480010 19433126 19389816 19351256 
2546.733 19317098 19286234 19257172 19229154 19201688 19175264 19150576 
2550.108 19127756 19106150 19084406 19061106 19034760 19005510 18973974 
2553.484 18941784 18910256 18880908 18853916 18829348 18806718 18785820 
2556.859 18766480 18748664 18732092 18716144 18700024 18682416 18662010 
2560.234 18637486 18607674 18571776 18529278 18480110 18424690 18364576 
2563.609 18301708 18238640 18177930 18121134 18069284 18022242 17979382 
2566.985 17940462 17905794 17876238 17853520 17838952 17833150 17835534 
2570.360 17844890 17858872 17875720 17893778 17912112 17930344 17948716 
2573.735 17967224 17986632 18007700 18031220 18058542 18090182 18126212 
2577.110 18166080 18208372 18251564 18294554 18337236 18380166 18424518 
2580.486 18471570 18522120 18575892 18632472 18691064 18751154 18812878 
2583.861 18876824 18943618 19013608 19086414 19161206 19236912 19312420 
2587.236 19387390 19461920 19536742 19612514 19690654 19771724 19856238 
2590.611 19944310 20035420 20128630 20222208 20314416 20403344 20487810 
2593.987 20567326 20642268 20713504 20781938 20848470 20913030 20975272 
2597.362 21035016 21091882 21146844 21200906 21255636 21312498 21372288 
2600.737 21435570 21502446 21573128 21647652 21726926 21811372 21901340 
2604.112 21996694 22096950 22201518 22309810 22421510 22536906 22656312 
2607.488 22780220 22908844 23042152 23179940 23321828 23467014 23614732 
2610.863 23763692 23912386 24059172 24202642 24342202 24478124 24611146 
2614.238 24742346 24872290 25000622 25125866 25246372 25360308 25466684 
2617.613 25565952 25658952 25747084 25831470 25912180 25988614 26059852 
2620.989 26124842 26183364 26235736 26283324 26327714 26370174 26411792 
2624.364 26453308 26495216 26537868 26581686 26626812 26673106 26719968 
2627.739 26766976 26813108 26858258 26902320 26946034 26990000 27034638 
2631.114 27079636 27124322 27167352 27207564 27244006 27276428 27305254 
2634.490 27331190 27355468 27378724 27402050 27425942 27450616 27476382 
2637.865 27502856 27529968 27557364 27584830 27612194 27639984 27669294 
2641.240 27701040 27736712 27777154 27822724 27873596 27929138 27988682 
2644.615 28051342 28116596 28184084 28253776 28325920 28400974 28479402 
2647.990 28561810 28648516 28739450 28834548 28932712 29033130 29134456 
2651.366 29235806 29336330 29435566 29533724 29631264 29728828 29827656 
2654.741 29928848 30033970 30144266 30260632 30383460 30512224 30645788 
2658.116 30782704 30921368 31060648 31199758 31338840 31478078 31617924 
2661.491 31758748 31900718 32043562 32187198 32331560 32476216 32621604 
2664.867 32767110 32912918 33058592 33204318 33350162 33496558 33643896 
2668.242 33792756 33943244 34095572 34249424 34404804 34561852 34721112 
2671.617 34883084 35048460 35217456 35390004 35565856 35744660 35925872 
2674.992 36109432 36294656 36481468 36669016 36856456 37042868 37227836 
2678.368 37411552 37594800 37779028 37965980 38156988 38353184 38555116 
2681.743 38763444 38978472 39200712 39430944 39669784 39917264 40173132 
2685.118 40436824 40707732 40985260 41269268 41559880 41857396 42161472 
2688.493 42471500 42786824 43106408 43429740 43756836 44088280 44425008 
2691.869 44767800 45117076 45472960 45835252 46203852 46578740 46960408 
2695.244 47349292 47745660 48149272 48559380 48974688 49394004 49816396 
2698.619 50241136 50668412 51098380 51531872 51969348 52410816 52856060 
2701.994 53304124 53753740 54203596 54651584 55096576 55537172 55972444 
2705.370 56401780 56824436 57239112 57644500 58038108 58417824 58781368 
2708.745 59127256 59454808 59764464 60057336 60335060 60599132 60850976 
2712.120 61091528 61321336 61540804 61749272 61946412 62130792 62300908 
2715.495 62455104 62591552 62708832 62805696 62881208 62934944 62967040 
2718.871 62978416 62970944 62947540 62912420 62870100 62825760 62784256 
2722.246 62749832 62725948 62715532 62720968 62744320 62787392 62851488 
2725.621 62937504 63045800 63176112 63327744 63500136 63692428 63903808 
2728.996 64133308 64379520 64640416 64914012 65197744 65490140 65789640 
2732.372 66095784 66407784 66724956 67045176 67366016 67684352 67996144 
2735.747 68299040 68590504 68869432 69135608 69389456 69631944 69864104 
2739.122 70087696 70303968 70514968 70722400 70927992 71133200 71339800 
2742.497 71549240 71763936 71986240 72218720 72463688 72722520 72995600 
2745.873 73282240 73580728 73888760 74203736 74522528 74841272 75155560 
2749.248 75460136 75749352 76017800 76260736 76474768 76658312 76810888 
2752.623 76933376 77027136 77094000 77135472 77153320 77148656 77121344 
2755.998 77070976 76995760 76892552 76758224 76589536 76384376 76141680 
2759.374 75861320 75544664 75193064 74807728 74390448 73943208 73468160 
2762.749 72968832 72449520 71915112 71371472 70824264 70279232 69742184 
2766.124 69218600 68713608 68232232 67778464 67355376 66965112 66608904 
2769.499 66287348 66000544 65748544 65531180 65348080 65198204 65079988 
2772.875 64990856 64927520 64885960 64861916 64850800 64848064 64849256 
2776.250 64849988 64846300 64834372 64810680 64771676 64714132 64635032 
2779.625 64531340 64401388 64244704 64062684 63858664 63637680 63405796 
2783.000 63169064 62932336 62699376 62471980 62250584 62034388 61821964 
2786.375 61611520 61400716 61186924 60967100 60738048 60496972 60241560 
2789.751 59971164 59685764 59387556 59078928 58763196 58443824 58124428 
2793.126 57807988 57498628 57199084 56913724 56646144 56400004 56178404 
2796.501 55984392 55819328 55684424 55579988 55505956 55461984 55447752 
2799.876 55462812 55506636 55578064 55675272 55795968 55937088 56095372 
2803.252 56267708 56451544 56645348 56847624 57057588 57273816 57494348 
2806.627 57716852 57937948 58154164 58362336 58559116 58741192 58905400 
2810.002 59047876 59164352 59250816 59303688 59320476 59300192 59243716 
2813.377 59153152 59030948 58880696 58705808 58509904 58297756 58073976 
2816.753 57844364 57615632 57393940 57186192 56999288 56838936 56711644 
2820.128 56623076 56577556 56577968 56625076 56717308 56850608 57019804 
2823.503 57218700 57440456 57679200 57928900 58183292 58435716 58679180 
2826.878 58906424 59110516 59286024 59429044 59537984 59613084 59656076 
2830.254 59669912 59658276 59625244 59575076 59512068 59440292 59362980 
2833.629 59282836 59202056 59122056 59044572 58971168 58904032 58845408 
2837.004 58797604 58763008 58744004 58743204 58763804 58809972 58886616 
2840.379 58999708 59156304 59363092 59628100 59959444 60366392 60859328 
2843.755 61450256 62151092 62974088 63928456 65017948 66237552 67570024 
2847.130 68984840 70433360 71854152 73176624 74321944 75220008 75812984 
2850.505 76063312 75959896 75517736 74775568 73785664 72611824 71320944 
2853.880 69972504 68621856 67314368 66082672 64949872 63928416 63020900 
2857.256 62222324 61522404 60907700 60363196 59874512 59429156 59014892 
2860.631 58621648 58240392 57862764 57482136 57092920 56691484 56276044 
2864.006 55846380 55404572 54953964 54499800 54049752 53611900 53196324 
2867.381 52812988 52470596 52176668 51936412 51751676 51622208 51545156 
2870.757 51514672 51522696 51559296 51613512 51673296 51728720 51771724 
2874.132 51797404 51804388 51794120 51769592 51734020 51690052 51639784 
2877.507 51583996 51523556 51459724 51393820 51327432 51262108 51198800 
2880.882 51138004 51079896 51025224 50974772 50930396 50893996 50867696 
2884.258 50853128 50851232 50862556 50887104 50924808 50975332 51038192 
2887.633 51112580 51196972 51289664 51388448 51491696 51597916 51706436 
2891.008 51817188 51930436 52046884 52167328 52292512 52423600 52561424 
2894.383 52706660 52859956 53021164 53190184 53367176 53552488 53747104 
2897.759 53952348 54169396 54398764 54639788 54891168 55150372 55415680 
2901.134 55685628 55960456 56240816 56528756 56825720 57133316 57452556 
2904.509 57785012 58132912 58499252 58888440 59305548 59755984 60245712 
2907.884 60780544 61367320 62014244 62730000 63524412 64406312 65381632 
2911.260 66451528 67610440 68845592 70135088 71448296 72749776 73996512 
2914.635 75144168 76152144 76983928 77614704 78032792 78240680 78253328 
2918.010 78094736 77794280 77380664 76877840 76304344 75669992 74978080 
2921.385 74226808 73412640 72532640 71587840 70584544 69535528 68459368 
2924.760 67376584 66309580 65278300 64297372 63376584 62519500 61725092 
2928.136 60988680 60303840 59663980 59063136 58496484 57960632 57454184 
2931.511 56976920 56531132 56120332 55749176 55422528 55144880 54918880 
2934.886 54745504 54623516 54549760 54519560 54527224 54566556 54630920 
2938.261 54713628 54808724 54910720 55015788 55121292 55226296 55331104 
2941.637 55436384 55542968 55650564 55757204 55859008 55949940 56022200 
2945.012 56066384 56073468 56035544 55947340 55808252 55622692 55400392 
2948.387 55154664 54901924 54659140 54440528 54257992 54118164 54023108 
2951.762 53970356 53954296 53967280 54000556 54046188 54097560 54149204 
2955.138 54197964 54241736 54279428 54310256 54333384 54348180 54354416 
2958.513 54352420 54343712 54330420 54315624 54302144 54292420 54288328 
2961.888 54291032 54300680 54317576 54341608 54372628 54409804 54452244 
2965.263 54498372 54546192 54593948 54640424 54684504 54726256 54765724 
2968.639 54803312 54839700 54875492 54911660 54949300 54990064 55035384 
2972.014 55086160 55142812 55204472 55270364 55338932 55409168 55480656 
2975.389 55553252 55626424 55698848 55767336 55826940 55871480 55894128 
2978.764 55888512 55850116 55776868 55668980 55529380 55363208 55176216 
2982.140 54975396 54767752 54558856 54353396 54153896 53959924 53768740 
2985.515 53575388 53373508 53156740 52920320 52661736 52381432 52081888 
2988.890 51766532 51438428 51098192 50743888 50371008 49974360 49549440 
2992.265 49094728 48612404 48109332 47594864 47079008 46570440 46074512 
2995.641 45592404 45121524 44656740 44192632 43724296 43248916 42765948 
2999.016 42276792 41784136 41290840 40799884 40313664 39833980 39362552 
3002.391 38900772 38449648 38010384 37583816 37170368 36770444 36384036 
3005.766 36010896 35650588 35302480 34965816 34639680 34323072 34015044 
3009.142 33715044 33422336 33136330 32856982 32583744 32316282 32054510 
3012.517 31798140 31547018 31300914 31059900 30823786 30592422 30365942 
3015.892 30144266 29927996 29717688 29514218 29318180 29129992 28949392 
3019.267 28775986 28608806 28447280 28290694 28139256 27993028 27852468 
3022.643 27718064 27589632 27467592 27352186 27244076 27145342 27058160 
3026.018 26985274 26929112 26890864 26870244 26864358 26868128 26874544 
3029.393 26874860 26860092 26822202 26754748 26654080 26519976 26355210 
3032.768 26164994 25955442 25733476 25504528 25273134 25042460 24814330 
3036.144 24590246 24371256 24157910 23950970 23750674 23556556 23368328 
3039.519 23185008 23006270 22831482 22660780 22494158 22332168 22174982 
3042.894 22022940 21876320 21735462 21600568 21471738 21348866 21231350 
3046.269 21118528 21009490 20903712 20801020 20701376 20605160 20512578 
3049.645 20423418 20337124 20252928 20170106 20088304 20007836 19928976 
3053.020 19852388 19778276 19706222 19635252 19564470 19493144 19421414 
3056.395 19350008 19280414 19214328 19153346 19098360 19049958 19008106 
3059.770 18972486 18942684 18918112 18898142 18881842 18868624 18857860 
3063.146 18849486 18843536 18840836 18842048 18847756 18858172 18872670 
3066.521 18890112 18908662 18926590 18941888 18952480 18956738 18953032 
3069.896 18940090 18916968 18883158 18838690 18784056 18720538 18650076 
3073.271 18574818 18497880 18422132 18350130 18283944 18224058 18169880 
3076.646 18119474 18070356 18020236 17967466 17911768 17853900 17795524 
3080.022 17737914 17681968 17627926 17575100 17522832 17470330 17417212 
3083.397 17363480 17309272 17254656 17199636 17144690 17090992 17040126 
3086.772 16994572 16956568 16927594 16907716 16895040 16886702 16879158 
3090.147 16869582 16856424 16839684 16820912 16802142 16785334 16771799 
3093.523 16762156 16756337 16753789 16754203 16757267 16762950 16771112 
3096.898 16781786 16795046 16810648 16828558 16848294 16869202 16890250 
3100.273 16910162 16927696 16942786 16955602 16967214 16979100 16992572 
3103.648 17008354 17026308 17045536 17065454 17085304 17105122 17125146 
3107.024 17145792 17166922 17187914 17207634 17225078 17239900 17252658 
3110.399 17264966 17279170 17297134 17320548 17349514 17383378 17420868 
3113.774 17460464 17500306 17538772 17574548 17606118 17632378 17652946 
3117.149 17667818 17677722 17684004 17687662 17689490 17689732 17688146 
3120.525 17684418 17678794 17672236 17666024 17661710 17660434 17662228 
3123.900 17666370 17671546 17676896 17682106 17687628 17694460 17703848 
3127.275 17715928 17730356 17745886 17760900 17774190 17785202 17794522 
3130.650 17803222 17812612 17823934 17837502 17853108 17870300 17888426 
3134.026 17907174 17926374 17946366 17967744 17991158 18017302 18046452 
3137.401 18078680 18113396 18149670 18186430 18222572 18257162 18290164 
3140.776 18321822 18352688 18383036 18413456 18443428 18472918 18501374 
3144.151 18529104 18556526 18584710 18614626 18646826 18681448 18718358 
3147.527 18757070 18797410 18839660 18884196 18931366 18981590 19033826 
3150.902 19087004 19139564 19189810 19236944 19280760 19322120 19362132 
3154.277 19402426 19444664 19489714 19538614 19591368 19647664 19706498 
3157.652 19766626 19826516 19884750 19940702 19994476 20046732 20098750 
3161.028 20151674 20206412 20263276 20322262 20383376 20446340 20511466 
3164.403 20579172 20649462 20721880 20795458 20868460 20939560 21007576 
3167.778 21072508 21134946 21196348 21257828 21320362 21384124 21448972 
3171.153 21514074 21578944 21643090 21706340 21768450 21829106 21887784 
3174.529 21944240 21997810 22048562 22097124 22144402 22191650 22240018 
3177.904 22290556 22343644 22399568 22458496 22520260 22584510 22650690 
3181.279 22718278 22786854 22855580 22924318 22992820 23061440 23130452 
3184.654 23200352 23271590 23344414 23418788 23494958 23573102 23653534 
3188.030 23736814 23823018 23912844 24005908 24102146 24200542 24300292 
3191.405 24399994 24498528 24594946 24688612 24779916 24869518 24958648 
3194.780 25048884 25141244 25236786 25335474 25437244 25541600 25647738 
3198.155 25755276 25863752 25972818 26082654 26192586 26302932 26413446 
3201.531 26524272 26635514 26747066 26858928 26970818 27082634 27194194 
3204.906 27305926 27418214 27531450 27645458 27759704 27872782 27983098 
3208.281 28089694 28192462 28292498 28392272 28494440 28601268 28713858 
3211.656 28831788 28953538 29076846 29199942 29321868 29442762 29563232 
3215.031 29684052 29805404 29927214 30048670 30168880 30287524 30404532 
3218.407 30520540 30636332 30752650 30869994 30988582 31108412 31229238 
3221.782 31351126 31474016 31597544 31721640 31845878 31970084 32094288 
3225.157 32218420 32342554 32466472 32589424 32710552 32828894 32943622 
3228.532 33054662 33162546 33268060 33372704 33476874 33581284 33685648 
3231.908 33789568 33892836 33995304 34097184 34198768 34300268 34401612 
3235.283 34502656 34603224 34703344 34803416 34904056 35005788 35108880 
3238.658 35213684 35319912 35427604 35536692 35647532 35760056 35874192 
3242.033 35988468 36101692 36212208 36318720 36421400 36521184 36620384 
3245.409 36721476 36826848 36937980 37055028 37177520 37303976 37433440 
3248.784 37564924 37697784 37831804 37966812 38102472 38239004 38376056 
3252.159 38513656 38652240 38792068 38932772 39074532 39216452 39357912 
3255.534 39498364 39637512 39775444 39912684 40049720 40187124 40325552 
3258.910 40465664 40607928 40752640 40899880 41049644 41201504 41354904 
3262.285 41509200 41663988 41819052 41974204 42129524 42284792 42440000 
3265.660 42595232 42750628 42906664 43064512 43225092 43389460 43558184 
3269.035 43731292 43908028 44087732 44269672 44453160 44637900 44823340 
3272.411 45008976 45193656 45376580 45556816 45734116 45909012 46082400 
3275.786 46256152 46431588 46610056 46792576 46979828 47172336 47370168 
3279.161 47573272 47781128 47992228 48204692 48416632 48626524 48834144 
3282.536 49040640 49248164 49459312 49676396 49900720 50131972 50368964 
3285.912 50610220 50854284 51100392 51348988 51600640 51856576 52117676 
3289.287 52383824 52655300 52931400 53211568 53495368 53782468 54073016 
3292.662 54367256 54665904 54969492 55278716 55593656 55913800 56238100 
3296.037 56565252 56893892 57223576 57554612 57887936 58225120 58567652 
3299.413 58916064 59270984 59631708 59997792 60369248 60746436 61130392 
3302.788 61522328 61923368 62333768 62753088 63180828 63615740 64057000 
3306.163 64504124 64956716 65415180 65880484 66353620 66836164 67329848 
3309.538 67835208 68352672 68880808 69417720 69961056 70509048 71060928 
3312.914 71617960 72182168 72756248 73341984 73940296 74550056 75169664 
3316.289 75796888 76430440 77069904 77715144 78366744 79024760 79689080 
3319.664 80359072 81034456 81715016 82400760 83092128 83788664 84489320 
3323.039 85192376 85895872 86597736 87297192 87993240 88686016 89374576 
3326.415 90058096 90734664 91402336 92059416 92704568 93337040 93955832 
3329.790 94559272 95145568 95712376 96257512 96779608 97278080 97752600 
3333.165 98203000 98627264 99023088 99387288 99717608 100013640 100276856 
3336.540 100510832 100718984 100903664 101064952 101200752 101307176 
3339.433 101380144 101416224 101413208 101370024 101286216 101161016 
3342.326 100993872 100784456 100532632 100239504 99906488 99534608 99123992 
3345.702 98674088 98183520 97650944 97076832 96463184 95813464 95132000 
3349.077 94422984 93688768 92931008 92149984 91345992 90519856 89673360 
3352.452 88808768 87928488 87035208 86130920 85218096 84299632 83378608 
3355.827 82458656 81542800 80633416 79731952 78838752 77954192 77078920 
3359.203 76214416 75362776 74526184 73706504 72904048 72117856 71346400 
3362.578 70588056 69841368 69106232 68383392 67674288 66980416 66303128 
3365.953 65643548 65002396 64379716 63775808 63190176 62622100 62070240 
3369.328 61533092 61009232 60497696 59997524 59508116 59028672 58558132 
3372.704 58095072 57638144 57186268 56739320 56298112 55864056 55438604 
3376.079 55022708 54616416 54218724 53828368 53444364 53066052 52693868 
3379.454 52328432 51970020 51618476 51272284 50929316 50587472 50244852 
3382.829 49900500 49554340 49207116 48859804 48513396 48168744 47826776 
3386.205 47488176 47154200 46825536 46503244 46187416 45877672 45573080 
3389.580 45271980 44973216 44675504 44378324 44082008 43787252 43495148 
3392.955 43206864 42923160 42643808 42368068 42093708 41818648 41540848 
3396.330 41259432 40975392 40691324 40411224 40139040 39877564 39627352 
3399.706 39386860 39152452 38919580 38684912 38446244 38203908 37959504 
3403.081 37715636 37474576 37237224 37003720 36773112 36544396 36316700 
3406.456 36090100 35864620 35640952 35419228 35199204 34980576 34763144 
3409.831 34546996 34332540 34120444 33911680 33706916 33506114 33308518 
3413.207 33113372 32919210 32725166 32530318 32334234 32137028 31938876 
3416.582 31740428 31542524 31345610 31150204 30956450 30764456 30574360 
3419.957 30386694 30202268 30022146 29847352 29678766 29516238 29358912 
3423.332 29205398 29053996 28903104 28751770 28599782 28447208 28294372 
3426.708 28141694 27989142 27836960 27685220 27534698 27385568 27238574 
3430.083 27093848 26951042 26809126 26667080 26524026 26379996 26235348 
3433.458 26091908 25951186 25814556 25682504 25554390 25428424 25303338 
3436.833 25177058 25048920 24918958 24788090 24657470 24528432 24401746 
3440.208 24277480 24155282 24034098 23913578 23793022 23672638 23552604 
3443.584 23433474 23315220 23197486 23079538 22960470 22839374 22716078 
3446.959 22591002 22464742 22338202 22211840 22085480 21958842 21830918 
3450.334 21701674 21571560 21442114 21314830 21191546 21072858 20958268 
3453.709 20846384 20735156 20622984 20508618 20392058 20274244 20156362 
3457.085 20039654 19924502 19811082 19698976 19587730 19476684 19365944 
3460.460 19255372 19145346 19035800 18927212 18819590 18713410 18608746 
3463.835 18505280 18402428 18299290 18194446 18086970 17976964 17864880 
3467.210 17752306 17641488 17533700 17430180 17330892 17235040 17140966 
3470.586 17047638 16953812 16859110 16763294 16666120 16567627 16467778 
3473.961 16366508 16263954 16160840 16058128 15956439 15856663 15758764 
3477.336 15662812 15568082 15473648 15378582 15281787 15182475 15079720 
3480.711 14973490 14864990 14756244 14650128 14549486 14456678 14372315 
3484.087 14295330 14223118 14151842 14077703 13998169 13911946 13819102 
3487.462 13721047 13619766 13517277 13415325 13315517 13219248 13127441 
3490.837 13040672 12958700 12880737 12804903 12729492 12652662 12573150 
3494.212 12491061 12406977 12322431 12239027 12158024 12080374 12006554 
3497.588 11936595 11870154 11806277 11743430 11679742 11613375 11542492 
3500.963 11465972 11383957 11297672 11209194 11120666 11034331 10951717 
3504.338 10873876 10801245 10733789 10671505 10613373 10557896 10502562 
3507.713 10445198 10382853 10314682 10240890 10163854 10086797 10013688 
3511.089 9946930 9888081 9836392 9790333 9747600 9705889 9663469 9618819 
3514.946 9570954 9519234 9463558 9404368 9343053 9281882 9223190 9169346 
3518.803 9121735 9080421 9044118 9010389 8977104 8942399 8904587 8863430 
3522.661 8818624 8770205 8717769 8661250 8600783 8537080 8471834 8407238 
3526.518 8345523 8288782 8238193 8193756 8154489 8118973 8085012 8050852 
3530.376 8015580 7978591 7940254 7901178 7862175 7823511 7785255 7746565 
3534.233 7706124 7662686 7615913 7565976 7514326 7463154 7414818 7371173 
3538.091 7332958 7300171 7271766 7246295 7222711 7200039 7177536 7154360 
3541.948 7129805 7102355 7071033 7034359 6991695 6942840 6888503 6829865 
3545.805 6768205 6706084 6645620 6589134 6539079 6496699 6461923 6432968 
3549.663 6406436 6378359 6344871 6303787 6254774 6200086 6143557 6089253 
3553.520 6040903 5999680 5965750 5937534 5913148 5890846 5869217 5847320 
3557.378 5824114 5798660 5769817 5737013 5699679 5658624 5615322 5571622 
3561.235 5529336 5490142 5454943 5423673 5395659 5369224 5341617 5308812 
3565.093 5266585 5210814 5139427 5053166 4956902 4858683 4766750 4688435 
3568.950 4626576 4580263 4544670 4513566 4481392 4444033 4399681 4348941 
3572.807 4294393 4239081 4185985 4137144 4093893 4055764 4021953 3991087 
3576.665 3961092 3930097 3896495 3859688 3819908 3778227 3736249 3695979 
3580.522 3658654 3624907 3595004 3568511 3545394 3525819 3509718 3496892 
3584.380 3485736 3473143 3454507 3424516 3378999 3316559 3239606 3154790 
3588.237 3071827 2999288 2943674 2907448 2888034 2880329 2877561 2873158 
3592.094 2861885 2840673 2809557 2770440 2727293 2684183 2645210 2612308 
3595.952 2586509 2567210 2553211 2543013 2535214 2528315 2520950 2511852 
3599.809 2499255 2482592 2461965 2438373 2414283 2392394 2375002 2363609 
3603.667 2358145 2356812 2356579 2353614 2343753 2323233 2289156 2240361 
3607.524 2177985 2105628 2028723 1953630 1885803 1828169 1780357 1739104 
3611.382 1699951 1658472 1612642 1563590 1515608 1474513 1446021 1433222 
3615.239 1435483 1448647 1465736 1479267 1482093 1469492 1440503 1398085 
3619.096 1348758 1300235 1260324 1234072 1223207 1226330 1240286 1261055 
3622.954 1285513 1311668 1339220 1369233 1402739 1439406 1476208 1506763 
3626.811 1521327 1508791 1460051 1373089 1256768 1129017 1012529 923399 
3630.669 867420 840429 832992 834188 835316 831698 822768 811248 801589 
3635.008 796908 798004 803381 809290 812244 809688 801157 788078 772842 
3639.348 757607 743700 731685 720965 711373 703076 697766 697302 704072 
3643.688 719073 742339 771979 804443 835250 859186 870707 865195 839101 
3648.027 791132 722923 639891 550937 466943 399415 357696 345858 363002 
3652.367 403760 459414 519587 574261 614839 634914 632724 611256 579071 
3656.706 547221 525658 520715 532823 557771 587864 615469 633354 637303 
3661.046 627183 606278 580399 555880 538563 531762 536937 554089 582655 
3665.385 622006 671383 729826 794784 862041 927151 987588 1046340 1114400 
3669.725 1212175 1364646 1592355 1907035 2308542 2788447 3333453 3926920 
3673.583 4547884 5158907 5702902 6108440 6303182 6245967 5943009 5440751 
3677.440 4802931 4091184 3360934 2656478 2015941 1470490 1036741 715621 
3681.297 493215 346919 252820 191921 154166 135937 136732 155327 186584 
3685.637 221889 251062 264291 255638 224508 176342 119729 64251 16964 -18885 
3690.459 -43436 -58146 -64970 -65534 -61558 -54733 -47047 -39924 -33894 
3694.798 -28361 -21437 -11132 4141 25116 50664 78435 105644 128545 144156 
3699.620 149857 143924 125993 97756 62760 26474 -5798 -29455 -41879 -43138 
3704.442 -34226 -18024 3412 27800 53249 78335 101070 119000 129308 128877 
3709.264 115686 88675 49074 -828 -56688 -113171 -164744 -206111 -233267 
3713.603 -244394 -239791 -222106 -195546 -164876 -134933 -108798 -87067 
3717.461 -68118 -48803 -25611 3545 37940 74557 108726 136533 155691 166596 
3722.282 172165 175645 180120 186120 192153 195236 192385 182142 165834 
3726.622 147272 132092 125529 130932 148830 176574 209557 241548 267341 
3730.962 283189 287864 283554 274303 263827 253483 240885 221159 189269 
3735.301 143129 85162 23492 -31111 -70834 -90910 -91937 -77129 -50460 -14810 
3740.123 28661 78634 132125 183402 221557 232895 203391 126921 11630 -117775 
3744.945 -225782 -284461 -285256 -237473 -159941 -73617 2683 56165 79926 
3749.284 73630 42148 -7190 -66726 -130329 -192300 -246149 -285488 -304527 
3753.624 -301514 -278634 -242903 -202898 -166036 -138610 -122976 -118371 
3757.481 -122843 -133973 -150667 -173090 -200712 -231512 -260090 -279991 
3761.339 -286051 -275753 -251679 -219722 -188458 -164909 -153780 -154675 
3765.196 -163883 -174746 -181437 -181470 -175674 -168023 -163253 -165009 
3769.054 -175309 -192664 -213363 -233267 -248434 -256613 -257474 -252308 
3772.911 -243102 -232273 -221742 -212535 -204289 -196009 -185809 -172627 
3776.769 -156728 -140432 -127249 -121220 -125062 -138312 -157291 -176204 
3780.626 -189220 -192399 -185577 -171368 -154675 -140432 -132217 -131522 
3784.483 -137782 -148812 -162160 -175409 -186868 -194718 -197831 -195082 
3788.341 -185908 -171169 -152754 -133807 -116848 -103597 -93527 -84549 
3792.198 -73650 -58643 -39858 -20443 -5632 -530 -8813 -29753 -57914 -83854 
3797.020 -98198 -94421 -71762 -35054 5400 36614 47284 29722 -14910 -76035 
3801.842 -134635 -171534 -174581 -142353 -83224 -11132 56497 104086 120657 
3806.181 102131 55005 -6560 -64043 -103365 -118537 -111746 -90115 -61591 
3810.521 -32403 -4506 23393 54376 90531 131396 171933 204452 219767 211446 
3815.343 179325 132258 85394 54641 50432 73630 116216 163713 199943 209689 
3820.165 183104 121022 35686 -51520 -120193 -156894 -160041 -136921 -99755 
3824.504 -61028 -29753 -10669 -2650 -828 2021 11895 31379 58750 89305 117045 
3829.808 136135 143195 138190 124204 106704 92718 88178 96497 117807 149128 
3834.630 184164 215126 233889 234354 213966 175380 125231 73895 30948 2882 
3839.452 -9211 -8117 530 10934 18356 20477 17163 10106 1722 -4506 -5964 -165 
3845.238 13817 35819 64317 97060 132059 167922 204849 244531 289522 341215 
3850.060 398918 456794 504559 527880 510497 441337 321585 169745 16501 
3854.399 -107672 -184252 -211708 -198858 -159544 -105949 -47511 9145 60540 
3858.739 104285 139152 164641 181082 190297 194672 197026 199148 200938 
3863.078 199811 192982 178430 157879 136997 123276 123972 141969 174121 
3867.418 211347 242244 254742 241050 201534 146344 91525 52089 35653 41187 
3872.240 59976 80920 94375 95801 86455 72867 63224 64815 80158 107533 141472 
3877.544 175480 203391 220695 225568 219237 205976 191623 182540 184032 
3881.883 197722 222021 251725 279045 295026 292108 267208 224077 173159 
3886.223 128943 104848 107566 135406 179888 228585 268932 289986 286538 
3890.563 259417 216319 168353 126955 100672 93315 104583 131694 171436 
3894.902 220430 275398 333456 391091 444156 489168 522838 543738 552198 
3899.242 550274 541184 527549 511128 491954 469033 440773 406678 367346 
3903.581 325531 284747 249604 223844 209192 206242 213402 228519 249140 
3907.921 272778 297711 322248 345692 367545 387343 405451 422167 437855 
3912.260 453278 468934 484623 499484 511493 517928 516203 504891 484126 
3916.600 456230 425583 397392 375703 363400 360913 367015 379749 396430 
3920.940 415102 433609 450060 462399 468337 466280 455898 439015 418950 
3925.279 400576 388438 385221 391456 405186 423261 442332 459812 474241 
3929.619 484855 491954 494906 492949 485287 472151 454339 434505 415600 
3933.958 400344 390428 385486 384060 384193 384392 384359 385022 387940 
3938.298 394242 404423 417391 430790 442697 451022 455135 455600 454240 
3942.638 452880 453344 456661 463195 472416 483495 495271 506882 516833 
3946.977 523999 527515 526653 521411 512455 501043 488504 476530 466744 
3951.317 460110 457523 458651 462864 468337 472947 474473 471753 464754 
3955.656 454770 444554 437357 435400 439712 449762 462996 476463 487177 
3959.996 493447 494740 492253 487642 482998 479813 478818 480079 482965 
3964.336 486613 490130 492949 494575 495072 495072 495537 497129 500745 
3968.675 506417 513682 521644 529075 535013 539060 541582 542610 542809 
3973.015 542378 541316 539558 537501 535743 535079 536672 540686 547122 
3977.354 554620 561753 567161 570113 570876 570279 569483 569184 569417 
3981.694 569881 569516 567559 563909 558833 553293 548018 543871 541184 
3986.034 540221 540785 542809 546160 550572 556013 562051 568322 575090 
3990.373 582754 591713 602662 615602 629704 643674 655786 664547 669027 
3994.713 669624 667335 663087 658043 652335 645831 638000 628477 617626 
3999.052 606345 596059 587797 582489 
##END=
