
##TITLE=1708_3_e
##JCAMP-DX=5.01  $$ Nicolet v. 1
##DATATYPE=INFRARED SPECTRUM
##ORIGIN=UniL
##OWNER=Nicolet
##LONGDATE=2011/09/08
##TIME=13:48:37
##SPECTROMETER/DATA SYSTEM=Nicolet iS5
##DATA PROCESSING=
Ratio against background
%Transmittance->Absorbance
Truncated
ElementMultiply or ElementDivide
##COMMENTS=
Number of sample scans: 32
Collection length: 51.16 sec
Sample gain: 2.0
Background collected on: Jeu Sep 08 13:38:27 2011 (GMT+02:00);
Number of background scans: 32
Background gain: 2.0
Sample spacing:  1.000
Number of scan points: 12415
Resolution points: 8192
Number of FFT points: 65536
Apodization: N-B fort;
Phase correction: Mertz;
Laser frequency: 15798.0 cm-1
Number of rejected sample scans: 0
Number of rejected background scans: 0
Bench serial number: ASB1000141;
##RESOLUTION=4.000
##XUNITS=1/CM
##YUNITS=ABSORBANCE
##FIRSTX=649.893372
##LASTX=4000.122314
##FIRSTY=0.098036
##MAXX=4000.122314
##MINX=649.893372
##MAXY=0.285154
##MINY=-0.000722
##XFACTOR=1.000000
##YFACTOR=1.000000E-009
##NPOINTS=6950
##DELTAX=0.482117
##ZPD=6100
##XYDATA=(X++(Y..Y))
649.893 98035792 98013824 98083672 98242472 98469984 98737760 99018512 
653.268 99300448 99590320 99905368 100262248 100664664 101102000 101556856 
656.643 102017928 102489944 102995096 103563544 104217272 104957488 
659.536 105761784 106594040 107425048 108245792 109075928 109952080 
662.428 110916528 111995664 113192472 114489768 115861960 117285624 
665.321 118733008 120163696 121497584 122587824 123248264 123315120 
668.214 122751264 121677592 120300960 118795560 117240008 115634008 
671.107 113936528 112108376 110141232 108067656 105946208 103846560 
673.999 101819256 99885840 98046504 96292504 94621352 93042520 91571432 
677.374 90220224 88989224 87865088 86826592 85853280 84933632 84065384 
680.749 83251920 82493944 81785448 81112968 80461472 79820464 79191216 
684.124 78584832 78019744 77511864 77067880 76683296 76344752 76034936 
687.498 75738304 75444800 75149288 74848584 74537472 74208216 73850696 
690.873 73457728 73027480 72565424 72082920 71593616 71110920 70645280 
694.248 70206240 69804792 69453256 69165712 68952928 68815704 68740392 
697.623 68696600 68643048 68530680 68318232 67981496 67516880 66942684 
700.998 66291780 65605856 64922244 64271360 63672280 63132928 62652336 
704.373 62224312 61840684 61492588 61172848 60875716 60597800 60338408 
707.747 60098808 59882576 59694396 59539656 59425056 59360052 59356980 
711.122 59434516 59612096 59906460 60322648 60845376 61433656 62018604 
714.497 62520572 62859000 62971824 62833264 62456408 61891308 61209660 
717.872 60499792 59853252 59353332 59083332 59116096 59504008 60268588 
721.247 61376596 62730388 64153432 65421768 66301352 66581360 66142128 
724.621 64976884 63201712 61017468 58669888 56397476 54365940 52667160 
727.996 51315056 50269848 49465032 48833144 48324112 47902540 47547392 
731.371 47245768 46986552 46761768 46567008 46402612 46272624 46181668 
734.746 46131588 46119024 46137080 46177280 46234256 46306648 46397008 
738.121 46509180 46644988 46803356 46980272 47171412 47374864 47591868 
741.496 47825184 48076836 48344408 48619708 48888872 49136060 49343552 
744.870 49494700 49574768 49567076 49455300 49224116 48862176 48368556 
748.245 47756200 47053380 46298096 45532644 44796156 44115860 43508004 
751.620 42978356 42525796 42147236 41840104 41603560 41437896 41343424 
754.995 41318864 41359716 41457212 41598200 41763676 41932492 42084768 
758.370 42204340 42284316 42328184 42348528 42362408 42386700 42433424 
761.744 42506576 42605320 42726460 42870640 43044756 43265940 43559868 
765.119 43963936 44526024 45299196 46340412 47692440 49364972 51311588 
768.494 53415812 55499220 57327008 58674212 59376236 59375212 58751776 
771.869 57709584 56534076 55489428 54764932 54415512 54354300 54380848 
775.244 54243540 53736000 52736180 51253084 49405028 47390344 45423112 
778.619 43674204 42259992 41219536 40531864 40136604 39961872 39943672 
781.993 40031372 40194648 40417332 40691252 41013880 41383840 41801324 
785.368 42266676 42780356 43342636 43954108 44616492 45334796 46117180 
788.743 46976988 47931064 48996576 50191476 51531428 53030824 54704836 
792.118 56571216 58649824 60963252 63530816 66363968 69458384 72791824 
795.493 76320736 79978768 83690304 87371456 90943976 94355088 97587304 
798.867 100674648 103697608 106782968 110074200 113687888 117682512 
801.760 122008816 126494184 130816952 134552144 137248320 138473488 
804.653 137954496 135635616 131714208 126592848 120795904 114870808 
807.546 109226096 104095136 99506400 95325080 91323624 87272648 83030384 
810.920 78565576 73963984 69377520 64987852 60948532 57352760 54239260 
814.295 51594592 49375700 47525068 45986840 44712964 43660648 42795784 
817.670 42090024 41520100 41070076 40728880 40488176 40340824 40278112 
821.045 40290216 40369624 40512508 40722148 41007072 41380052 41853308 
824.420 42434816 43127044 43926172 44823196 45803512 46847016 47929068 
827.794 49018164 50082480 51094880 52041396 52930240 53796192 54704196 
831.169 55736820 56990904 58564124 60531404 62933216 65750548 68893160 
834.544 72177056 75327856 78026128 79913648 80680736 80139616 78254128 
837.919 75168240 71161656 66616088 61914692 57382104 53269364 49713096 
841.294 46758812 44382764 42521120 41091492 40008300 39197304 38592452 
844.669 38137596 37792080 37526448 37325428 37184556 37105656 37090464 
848.043 37136836 37236824 37379372 37554556 37756404 37984780 38243024 
851.418 38535200 38862428 39222800 39612324 40028868 40474356 40955876 
854.793 41483136 42065420 42709828 43419192 44195456 45042936 45970780 
858.168 46996700 48145424 49445612 50931476 52639292 54605404 56866544 
861.543 59450056 62361916 65569596 68987984 72472896 75811096 78759176 
864.917 81067680 82512216 82951648 82340360 80744536 78320512 75299800 
868.292 71950336 68516288 65214148 62201180 59565156 57343764 55531148 
871.667 54096248 52994656 52180292 51612692 51255020 51077284 51055224 
875.042 51167896 51400868 51745588 52200880 52771908 53468308 54299892 
878.417 55269796 56369404 57571784 58833268 60089944 61264560 62282248 
881.792 63073768 63593448 63828812 63803552 63574696 63216580 62814080 
885.166 62439800 62144324 61956232 61882292 61916372 62047916 62268672 
888.541 62575100 62965812 63438392 63985808 64595088 65249836 65932156 
891.916 66626012 67318976 68000760 68660976 69289256 69873328 70400864 
895.291 70863000 71254176 71573456 71823584 72009944 72139880 72222904 
898.666 72273224 72307672 72345592 72405520 72499992 72633136 72799656 
902.040 72987920 73183368 73374352 73556744 73734536 73919632 74127488 
905.415 74377160 74687880 75077680 75565408 76168960 76903552 77781720 
908.790 78810936 79993552 81328208 82811576 84441072 86215408 88135480 
912.165 90203184 92421464 94795664 97336288 100063032 103004928 106201664 
915.540 109699568 113540904 117759888 122371560 127366024 132699128 
918.432 138285120 143995824 149636448 154956880 159670192 163455168 
921.325 166032672 167218896 166976208 165450784 162970560 160032848 
924.218 157191680 155019840 154031312 154567760 156782784 160585360 
927.110 165662432 171469152 177299760 182437520 186183952 188019472 
930.003 187683824 185162208 180663056 174520832 167144688 158930096 
932.896 150228448 141366864 132620480 124228528 116407352 109320576 
935.789 103089952 97794392 93464032 90097936 87673056 86154024 85494112 
939.163 85628280 86468280 87878712 89673408 91635136 93507344 95042376 
942.538 96042024 96367288 95973328 94905480 93291368 91306576 89141880 
945.913 86985168 84979600 83221376 81759928 80601664 79726304 79098776 
949.288 78683832 78449256 78368568 78421352 78588640 78852216 79195504 
952.663 79604096 80066936 80578088 81133496 81729848 82362272 83023336 
956.037 83704600 84399176 85103128 85816336 86540704 87278312 88028584 
959.412 88788120 89552200 90317712 91084656 91857176 92641440 93442712 
962.787 94262696 95099456 95947704 96802840 97662728 98529056 99405664 
966.162 100296264 101202048 102121496 103051432 103989672 104936864 
969.055 105897192 106875552 107875496 108896176 109933336 110981200 
971.947 112035936 113098480 114174272 115271360 116396696 117552920 
974.840 118737800 119946408 121174464 122420968 123688600 124981544 
977.733 126301792 127646520 129007608 130373000 131731120 133073120 
980.625 134392656 135684384 136941168 138151552 139302416 140381568 
983.518 141382848 142308608 143169680 143981504 144757984 145509936 
986.411 146243312 146962592 147674272 148389792 149123456 149890720 
989.304 150702096 151560304 152461088 153396416 154359280 155347072 
992.196 156361456 157406000 158482048 159586256 160711216 161848768 
995.089 162994080 164148288 165317296 166507136 167720832 168954800 
997.982 170200480 171448640 172694608 173940784 175196592 176473392 
1000.874 177779712 179118560 180487440 181883680 183307968 184767552 
1003.767 186274144 187840672 189474144 191174480 192935168 194748880 
1006.660 196612448 198530000 200510112 202561296 204685008 206872784 
1009.552 209106624 211363936 213625072 215873264 218093632 220269136 
1012.445 222372416 224367216 226214832 227880976 229349168 230624576 
1015.338 231733024 232711200 233597136 234425488 235222384 236011056 
1018.231 236816032 237662256 238573760 239567600 240649024 241811680 
1021.123 243044528 244341232 245708592 247169120 248754480 250497408 
1024.016 252419952 254527536 256810784 259252336 261833904 264536912 
1026.909 267339856 270208672 273084288 275885088 278508032 280835648 
1029.802 282759552 284178880 285002784 285154496 284562144 283165888 
1032.695 280933600 277870240 274030848 269512832 264452432 258999968 
1035.588 253297504 247483696 241681216 235998576 230544736 225417024 
1038.481 220699744 216465312 212761680 209616192 207037664 205015280 
1041.374 203515616 202471264 201777232 201273504 200744272 199956080 
1044.267 198662496 196657600 193823440 190138592 185689216 180638896 
1047.160 175211264 169641840 164139728 158888560 154016192 149596640 
1050.053 145661152 142199184 139173072 136526288 134198728 132132904 
1052.947 130278664 128599256 127066192 125655816 124347760 123120576 
1055.840 121952520 120825272 119723776 118638296 117562912 116492784 
1058.733 115421744 114342600 113247680 112132784 111000032 109858696 
1061.626 108723904 107612512 106541864 105525048 104572272 103691000 
1064.519 102886792 102161664 101511856 100924896 100374960 99824128 99229824 
1067.894 98547520 97742600 96798528 95717704 94522400 93247128 91936440 
1071.269 90634920 89381648 88209608 87140400 86184496 85341808 84603088 
1074.645 83952848 83371984 82842896 82351336 81886704 81442584 81013176 
1078.020 80591456 80169176 79737128 79288040 78820000 78338448 77855840 
1081.395 77388344 76954976 76573456 76257896 76021160 75874224 75827392 
1084.770 75891224 76075112 76386232 76829400 77406600 78118256 78964152 
1088.146 79942208 81047712 82268272 83583728 84963328 86368864 87764176 
1091.521 89118408 90414160 91648968 92832400 93978624 95098712 96195688 
1094.896 97262200 98285184 99251432 100157664 101015528 101856448 102725488 
1098.271 103673584 104745280 105959608 107296712 108685768 110014176 
1101.164 111129080 111859840 112061800 111627600 110518296 108767312 
1104.057 106475384 103790000 100870432 97881968 94965264 92222576 89725672 
1107.433 87508384 85574848 83907264 82473552 81234480 80147224 79173040 
1110.808 78277416 77430520 76609024 75793136 74966264 74116832 73237408 
1114.183 72327200 71392568 70446376 69506216 68589960 67714992 66894524 
1117.558 66136956 65447188 64826792 64275472 63791156 63370296 63007756 
1120.934 62696352 62427752 62193152 61982408 61784604 61585480 61365372 
1124.309 61100452 60761636 60318992 59749216 59038612 58188676 57215412 
1127.684 56149220 55028612 53892248 52776920 51710468 50709520 49781096 
1131.059 48923660 48129468 47387464 46686236 46015756 45368816 44742236 
1134.435 44137024 43557524 43009524 42499268 42031324 41608048 41229844 
1137.810 40896348 40606616 40360788 40159172 40001908 39888240 39816368 
1141.185 39784012 39789096 39831220 39911088 40030320 40190104 40389804 
1144.560 40626156 40894348 41188460 41503076 41834008 42178268 42532372 
1147.936 42892728 43254408 43611996 43961588 44301340 44632392 44957708 
1151.311 45281432 45607052 45936600 46270784 46609616 46953508 47303068 
1154.686 47658864 48020428 48385220 48748244 49103336 49443196 49761436 
1158.061 50052472 50310996 50531932 50709408 50837004 50908636 50919292 
1161.437 50865572 50746384 50561524 50311292 49995996 49615996 49173052 
1164.812 48670664 48115216 47515676 46882300 46226260 45557960 44886684 
1168.187 44221576 43571404 42945212 42352912 41803180 41303336 40858596 
1171.562 40471228 40142312 39872188 39662200 39515164 39435152 39426228 
1174.938 39492012 39635156 39857624 40162192 40553540 41038356 41625624 
1178.313 42324856 43145380 44096056 45184908 46420528 47813456 49374776 
1181.688 51116720 53051600 55188520 57534332 60091272 62855892 65814196 
1185.063 68936256 72174504 75452288 78666872 81701296 84420544 86695168 
1188.438 88417392 89502480 89905976 89623712 88692968 87184224 85192776 
1191.814 82833472 80218280 77453848 74637168 71842928 69131296 66546300 
1195.189 64114600 61851000 59759368 57835164 56068532 54446760 52958124 
1198.564 51591608 50339492 49197208 48162156 47233060 46408144 45684384 
1201.939 45056792 44518608 44062060 43679224 43362260 43102932 42892436 
1205.315 42720100 42573376 42439672 42306996 42166400 42013624 41848348 
1208.690 41673692 41494072 41314124 41137676 40968584 40811820 40674512 
1212.065 40566204 40498508 40483524 40531572 40651152 40847276 41122560 
1215.440 41477772 41912460 42424548 43010328 43665044 44382328 45155972 
1218.816 45981460 46856096 47779648 48753620 49780500 50863300 52005648 
1222.191 53212808 54491236 55848456 57291660 58824656 60445864 62146964 
1225.566 63913368 65724992 67556672 69381408 71169816 72889384 74509144 
1228.941 76000000 77338736 78513088 79523072 80382000 81113288 81751128 
1232.317 82337720 82919128 83550312 84291424 85202288 86346752 87782624 
1235.692 89557864 91711944 94271048 97249640 100651968 104471456 108689088 
1239.067 113267640 118154160 123274712 128537032 133846208 139103824 
1241.960 144216112 149102688 153685936 157890352 161644464 164873360 
1244.853 167505376 169477632 170732112 171221136 170910000 169777744 
1247.746 167826112 165082416 161602240 157459424 152734960 147507552 
1250.639 141839808 135781728 129378512 122679136 115749184 108677848 
1253.532 101567992 94539256 87715592 81204720 75104352 69485832 64388016 
1256.908 59822868 55774680 52208204 49074324 46319808 43894136 41748824 
1260.283 39844008 38146788 36629248 35270136 34052028 32959350 31978500 
1263.658 31096274 30299108 29575646 28916032 28313256 27763696 27264646 
1267.033 26813990 26408446 26043388 25713790 25416232 25149672 24916396 
1270.409 24720774 24568332 24463928 24410650 24411104 24467960 24585478 
1273.784 24770408 25029894 25370670 25795956 26303036 26881452 27511328 
1277.159 28165382 28807036 29393266 29882314 30234274 30421200 30432464 
1280.534 30276264 29978584 29575148 29107670 28611956 28113768 27628966 
1283.910 27163612 26718804 26295116 25894524 25521042 25179410 24872500 
1287.285 24601256 24364560 24161026 23989940 23851580 23746474 23673548 
1290.660 23629112 23607630 23603118 23611514 23632716 23670818 23732090 
1294.035 23822982 23947854 24108694 24305618 24539336 24812576 25130782 
1297.411 25501680 25932826 26430984 27001776 27649058 28376390 29184456 
1300.786 30069408 31017764 32002826 32986946 33919204 34745340 35417432 
1304.161 35897440 36165932 36223084 36087576 35792296 35378500 34894612 
1307.536 34387084 33897996 33463132 33105612 32836578 32654930 32550388 
1310.912 32507390 32508892 32541246 32593708 32657682 32726344 32792050 
1314.287 32846476 32882788 32896120 32884576 32849442 32792732 32715804 
1317.662 32618138 32497716 32353156 32185234 31998582 31800706 31599612 
1321.037 31402308 31212326 31030646 30857686 30695286 30548838 30426708 
1324.413 30338402 30293104 30297296 30354500 30467332 30638358 30870314 
1327.788 31165190 31521610 31932246 32383070 32855626 33331558 33794976 
1331.163 34237376 34656116 35052264 35427208 35779592 36104176 36394376 
1334.538 36643452 36847912 37008408 37129368 37217692 37281016 37328244 
1337.914 37370164 37419748 37494368 37612720 37791104 38041632 38368816 
1341.289 38770368 39240172 39770940 40356752 40992068 41671940 42390172 
1344.664 43139412 43913452 44707932 45521272 46352616 47196196 48035160 
1348.039 48839076 49560284 50139296 50518384 50645252 50487524 50038192 
1351.415 49316716 48366404 47245840 46027508 44783120 43578400 42471896 
1354.790 41505264 40704060 40077664 39621252 39320364 39156328 39112748 
1358.165 39175908 39335092 39580820 39901316 40282292 40709884 41173124 
1361.540 41668548 42200872 42781048 43419160 44117180 44864892 45638592 
1364.916 46404968 47121624 47743956 48226872 48524956 48601880 48434192 
1368.291 48017284 47367284 46519468 45521712 44421156 43261728 42077648 
1371.666 40891360 39721232 38586476 37510588 36525944 35667244 34961796 
1375.041 34422340 34042712 33803252 33678948 33652060 33718052 33888392 
1378.417 34188192 34652560 35326348 36257336 37498160 39099800 41093784 
1381.792 43473832 46168328 49038488 51865728 54380136 56315044 57412356 
1385.167 57480016 56428076 54298916 51287460 47706384 43946376 40356532 
1388.542 37176432 34524252 32402560 30747598 29466556 28471126 27686738 
1391.917 27055374 26538222 26109218 25753692 25467422 25252484 25113546 
1395.293 25052392 25065556 25143914 25275978 25449364 25653362 25880280 
1398.668 26124138 26381970 26653094 26939054 27241960 27563152 27901614 
1402.043 28253740 28613372 28972842 29326086 29668974 30000384 30320530 
1405.418 30629076 30923964 31202640 31464078 31711694 31954392 32205644 
1408.794 32480180 32789230 33139228 33530488 33960296 34425536 34925024 
1412.169 35458848 36024576 36614288 37212892 37800248 38359736 38884100 
1415.544 39381528 39875384 40401584 41001976 41712604 42557552 43536976 
1418.919 44622628 45761392 46887688 47942092 48877528 49666252 50300544 
1422.295 50792084 51176992 51513968 51882864 52361060 53004168 53834296 
1425.670 54837708 55980624 57225356 58546984 59932096 61374532 62869184 
1429.045 64404964 65968068 67549160 69153120 70800904 72521680 74344520 
1432.420 76285936 78348880 80526912 82819240 85242328 87831896 90636880 
1435.796 93696296 97014640 100540064 104181976 107848816 111474064 115019536 
1439.171 118451888 121724072 124745632 127381336 129481632 130885240 
1442.064 131457296 131114392 129823640 127613056 124565720 120825056 
1444.957 116575896 112016592 107361960 102804408 98507608 94609576 91198808 
1448.332 88306600 85898224 83889536 82170136 80636808 79229424 77940920 
1451.708 76817024 75926984 75337824 75079768 75134792 75438728 75897704 
1455.083 76414672 76895912 77281840 77567088 77811640 78115440 78574472 
1458.458 79261792 80211584 81435272 82933080 84692512 86686600 88863528 
1461.833 91153480 93453304 95623584 97511104 98953176 99824216 100081520 
1465.208 99784520 99075664 98119016 97069296 96036944 95087128 94259944 
1468.584 93572568 93023152 92588168 92218112 91839200 91359072 90698688 
1471.959 89822512 88765800 87626840 86531120 85585344 84847416 84338216 
1475.334 84060272 84014152 84206176 84642104 85314584 86195320 87234080 
1478.709 88371376 89543000 90697672 91807112 92866624 93897920 94939944 
1482.085 96044424 97264448 98654416 100276648 102197584 104488816 107212728 
1485.460 110400576 114025440 117973392 122050504 125964176 129347904 
1488.353 131822320 133010608 132627440 130559864 126906352 121976304 
1491.246 116191280 109995232 103733024 97609496 91730528 86117696 80766488 
1494.621 75699928 70980120 66717036 63046716 60082636 57880328 56423964 
1497.997 55650524 55473428 55808780 56587860 57748792 59230920 60973392 
1501.372 62905260 64949484 67031100 69056656 70917264 72479944 73552304 
1504.747 73891080 73222272 71316296 68132056 63918896 59167960 54380848 
1508.122 49883664 45782488 42042240 38586944 35360852 32343052 29551208 
1511.498 27018912 24770128 22813080 21133172 19702164 18487026 17455944 
1514.873 16580088 15829135 15173828 14590501 14066271 13604585 13219726 
1518.248 12926202 12726421 12605076 12529563 12462077 12374691 12266088 
1521.623 12164839 12115398 12150255 12273178 12462588 12685241 12914255 
1524.999 13136832 13359797 13602842 13888407 14227672 14616373 15039448 
1528.374 15481923 15937429 16410895 16914846 17462292 18060440 18708290 
1531.749 19398614 20121896 20873154 21652738 22463834 23304242 24164634 
1535.124 25027262 25873916 26686496 27452450 28166972 28827750 29434892 
1538.500 29985116 30466832 30858754 31136748 31288844 31323672 31267122 
1541.875 31149846 30990432 30790208 30534900 30207028 29797526 29316868 
1545.250 28794786 28270466 27775494 27320074 26893192 26470106 26026080 
1548.625 25549154 25048252 24549820 24087612 23684080 23341688 23044178 
1552.000 22768486 22496564 22224498 21964420 21737552 21563516 21448066 
1555.376 21380120 21334318 21279334 21178466 20994152 20693626 20262544 
1558.751 19727130 19157674 18640876 18235668 17955242 17780232 17677204 
1562.126 17612676 17557952 17494268 17415142 17327790 17249762 17201256 
1565.501 17196636 17236936 17310408 17397690 17481056 17548328 17597768 
1568.877 17636794 17678102 17734048 17810610 17909110 18027284 18163352 
1572.252 18315462 18480352 18651528 18816546 18959332 19064706 19124882 
1575.627 19146974 19153206 19172910 19225274 19312454 19421622 19534384 
1579.002 19634526 19712636 19767354 19802448 19823846 19835430 19838688 
1582.378 19832932 19817602 19794436 19766694 19737082 19704384 19662364 
1585.753 19601386 19511684 19389122 19238434 19073534 18913958 18780284 
1589.128 18690234 18655576 18683662 18779282 18945350 19181602 19479698 
1592.503 19821660 20176006 20501982 20760354 20917620 20956354 20878020 
1595.879 20701064 20454812 20170452 19878888 19604922 19368888 19189670 
1599.254 19083852 19065294 19143752 19322570 19599826 19969846 20426786 
1602.629 20964318 21573650 22242042 22946882 23655772 24331410 24931206 
1606.004 25414336 25748490 25909050 25883974 25674592 25294452 24766550 
1609.380 24119798 23389660 22613586 21829978 21076996 20383342 19766106 
1612.755 19228288 18760218 18343908 17958522 17586038 17214078 16840304 
1616.130 16474525 16137455 15854223 15645534 15521343 15479176 15506887 
1619.505 15585872 15695583 15818035 15939184 16054759 16170675 16302070 
1622.881 16465988 16674142 16927938 17218802 17534976 17866950 18211722 
1626.256 18570426 18944830 19332444 19724286 20107146 20469158 20804844 
1629.631 21117518 21416528 21712332 22010254 22308484 22597392 22863088 
1633.006 23091768 23271204 23394484 23460370 23475338 23452292 23409382 
1636.382 23365812 23335288 23323436 23327456 23337874 23339728 23316618 
1639.757 23256420 23153692 23014062 22851460 22684206 22526610 22383204 
1643.132 22247552 22104166 21933714 21717452 21444794 21117172 20750274 
1646.507 20371222 20011998 19701818 19458802 19289176 19189014 19146038 
1649.883 19141468 19147458 19129210 19041062 18837582 18496602 18050010 
1653.258 17588246 17209288 16962908 16834552 16778722 16746936 16706061 
1656.633 16639920 16544426 16424213 16286382 16137145 15977923 15806112 
1660.008 15616921 15405394 15168784 14906995 14623398 14325054 14022604 
1663.384 13728742 13456028 13213817 13004924 12825140 12663374 12504020 
1666.759 12329010 12122213 11873525 11582406 11258089 10917365 10579895 
1670.134 10262094 9974188 9720594 9499963 9307439 9133374 8965028 8786366 
1673.991 8583209 8350420 8096928 7847666 7631560 7470805 7370264 7319614 
1677.849 7300070 7293667 7289961 7287535 7294106 7319917 7371982 7448761 
1681.706 7539847 7628086 7696984 7737627 7757156 7777699 7828302 7928376 
1685.564 8078261 8266898 8479808 8707357 8943381 9184811 9429594 9673498 
1689.421 9911505 10139467 10355909 10563293 10766497 10969931 11174107 
1692.796 11374502 11560254 11717695 11834639 11906762 11943031 11966021 
1696.172 12002978 12068485 12159183 12253887 12323386 12333885 12258044 
1699.547 12087189 11843015 11575805 11338415 11160848 11040007 10953043 
1702.922 10870954 10769689 10633168 10454193 10235157 9986903 9725541 
1706.297 9465692 9217268 8983565 8762361 8548265 8335052 8117960 7895139 
1710.155 7668520 7442592 7223722 7017286 6825893 6649052 6483515 6325102 
1714.012 6170947 6019904 5872306 5727780 5583638 5435080 5277619 5111967 
1717.870 4947216 4799212 4683578 4609396 4576714 4577417 4599283 4630059 
1721.727 4661306 4689573 4716302 4746315 4784371 4833218 4892291 4958478 
1725.584 5028461 5099294 5168966 5235396 5295328 5344133 5377242 5392070 
1729.442 5389822 5375061 5353290 5326824 5291739 5235899 5140566 4989010 
1733.299 4775259 4516445 4250223 4021852 3859387 3765158 3721477 3703431 
1737.157 3689296 3663165 3618792 3557854 3489343 3423848 3370584 3334088 
1741.014 3314355 3309013 3315423 3331784 3355992 3385744 3417837 3449096 
1744.872 3477051 3500867 3521075 3538446 3552810 3562665 3564603 3555282 
1748.729 3531197 3490879 3434702 3365141 3286444 3204423 3126255 3058613 
1752.586 3006528 2972431 2954650 2947811 2943674 2933166 2908915 2868389 
1756.444 2815560 2759970 2712655 2680749 2664946 2659012 2653678 2638843 
1760.301 2607475 2558711 2496922 2430477 2367673 2314672 2273601 2243991 
1764.159 2223842 2210920 2202927 2196933 2188974 2175387 2153909 2125106 
1768.016 2093642 2066009 2046800 2037046 2031986 2023597 2002692 1964547 
1771.874 1911861 1855488 1808871 1782021 1776797 1787643 1805876 1823710 
1775.731 1838384 1851295 1867035 1889064 1917851 1949003 1976296 1993139 
1779.588 1997000 1990176 1979425 1972069 1972768 1981089 1992373 2001161 
1783.446 2002692 1996035 1983552 1970072 1959587 1954461 1954428 1958589 
1787.303 1966277 1978060 1994670 2016007 2039276 2058951 2067807 2059484 
1791.161 2031786 1988445 1938619 1892592 1858582 1838384 1828868 1824110 
1795.018 1819052 1810900 1799422 1785980 1771707 1756670 1739703 1719777 
1798.875 1696990 1673241 1652220 1637718 1632463 1636288 1647330 1662730 
1802.733 1680325 1699186 1719444 1740668 1762225 1782054 1798224 1809802 
1806.590 1817621 1824243 1832827 1844640 1859414 1873790 1883540 1885038 
1810.448 1877351 1862076 1843509 1825308 1810135 1798457 1789041 1780623 
1814.305 1773770 1770276 1773304 1785814 1808904 1841113 1879314 1919881 
1818.163 1960086 1999030 2037545 2076496 2116516 2156839 2196167 2233001 
1822.020 2266640 2296751 2323566 2346851 2366474 2382465 2396025 2409652 
1825.877 2426678 2449369 2477927 2509385 2538247 2558311 2565644 2560577 
1829.735 2548912 2539680 2541946 2560711 2595408 2640977 2691651 2743164 
1833.592 2794483 2847310 2904979 2969629 3041128 3116577 3192507 3266847 
1837.450 3340365 3417068 3501969 3599748 3711886 3836588 3969452 4105065 
1841.307 4239449 4369759 4495453 4617233 4737204 4857979 4982173 5112068 
1845.165 5247603 5386837 5524168 5652413 5762631 5847286 5901459 5924299 
1849.022 5918656 5889233 5840704 5775189 5692261 5589746 5466687 5325013 
1852.879 5170374 5011165 4855165 4707895 4570486 4440886 4315575 4192074 
1856.737 4070012 3950760 3835552 3724986 3617189 3509852 3401540 3293522 
1860.594 3189436 3094084 3011199 2941072 2880663 2824965 2769840 2714556 
1864.452 2661779 2616242 2581942 2559344 2544113 2529148 2506686 2473162 
1868.309 2430710 2386696 2350183 2328230 2322500 2329329 2342554 2356712 
1872.167 2367973 2375502 2379700 2380633 2377168 2367240 2348451 2320201 
1876.024 2283394 2240761 2194835 2147182 2097071 2043504 1985217 1923309 
1879.881 1860379 1800519 1746423 1699086 1656311 1614304 1570374 1524186 
1883.739 1477970 1436048 1402739 1379504 1364846 1355007 1345734 1334301 
1887.596 1320441 1305386 1291129 1278568 1267236 1256369 1246135 1238060 
1891.454 1235667 1241582 1256834 1278867 1302993 1324230 1339319 1348825 
1895.311 1356270 1366574 1382496 1403271 1424679 1440735 1447484 1444957 
1899.168 1437211 1429898 1428535 1435350 1448415 1463475 1476674 1486714 
1903.026 1495226 1505400 1519830 1538817 1559666 1578321 1592388 1601567 
1906.883 1608717 1618129 1632164 1649925 1666954 1678097 1678962 1669748 
1910.741 1654814 1641044 1634559 1638384 1651654 1670746 1691402 1710629 
1914.598 1726962 1740102 1748752 1750182 1740901 1718712 1684683 1645235 
1918.456 1610047 1587466 1581780 1590360 1605724 1617830 1619060 1606689 
1922.313 1583941 1557205 1533097 1515175 1503039 1493032 1482093 1469492 
1926.170 1456992 1447816 1444027 1444558 1445556 1443029 1434851 1423116 
1930.028 1413476 1412878 1425377 1450443 1482160 1512582 1535225 1547263 
1933.885 1550721 1549856 1548992 1548759 1547795 1543272 1533729 1521692 
1937.743 1512183 1510155 1517569 1531169 1543705 1547263 1537320 1515076 
1941.600 1488709 1469293 1464938 1478901 1506697 1540246 1571671 1597443 
1945.458 1618462 1638783 1662031 1689007 1716483 1740701 1758100 1769112 
1949.315 1776864 1785880 1798124 1811433 1820916 1820616 1808505 1787111 
1953.172 1763656 1745724 1737607 1737408 1737940 1729158 1703809 1661000 
1957.030 1605990 1548327 1496323 1455496 1425177 1402938 1385321 1372889 
1960.887 1369432 1378706 1402573 1437145 1474546 1505799 1525117 1531767 
1964.745 1528609 1520928 1511352 1498584 1477871 1445323 1401177 1352614 
1968.602 1309873 1282588 1274646 1282289 1295350 1301697 1294353 1273084 
1972.459 1244706 1219220 1204367 1203836 1217791 1244905 1287939 1353877 
1976.317 1451673 1585139 1749384 1927536 2094907 2229137 2315205 2349850 
1980.174 2341355 2303280 2249387 2189407 2128702 2070037 2015807 1970371 
1984.032 1937920 1921446 1919316 1925240 1931630 1932129 1926205 1918983 
1987.889 1918517 1931197 1957890 1992040 2023231 2041640 2043105 2030954 
1991.747 2015108 2006920 2012911 2032985 2060682 2087383 2106694 2116749 
1995.604 2121444 2126272 2135362 2149613 2166296 2182214 2195468 2207490 
1999.461 2221078 2238030 2256481 2269637 2268472 2245324 2198498 2132731 
2003.319 2058785 1987414 1928535 1884905 1856286 1838617 1830365 1832595 
2007.176 1848433 1879414 1923010 1971570 2015241 2046267 2062846 2069305 
2011.034 2074665 2088182 2114818 2153076 2197033 2240594 2279930 2315771 
2014.891 2352315 2393127 2439540 2487657 2531981 2567210 2592409 2610375 
2018.749 2626676 2645710 2667646 2689683 2706787 2716423 2719757 2723225 
2022.606 2732994 2753467 2783045 2814059 2838872 2851445 2852413 2847777 
2026.463 2846943 2856515 2877795 2905780 2932299 2952148 2964958 2976801 
2030.321 2997186 3033988 3089279 3159396 3236268 3313053 3387047 3459984 
2034.178 3536341 3619628 3708511 3797981 3881083 3953134 4013726 4066099 
2038.036 4114598 4160560 4200873 4228709 4236605 4221549 4186554 4141325 
2041.893 4099513 4071718 4063825 4074795 4098476 4128312 4160092 4193546 
2045.750 4231821 4278665 4336124 4402426 4473191 4542661 4605177 4655411 
2049.608 4689741 4705617 4702067 4681769 4651224 4621251 4602666 4606215 
2053.465 4636120 4689272 4753852 4815059 4859487 4880094 4878419 4863340 
2057.323 4846520 4837741 4841192 4855432 4875068 4894939 4911124 4923456 
2061.180 4932873 4940648 4945507 4945072 4937330 4922049 4902043 4882004 
2065.038 4866691 4857778 4853924 4850541 4842298 4827221 4806248 4783333 
2068.895 4763232 4748392 4738276 4729466 4718011 4701598 4681937 4662243 
2072.752 4646670 4637828 4634245 4632571 4629322 4622859 4615090 4610468 
2076.610 4613918 4628083 4651727 4680329 4708263 4731744 4749330 4762495 
2080.467 4773919 4785175 4795594 4803634 4807655 4807688 4806616 4808760 
2084.325 4817873 4834726 4856605 4877983 4893230 4898491 4893631 4881300 
2088.182 4864982 4846855 4826484 4801792 4770569 4732849 4692085 4654071 
2092.040 4625270 4609497 4607019 4614654 4628016 4643254 4659162 4676712 
2095.897 4697478 4721293 4745913 4766816 4779949 4783902 4780987 4777001 
2099.754 4777537 4787553 4807655 4835731 4867763 4900702 4933946 4969135 
2103.612 5008987 5055211 5107441 5163333 5220338 5276211 5331184 5386601 
2107.469 5443972 5502859 5561487 5616564 5665874 5709046 5749302 5790635 
2111.327 5837111 5889872 5946838 6002401 6051486 6090362 6119193 6141205 
2115.184 6160697 6181668 6205834 6232723 6260858 6289567 6319285 6352032 
2119.042 6390061 6434280 6483414 6534572 6584558 6631758 6676271 6720352 
2122.899 6765917 6814146 6864367 6913786 6960078 7002033 7039983 7076287 
2126.756 7112526 7148769 7183566 7213918 7237905 7255560 7269947 7285581 
2130.614 7307685 7339226 7379734 7427020 7477211 7527778 7578654 7630346 
2134.471 7684202 7739886 7795511 7848274 7896758 7941604 7986150 8034110 
2138.329 8087544 8144091 8198179 8242178 8269498 8277097 8267201 8245487 
2142.186 8217899 8188927 8158135 8123024 8079712 8026044 7963134 7893958 
2146.043 7822465 7750410 7677086 7599391 7514427 7420785 7320018 7214356 
2149.901 7105925 6994153 6875543 6746566 6604037 6449514 6286507 6121579 
2153.758 5958763 5798996 5640631 5482290 5327394 5188816 5085684 5041333 
2157.616 5073280 5183887 5358087 5567427 5779655 5967900 6119160 6231950 
2161.473 6311318 6363296 6390061 6390666 6364405 6313032 6243748 6167183 
2165.331 6094092 6031630 5980061 5934746 5888360 5835835 5775122 5707468 
2169.188 5636402 5563836 5489001 5410019 5324845 5234289 5143550 5060608 
2173.045 4992965 4946010 4920239 4911191 4911459 4913872 4912465 4903082 
2176.903 4882373 4847357 4795627 4726116 4641948 4550764 4463984 4393087 
2180.760 4347435 4329765 4336057 4357610 4384452 4409287 4428434 4441824 
2184.618 4449925 4453071 4449757 4438509 4419865 4396401 4375482 4364203 
2188.475 4367951 4387464 4418626 4454042 4485744 4508912 4521568 4525451 
2192.333 4523242 4516713 4506300 4491369 4472220 4450895 4431078 4416350 
2196.190 4409087 4408685 4412434 4416484 4418626 4419296 4421271 4427396 
2200.047 4438978 4453808 4467499 4474295 4472085 4461875 4448686 4439112 
2203.905 4437673 4445171 4457992 4470579 4477074 4475634 4467901 4457959 
2207.762 4450427 4447782 4449757 4454009 4457758 4459867 4461741 4465257 
2211.620 4473123 4486314 4504392 4526925 4553476 4585119 4623160 4668272 
2215.477 4717977 4766582 4807621 4834458 4844912 4841125 4830002 4819046 
2219.334 4814757 4819314 4830538 4843940 4854829 4860995 4863307 4864446 
2223.192 4866791 4871248 4876341 4879725 4880295 4878419 4876643 4878285 
2227.049 4884953 4895877 4907605 4916050 4918865 4915883 4910856 4907840 
2230.907 4910822 4920909 4936090 4952947 4968432 4981301 4992831 5005802 
2234.764 5022629 5043747 5067648 5091450 5112839 5131614 5148948 5167725 
2238.622 5190057 5216817 5246831 5278055 5308409 5337524 5366239 5396297 
2242.479 5428136 5461520 5493900 5522725 5545680 5562561 5574743 5584443 
2246.336 5594277 5605554 5618410 5632575 5647882 5664297 5682793 5703104 
2250.194 5724255 5743996 5760113 5771025 5777640 5782878 5790937 5805477 
2254.051 5827506 5854742 5883155 5906531 5920940 5925072 5920000 5908680 
2257.909 5893600 5876303 5856286 5832879 5805276 5774148 5741948 5711766 
2261.766 5686620 5668426 5657817 5654360 5657583 5667284 5682995 5704514 
2265.624 5729895 5756252 5780192 5798492 5809574 5813738 5812630 5808533 
2269.481 5803127 5796780 5789091 5779756 5769212 5759005 5751618 5749671 
2273.338 5754036 5764545 5779353 5796142 5813268 5830126 5847051 5864783 
2277.196 5883625 5902803 5921142 5937063 5950197 5960577 5969311 5977373 
2281.053 5985268 5992692 5999142 6004450 6009120 6015033 6024003 6037744 
2284.911 6056492 6078837 6102997 6126486 6147623 6165603 6180424 6191919 
2288.768 6200288 6204993 6206170 6204523 6202103 6201700 6206237 6217564 
2292.625 6235345 6257665 6281431 6303989 6324060 6342416 6361177 6382899 
2296.483 6409059 6439862 6473963 6508874 6542611 6573726 6601514 6626005 
2300.340 6647134 6664764 6678256 6687611 6694038 6698715 6704368 6712545 
2304.198 6725029 6741552 6761980 6785605 6812430 6843060 6878943 6920889 
2308.055 6969237 7023011 7080598 7139977 7199736 7259098 7317760 7375656 
2311.913 7432076 7485907 7535801 7580980 7622016 7660932 7700829 7744642 
2315.770 7794768 7851783 7914777 7981426 8049265 8116340 8181634 8244812 
2319.627 8306512 8367512 8428048 8487443 8543940 8594159 8633702 8658140 
2323.485 8663582 8648270 8613626 8564250 8508358 8454805 8412440 8387679 
2327.342 8383220 8397273 8425076 8459637 8494505 8524578 8547354 8562662 
2331.200 8571786 8576923 8580303 8584053 8590103 8600749 8617242 8641409 
2335.057 8673485 8713205 8759217 8809933 8863565 8918487 8973417 9026865 
2338.915 9077409 9123697 9164575 9199669 9229655 9255243 9277279 9295862 
2342.772 9308455 9311299 9298807 9266075 9209822 9131141 9035626 8934113 
2346.629 8840062 8767331 8728452 8732036 8781802 8876991 9012420 9179025 
2350.487 9364449 9556830 9743873 9916420 10069604 10202218 10315903 10413125 
2354.344 10496689 10568759 10631301 10687092 10739291 10791564 10846391 
2357.719 10904148 10963033 11019445 11069509 11110978 11143476 11168566 
2361.095 11188794 11206304 11221808 11235035 11244453 11249588 11250166 
2364.470 11247004 11241121 11232519 11220686 11204400 11182538 11154694 
2367.845 11121686 11085519 11047688 11009046 10969558 10928034 10883559 
2371.220 10835690 10785349 10734298 10684341 10636665 10591099 10546693 
2374.596 10502222 10456705 10410309 10364020 10319874 10279736 10244825 
2377.971 10216057 10194008 10178677 10170400 10169450 10176099 10190243 
2381.346 10211342 10238889 10272237 10310814 10354111 10401451 10451681 
2384.721 10503037 10553143 10599893 10641826 10678772 10711408 10741193 
2388.097 10769316 10796422 10822170 10845644 10865654 10881826 10894295 
2391.472 10904284 10912676 10920423 10927762 10934524 10940844 10946960 
2394.847 10954028 10963542 10976694 10994331 11016761 11043712 11074778 
2398.222 11110434 11151431 11198790 11253465 11315526 11384195 11458352 
2401.598 11536162 11616574 11698701 11782308 11866953 11952227 12037757 
2404.973 12123405 12210025 12299526 12393885 12495461 12605383 12723214 
2408.348 12847698 12976417 13107941 13241691 13378420 13519089 13664488 
2411.723 13813835 13964978 14114497 14259000 14395776 14523550 14641732 
2415.099 14750107 14848499 14936041 15012179 15076564 15130357 15175784 
2418.474 15215863 15252925 15288583 15322974 15354553 15382290 15405360 
2421.849 15424482 15441134 15457339 15475022 15495108 15518253 15544866 
2425.224 15576256 15614723 15663190 15724957 15802195 15895978 16005803 
2428.600 16130544 16268564 16418602 16579984 16752033 16933864 17124596 
2431.975 17322686 17527110 17737190 17953066 18175202 18404122 18640254 
2435.350 18883606 19133780 19390958 19655742 19929254 20212382 20505976 
2438.725 20809260 21120510 21437172 21756362 22075822 22394264 22711192 
2442.101 23027094 23342630 23658608 23976110 24296086 24619526 24947312 
2445.476 25279772 25616280 25955338 26295362 26634422 26971172 27305396 
2448.851 27636912 27965712 28291330 28612452 28927152 29234248 29532198 
2452.226 29821232 30101792 30374754 30640276 30897886 31146074 31383042 
2455.602 31607058 31817320 32013062 32194226 32360152 32509462 32640356 
2458.977 32750212 32837078 32899372 32936684 32949306 32938544 32905374 
2462.352 32851658 32779154 32690190 32587424 32474290 32354902 32233480 
2465.727 32115124 32004502 31907246 31828266 31772650 31744454 31746376 
2469.103 31779424 31843242 31936098 32056186 32201934 32372538 32568316 
2472.478 32789160 33034388 33302438 33589336 33890112 34198732 34508932 
2475.853 34815012 35111932 35395680 35663212 35912628 36142236 36350960 
2479.228 36537368 36699876 36836512 36945016 37023632 37071304 37088948 
2482.604 37078700 37044308 36990260 36921208 36840516 36750788 36653404 
2485.979 36548432 36435740 36315048 36186208 36048876 35903308 35749404 
2489.354 35586676 35415164 35234272 35043576 34842944 34631964 34410292 
2492.729 34177584 33932780 33674724 33402580 33114624 32809704 32486930 
2496.104 32146022 31787302 31411998 31022032 30619620 30206708 29785390 
2499.480 29357460 28924388 28487894 28049930 27612972 27179908 26753022 
2502.855 26335002 25926952 25529370 25141666 24763534 24394002 24033432 
2506.230 23682644 23342944 23016332 22704068 22407556 22127386 21864124 
2509.605 21617910 21388508 21175474 20978088 20794556 20623052 20461482 
2512.981 20308546 20163578 20027160 19900706 19785594 19683374 19594558 
2516.356 19519310 19457174 19407694 19370552 19345330 19331716 19328530 
2519.731 19334660 19348414 19368334 19393800 19424532 19461020 19503888 
2523.106 19553102 19608352 19668224 19731324 19795858 19860436 19924120 
2526.482 19985492 20042810 20094272 20137444 20170106 20190756 20198602 
2529.857 20193778 20176804 20148552 20109368 20059780 19999716 19930054 
2533.232 19851350 19765584 19675122 19582146 19489228 19398130 19310306 
2536.607 19226796 19148254 19075128 19007690 18945558 18888418 18835298 
2539.983 18785682 18738802 18694350 18652222 18612238 18574060 18537438 
2543.358 18501582 18466038 18430602 18394892 18359256 18323792 18288886 
2546.733 18254674 18221260 18188744 18157168 18126556 18096882 18068006 
2550.108 18039578 18011292 17982626 17953584 17924302 17894918 17865708 
2553.484 17836880 17808572 17780886 17754516 17729976 17708646 17691424 
2556.859 17678448 17669336 17662262 17655014 17645042 17630412 17609742 
2560.234 17582414 17548430 17508172 17461774 17409796 17353238 17293480 
2563.609 17232834 17173608 17117874 17066866 17020932 16979274 16941306 
2566.985 16906648 16875438 16848914 16828488 16815332 16809306 16809958 
2570.360 16815678 16824976 16836482 16849706 16864898 16882224 16901894 
2573.735 16924046 16948782 16975862 17005356 17037540 17072036 17108326 
2577.110 17145620 17182606 17218802 17254312 17290274 17328374 17370652 
2580.486 17417866 17470124 17526214 17584280 17642386 17699846 17756724 
2583.861 17814406 17874132 17937286 18004212 18074880 18148770 18225094 
2587.236 18303920 18385006 18468422 18554208 18641810 18730466 18819866 
2590.611 18909528 18999312 19089358 19179420 19269260 19357906 19444214 
2593.987 19527142 19605822 19680148 19750084 19816180 19878854 19938690 
2597.362 19996178 20051972 20106940 20161950 20217972 20275876 20336532 
2600.737 20400636 20469088 20542798 20622394 20708430 20800776 20898150 
2604.112 20999162 21101934 21205324 21309156 21414544 21523196 21637448 
2607.488 21759008 21888622 22026112 22169960 22318704 22470602 22624024 
2610.863 22777776 22931024 23082718 23232054 23378296 23520946 23659726 
2614.238 23794386 23924746 24050382 24170730 24285258 24393756 24496284 
2617.613 24593192 24685212 24772760 24855904 24934294 25007430 25075386 
2620.989 25138154 25196720 25251992 25305270 25357252 25408188 25457690 
2624.364 25505686 25552000 25597126 25641236 25684928 25728310 25770954 
2627.739 25812552 25852500 25890938 25928606 25966698 26006342 26048560 
2631.114 26093420 26140606 26189170 26237742 26285542 26331482 26374856 
2634.490 26415066 26451652 26484300 26512968 26538360 26561328 26583378 
2637.865 26605992 26630512 26657746 26688468 26722752 26760844 26802852 
2641.240 26848740 26898512 26951428 27006960 27064366 27122768 27182484 
2644.615 27244006 27308396 27376746 27449804 27527990 27610782 27697650 
2647.990 27787398 27879708 27974122 28070642 28169130 28269546 28371296 
2651.366 28473706 28575966 28677540 28778218 28878564 28979038 29081026 
2654.741 29185342 29293190 29404790 29520636 29640524 29764666 29892572 
2658.116 30024170 30159468 30298290 30440354 30585132 30731594 30878604 
2661.491 31024666 31168964 31311028 31451180 31590630 31730730 31872980 
2664.867 32018020 32166216 32317140 32469790 32623068 32776292 32928824 
2668.242 33080652 33232004 33383294 33535358 33688868 33845016 34004692 
2671.617 34168512 34336912 34509328 34685184 34863336 35042892 35223240 
2674.992 35404024 35585600 35768044 35951680 36136332 36321960 36508248 
2678.368 36695444 36883800 37074080 37266936 37463488 37664176 37869620 
2681.743 38080372 38297232 38520792 38752036 38991700 39240100 39496980 
2685.118 39762188 40034676 40314244 40600364 40893220 41192540 41498376 
2688.493 41810660 42128868 42452680 42781668 43115848 43454608 43798464 
2691.869 44146964 44500328 44858464 45221748 45590784 45966064 46348380 
2695.244 46738040 47134920 47538592 47948900 48365144 48787168 49214836 
2698.619 49648236 50086644 50529324 50975368 51423392 51872784 52323196 
2701.994 52774488 53226664 53679120 54131076 54580872 55026768 55467328 
2705.370 55901060 56327120 56744604 57152628 57549996 57934692 58305300 
2708.745 58659988 58997888 59318388 59621824 59908440 60179028 60434248 
2712.120 60674756 60901600 61115672 61317596 61507440 61684724 61847944 
2715.495 61995020 62123836 62232152 62318620 62382496 62424196 62444048 
2718.871 62443320 62423848 62388272 62339960 62282976 62222556 62163668 
2722.246 62111144 62069552 62042220 62031976 62041000 62070740 62122228 
2725.621 62196476 62293456 62413020 62554740 62717712 62901124 63103804 
2728.996 63324904 63562996 63816488 64083496 64361772 64649224 64943828 
2732.372 65243988 65548480 65855996 66165432 66475124 66783300 67087904 
2735.747 67386800 67678232 67960104 68231456 68491256 68739688 68977152 
2739.122 69205072 69425104 69639064 69848768 70056080 70262400 70469448 
2742.497 70679240 70894288 71117200 71350736 71596904 71856968 72131000 
2745.873 72418320 72717264 73026216 73342768 73663552 73984536 74300688 
2749.248 74605328 74892720 75156696 75393248 75599792 75776136 75923032 
2752.623 76042152 76135008 76203280 76247824 76269392 76268560 76245184 
2755.998 76198264 76126360 76026840 75897112 75734760 75538160 75306424 
2759.374 75039944 74738928 74404376 74036472 73636272 73205136 72745904 
2762.749 72262704 71761000 71246368 70725056 70202496 69683256 69171976 
2766.124 68672544 68189040 67725520 67285856 66872956 66489488 66137068 
2769.499 65816856 65530060 65277064 65058320 64873456 64721672 64600580 
2772.875 64507468 64438820 64391204 64361116 64345628 64341404 64344400 
2776.250 64350240 64353852 64349824 64333068 64299524 64245312 64168604 
2779.625 64067676 63941584 63790432 63614936 63417532 63201404 62971480 
2783.000 62732800 62490648 62249856 62013404 61783420 61560240 61343052 
2786.375 61129744 60917384 60702572 60481584 60250468 60006772 59748568 
2789.751 59475320 59187972 58888440 58579252 58263200 57943668 57623728 
2793.126 57307236 56997512 56698652 56414192 56147596 55901592 55678660 
2796.501 55480808 55309916 55167680 55055732 54975020 54925984 54908240 
2799.876 54920420 54960844 55027596 55118884 55233068 55368136 55522112 
2803.252 55692444 55876040 56069360 56269520 56473584 56679364 56885468 
2806.627 57090388 57292680 57490004 57680144 57859888 58025876 58175040 
2810.002 58303748 58408840 58487536 58536632 58554340 58538984 58490380 
2813.377 58409332 58297572 58157988 57993952 57808856 57607272 57393748 
2816.753 57173268 56951876 56736148 56532904 56349940 56194168 56072412 
2820.128 55990348 55951940 55959552 56013380 56111664 56250736 56425168 
2823.503 56629384 56856312 57099004 57350908 57604888 57854432 58093560 
2826.878 58316252 58517712 58693936 58841764 58959668 59046892 59104020 
2830.254 59132496 59134964 59114764 59075776 59022216 58958416 58887680 
2833.629 58813312 58737856 58663744 58593624 58529884 58475368 58432420 
2837.004 58403460 58389964 58393832 58416952 58462212 58533712 58636664 
2840.379 58777728 58964448 59204528 59506216 59878468 60330108 60871792 
2843.755 61515000 62271120 63151544 64164452 65312036 66587740 67972200 
2847.130 69432728 70918664 72367160 73706184 74857168 75749984 76328160 
2850.505 76555472 76423048 75947424 75169456 74143248 72933720 71608816 
2853.880 70228592 68848312 67513000 66254580 65095924 64049088 63116944 
2857.256 62294984 61573296 60938848 60376368 59870940 59408832 58977012 
2860.631 58564728 58162992 57764044 57362140 56953272 56535056 56106872 
2864.006 55669168 55223964 54774556 54325460 53883096 53454672 53048528 
2867.381 52673632 52337436 52047000 51807260 51620640 51487256 51404484 
2870.757 51367040 51367040 51394416 51438616 51488112 51533516 51567356 
2874.132 51585788 51587840 51574744 51549336 51513968 51470844 51421120 
2877.507 51365620 51305212 51241264 51175428 51109900 51046576 50986728 
2880.882 50930956 50879804 50833464 50792752 50759160 50734132 50719352 
2884.258 50716332 50725792 50748360 50783888 50832832 50895188 50970596 
2887.633 51058388 51157160 51265016 51379420 51498000 51619108 51741336 
2891.008 51864380 51988544 52114836 52244412 52378480 52518344 52664952 
2894.383 52818976 52980620 53149892 53326456 53510212 53701392 53900652 
2897.759 54108592 54326288 54553860 54791244 55037980 55293280 55557092 
2901.134 55829504 56111320 56403476 56706736 57021200 57347352 57685140 
2904.509 58035612 58401412 58786108 59194880 59633268 60107180 60622600 
2907.884 61185436 61802828 62483376 63236280 64071820 64999512 66025496 
2911.260 67151248 68370856 69671152 71029120 72412800 73785160 75101312 
2914.635 76314888 77383672 78269400 78945752 79400448 79635216 79664952 
2918.010 79513840 79211928 78788808 78269600 77673696 77012176 76288936 
2921.385 75503264 74652232 73734536 72752328 71713552 70631904 69526400 
2924.760 68417048 67325160 66269168 65262280 64313508 63426504 62600508 
2928.136 61831784 61114296 60441904 59807964 59207224 58635904 58092536 
2931.511 57577572 57093560 56644820 56235952 55871628 55556148 55292152 
2934.886 55081384 54923732 54817596 54759372 54743436 54762940 54809476 
2938.261 54874328 54950392 55031696 55115200 55199960 55286768 55377132 
2941.637 55471996 55571400 55673764 55776264 55874192 55961892 56032304 
2945.012 56076596 56086476 56053864 55973124 55842692 55666380 55453552 
2948.387 55217268 54974268 54741256 54531956 54357116 54222364 54128560 
2951.762 54073092 54050612 54055004 54079436 54117940 54165080 54216020 
2955.138 54266740 54313596 54353360 54383368 54401656 54407588 54401768 
2958.513 54386108 54363764 54338152 54312508 54289488 54270232 54255252 
2961.888 54244400 54237380 54234040 54234564 54239104 54247556 54259492 
2965.263 54273836 54289380 54305220 54320916 54336688 54352836 54369996 
2968.639 54388248 54407892 54428584 54450704 54474596 54501264 54532180 
2972.014 54568136 54609728 54656924 54708932 54765156 54824512 54886432 
2975.389 54949636 55012552 55072320 55124980 55165384 55188632 55189388 
2978.764 55163540 55108016 55021580 54904444 54758696 54588084 54397596 
2982.140 54193608 53982548 53770128 53560396 53355040 53152924 52950564 
2985.515 52742988 52525228 52293036 52044044 51777844 51495836 51199996 
2988.890 50892060 50572576 50240092 49891392 49521620 49126412 48702504 
2992.265 48249568 47770624 47272296 46763832 46254676 45753328 45265436 
2995.641 44792412 44332196 43879724 43429116 42974808 42513004 42042644 
2999.016 41564656 41082020 40598180 40116764 39641036 39173152 38714868 
3002.391 38267156 37830396 37404908 36990692 36587684 36195892 35815104 
3005.766 35445544 35087184 34740240 34404696 34080808 33768368 33467174 
3009.142 33176672 32896224 32624460 32360044 32101172 31846166 31593870 
3012.517 31343754 31095990 30851426 30611298 30376708 30148422 29926896 
3015.892 29712222 29504324 29303362 29109334 28922654 28742886 28569384 
3019.267 28401080 28236696 28075236 27916348 27760448 27609052 27463356 
3022.643 27324910 27194514 27072548 26959326 26854980 26760564 26677862 
3026.018 26608846 26555584 26519096 26498598 26491520 26492716 26495710 
3029.393 26492362 26474404 26434538 26367040 26268644 26139164 25981156 
3032.768 25799190 25598884 25386408 25166910 24944716 24722670 24503122 
3036.144 24287362 24076612 23871462 23672218 23478660 23290014 23105362 
3039.519 22923514 22743976 22566432 22391436 22219688 22052396 21890886 
3042.894 21735950 21588692 21449704 21319214 21196696 21081308 20971586 
3046.269 20865956 20763378 20663220 20565866 20472422 20383758 20300458 
3049.645 20222136 20147406 20074110 20000306 19924572 19846354 19766312 
3053.020 19685280 19604436 19524542 19446016 19369304 19294962 19223818 
3056.395 19157014 19095520 19039606 18989206 18943376 18901188 18861840 
3059.770 18825230 18791738 18762328 18737660 18718012 18703448 18693692 
3063.146 18688434 18687640 18691376 18699574 18711716 18726486 18742296 
3066.521 18757348 18770112 18779696 18785508 18787344 18784124 18774748 
3069.896 18757242 18729844 18691306 18642052 18583636 18518974 18451448 
3073.271 18384038 18318850 18256954 18198144 18142068 18087660 18034294 
3076.646 17981384 17928548 17875514 17822312 17768874 17715376 17661986 
3080.022 17608810 17555538 17501754 17446978 17391104 17334202 17277310 
3083.397 17221318 17167508 17116426 17068486 17023446 16981030 16941202 
3086.772 16904546 16871786 16843576 16820120 16800868 16784680 16770318 
3090.147 16756784 16743906 16732404 16722968 16716529 16713360 16712742 
3093.523 16713774 16715566 16717734 16720558 16725207 16732506 16743250 
3096.898 16757129 16773246 16790362 16807204 16822842 16837204 16850602 
3100.273 16863554 16876678 16890664 16905994 16923356 16943098 16965456 
3103.648 16990368 17017278 17044914 17072278 17098262 17122354 17144860 
3107.024 17165990 17186536 17206910 17227250 17247554 17267690 17287894 
3110.399 17308444 17329996 17353170 17377998 17404382 17431766 17459912 
3113.774 17488198 17516450 17544464 17571752 17597630 17621026 17640626 
3117.149 17655638 17665610 17670718 17671648 17669094 17663816 17656326 
3120.525 17646768 17635208 17622268 17608672 17595424 17583726 17574238 
3123.900 17567546 17563854 17562854 17564578 17568788 17575306 17583932 
3127.275 17594182 17605222 17616402 17627202 17636932 17645630 17653360 
3130.650 17660398 17667026 17673650 17680552 17688352 17697810 17709716 
3134.026 17724798 17743470 17765596 17790726 17818238 17847238 17876998 
3137.401 17907278 17937630 17967950 17998132 18027938 18057782 18087972 
3140.776 18119200 18152226 18187500 18224922 18264142 18304092 18343666 
3144.151 18382482 18420058 18456738 18492938 18529310 18566002 18603350 
3147.527 18641186 18679720 18719326 18760358 18803672 18849314 18897658 
3150.902 18947806 18999106 19050340 19100816 19149986 19197118 19242452 
3154.277 19286060 19328356 19370102 19412092 19454992 19499556 19545928 
3157.652 19593690 19642602 19691626 19740340 19788854 19837440 19886936 
3161.028 19938136 19991980 20048640 20108570 20172048 20239112 20310074 
3164.403 20384730 20462628 20542416 20622566 20701342 20777314 20849722 
3167.778 20918386 20983790 21046284 21106074 21163124 21217362 21268720 
3171.153 21318136 21366930 21417190 21470380 21527550 21588624 21652110 
3174.529 21716024 21778378 21837678 21893220 21945040 21994184 22041696 
3177.904 22088478 22135860 22184466 22235450 22289508 22347378 22409544 
3181.279 22476082 22546224 22619066 22693386 22768102 22842204 22915550 
3184.654 22988138 23060706 23134192 23209300 23286832 23366862 23448968 
3188.030 23532246 23615572 23698180 23779652 23860400 23941378 24024012 
3191.405 24109466 24198546 24291286 24387376 24485978 24586284 24687982 
3194.780 24790544 24893588 24996656 25099046 25199740 25298210 25394664 
3198.155 25489700 25584684 25681236 25780660 25883832 25990796 26101090 
3201.531 26213984 26328454 26443942 26559530 26674656 26788614 26901086 
3204.906 27011754 27120722 27228872 27336482 27444508 27552808 27661384 
3208.281 27769596 27876988 27983452 28089624 28196564 28304804 28415336 
3211.656 28528230 28643172 28759382 28876510 28994092 29112134 29230776 
3215.031 29350120 29469606 29589088 29707752 29825632 29942694 30059146 
3218.407 30175238 30290972 30405882 30519722 30631992 30743082 30853772 
3221.782 30965346 31078834 31194808 31313200 31433300 31553998 31674486 
3225.157 31794504 31914308 32034394 32155010 32276090 32397170 32517176 
3228.532 32635606 32751926 32866202 32978762 33089594 33198736 33305944 
3231.908 33410382 33512272 33611608 33709492 33807048 33905624 34006268 
3235.283 34109120 34214292 34320780 34427544 34533544 34637672 34739092 
3238.658 34837596 34933604 35028276 35123108 35219864 35319840 35423616 
3242.033 35530256 35638648 35746960 35854148 35960284 36066372 36174356 
3245.409 36286012 36402628 36524428 36650520 36779568 36910348 37042072 
3248.784 37174632 37308060 37442936 37579080 37716396 37854616 37993608 
3252.159 38133220 38273564 38414464 38555368 38695452 38833660 38969412 
3255.534 39103140 39236036 39369812 39506492 39647168 39792040 39940040 
3258.910 40089400 40238776 40386824 40533388 40678440 40822744 40966688 
3262.285 41110540 41254696 41399660 41546208 41695500 41848200 42004792 
3265.660 42164576 42326352 42488636 42650500 42811724 42972908 43135572 
3269.035 43301304 43470572 43643244 43818076 43993268 44167064 44338580 
3272.411 44507596 44675172 44842260 45010300 45180420 45353072 45528448 
3275.786 45706540 45887140 46070464 46256484 46445680 46637944 46833508 
3279.161 47031964 47232984 47435620 47639304 47843272 48047372 48251720 
3282.536 48457084 48664808 48876044 49091948 49313560 49541044 49774368 
3285.912 50012988 50256200 50503084 50752756 51004132 51256404 51509264 
3289.287 51762428 52016704 52273040 52532368 52795740 53064216 53337880 
3292.662 53616964 53901628 54191768 54487780 54789820 55097820 55411616 
3296.037 55730416 56053488 56379972 56709828 57042740 57379380 57719952 
3299.413 58065040 58414488 58768316 59126728 59489724 59858200 60232464 
3302.788 60613380 61001380 61396896 61799732 62210396 62629216 63056604 
3306.163 63492888 63938124 64391820 64853340 65321624 65796308 66277616 
3309.538 66765948 67262024 67766376 68278760 68798848 69326168 69860520 
3312.914 70402968 70954360 71516064 72089024 72673200 73267808 73871632 
3316.289 74483464 75102648 75729032 76363160 77004896 77654160 78309912 
3319.664 78970872 79635656 80303256 80973208 81644952 82317736 82990400 
3323.039 83661896 84331176 84997896 85663032 86327680 86993272 87659920 
3326.415 88326456 88990160 89647536 90295312 90930496 91551792 92158128 
3329.790 92748832 93323192 93879776 94416928 94933640 95428464 95900928 
3333.165 96349952 96773856 97169944 97535536 97867896 98165744 98429544 
3336.540 98661400 98864224 99040576 99191808 99317440 99415784 99483936 
3339.916 99519064 99518648 99480352 99402416 99283416 99122784 98920512 
3343.291 98677456 98395216 98075080 97717864 97322520 96887152 96409360 
3346.666 95887544 95322072 94715712 94073088 93399200 92699520 91977384 
3350.041 91234248 90470880 89687296 88883744 88061296 87221488 86366080 
3353.417 85496784 84615008 83722280 82820840 81913744 81004712 80097976 
3356.792 79197176 78305584 77425328 76557408 75702728 74861776 74035176 
3360.167 73223880 72428304 71648680 70884568 70135352 69399992 68677432 
3363.542 67966576 67267016 66578312 65900608 65234900 64582632 63945652 
3366.917 63326284 62726632 62147612 61588988 61049464 60526796 60018180 
3370.293 59521568 59035312 58558512 58091288 57633340 57184720 56744568 
3373.668 56312332 55886552 55466840 55052308 54642868 54238356 53839100 
3377.043 53445564 53058112 52677520 52304396 51939212 51581608 51230340 
3380.418 50883976 50540268 50197652 49854896 49511480 49167452 48823988 
3383.794 48481828 48141720 47804432 47470728 47141348 46817340 46499960 
3387.169 46189736 45886768 45590600 45299416 45011032 44722880 44433008 
3390.544 44140288 43844536 43546604 43248516 42952712 42661940 42377968 
3393.919 42101708 41832880 41569688 41309860 41050884 40791152 40530116 
3397.295 40268692 40008664 39751952 39499848 39252608 39009464 38769172 
3400.670 38530564 38293072 38056968 37822912 37591476 37362616 37135036 
3404.045 36907172 36677556 36445180 36210768 35975688 35742784 35514040 
3407.420 35291232 35074536 34863192 34655580 34449924 34244908 34039736 
3410.796 33834340 33629112 33424520 33221308 33019874 32820496 32623462 
3414.171 32428444 32235228 32043204 31851764 31660620 31469632 31279228 
3417.546 31089904 30902440 30717298 30534972 30355282 30178576 30004750 
3420.921 29834150 29666918 29503188 29342782 29184916 29028632 28872650 
3424.297 28715874 28557884 28398604 28238428 28077996 27918078 27759704 
3427.672 27603474 27450084 27299928 27153242 27009744 26869044 26730574 
3431.047 26593452 26457428 26322540 26188748 26056968 25927234 25799786 
3434.422 25674242 25550068 25426386 25302950 25179656 25056782 24934398 
3437.798 24813102 24692998 24573662 24454674 24335228 24215080 24093914 
3441.173 23971698 23848640 23725336 23602384 23479816 23357804 23235550 
3444.548 23112246 22986356 22856768 22722886 22585314 22445864 22307612 
3447.923 22173796 22046960 21928104 21816494 21709754 21605060 21499278 
3451.299 21390668 21278114 21162254 21043746 20923566 20802132 20679414 
3454.674 20555548 20430502 20305388 20181454 20060056 19942334 19828562 
3458.049 19718114 19609844 19502224 19393730 19283566 19171630 19057990 
3461.424 18943618 18829312 18716110 18604664 18495114 18387460 18281146 
3464.800 18175650 18070078 17964290 17858458 17753446 17650322 17550122 
3468.175 17452980 17358376 17265172 17171850 17077274 16980892 16882878 
3471.550 16784094 16685022 16585974 16486535 16385742 16282462 16176041 
3474.925 16066622 15955200 15843226 15732447 15623790 15518562 15416688 
3478.301 15318066 15221970 15127303 15033307 14938167 14841299 14741846 
3481.676 14640498 14538660 14438625 14342656 14252461 14168411 14089682 
3485.051 14014151 13939008 13861827 13780897 13695741 13606637 13514713 
3488.426 13421169 13327201 13233629 13141374 13051359 12964367 12880941 
3491.802 12801286 12724613 12649898 12575674 12500200 12422729 12342748 
3495.177 12260601 12176936 12092844 12008836 11926003 11844887 11765694 
3498.552 11689205 11615416 11544227 11475056 11406917 11338516 11268631 
3501.927 11196546 11122026 11045751 10968640 10892359 10817992 10746288 
3505.302 10677346 10610453 10544316 10477578 10409223 10338909 10266945 
3508.678 10194755 10124103 10056413 9992938 9933370 9877132 9822631 9768746 
3512.535 9714766 9661030 9608351 9557677 9509413 9462847 9416049 9366888 
3516.393 9313567 9255006 9192189 9127656 9064655 9006940 8956606 8914361 
3520.250 8878884 8847502 8816561 8782681 8743632 8698230 8646986 8591387 
3524.107 8533498 8475212 8417643 8361263 8305803 8250721 8195478 8139735 
3527.965 8084000 8029081 7975182 7923651 7874523 7828234 7784918 7744845 
3531.822 7707642 7673612 7641609 7610215 7577609 7541735 7500976 7455165 
3535.680 7404842 7352133 7299429 7248586 7200881 7156280 7114008 7073492 
3539.537 7034292 6997116 6962772 6932706 6907053 6885440 6865781 6845719 
3543.395 6822326 6793178 6756831 6713083 6662510 6606661 6548094 6489569 
3547.252 6433742 6383033 6338348 6299685 6265262 6232286 6197767 6159319 
3551.109 6116035 6068152 6018157 5968303 5920806 5876807 5836271 5798190 
3554.967 5761422 5725061 5689038 5653320 5618007 5582093 5544908 5505141 
3558.824 5461620 5414984 5366205 5317834 5272086 5231237 5196194 5167122 
3562.682 5142846 5121188 5099395 5074353 5042372 4999803 4943832 4873024 
3566.539 4788826 4695468 4599417 4507774 4425924 4356739 4299914 4252934 
3570.396 4211914 4173741 4135839 4096669 4056099 4014195 3971826 3929160 
3574.254 3886800 3844009 3801022 3757037 3711151 3662831 3611475 3557220 
3578.111 3500900 3444354 3389284 3338195 3292453 3253093 3220278 3193608 
3581.969 3173014 3158428 3149484 3145746 3145178 3144444 3139071 3123385 
3585.826 3092983 3045132 2980872 2904812 2824431 2748199 2682916 2632109 
3589.684 2596242 2572910 2557978 2547212 2536314 2521950 2501587 2473561 
3593.541 2438007 2396092 2350283 2303979 2260045 2221178 2188607 2162000 
3597.398 2140456 2121477 2103131 2083155 2060615 2035215 2007918 1980423 
3601.256 1954761 1932861 1916087 1904839 1898649 1896153 1895321 1893557 
3605.113 1888266 1876186 1854722 1821548 1775899 1719178 1655180 1589628 
3608.971 1529041 1478868 1441201 1414706 1395127 1376812 1354243 1325028 
3612.828 1289501 1251916 1217658 1191875 1177555 1174365 1178352 1184266 
3616.686 1186293 1179216 1159714 1127090 1082877 1030796 975533 922104 
3620.543 874657 836080 807531 789141 780344 780245 787946 803282 825656 
3624.883 854571 887606 920510 947539 960291 950395 912276 845940 760130 
3629.222 670023 592277 538098 509535 501474 505289 512156 515606 511924 
3633.562 501574 487177 471488 456959 443825 430326 414671 395104 371525 
3637.901 345858 320557 298275 280802 268037 259019 252355 246985 243437 
3642.241 243305 248510 261075 281366 308189 338861 369535 396298 415567 
3646.581 424621 421702 406280 378124 337568 285842 226132 163149 103622 
3650.920 54840 21603 6693 8714 23956 46356 70117 89636 101932 106240 105379 
3656.224 104683 109687 124535 149725 183004 219137 251958 276061 287168 
3660.564 283753 266976 240752 210319 181380 158774 145515 143394 152377 
3664.903 172563 203656 245194 295987 355043 419513 487509 558833 637668 
3669.243 734075 864166 1046805 1295981 1619626 2017039 2483292 3010465 
3673.100 3587587 4198430 4807722 5358188 5774988 5979725 5925878 5617772 
3676.958 5102982 4449087 3721177 2978336 2266373 1624248 1083010 658142 
3680.815 349804 142466 11961 -68018 -118968 -153118 -175574 -186802 -186504 
3685.155 -176402 -161564 -148448 -144374 -154410 -179979 -218066 -262574 
3689.012 -306216 -343066 -369949 -386402 -393652 -393387 -387660 -378226 
3692.870 -367367 -356309 -346774 -339689 -335783 -334789 -336941 -341444 
3696.727 -347569 -354323 -360845 -366639 -372498 -379682 -390607 -407721 
3700.584 -432482 -464357 -499870 -533031 -558347 -571186 -570061 -556394 
3704.442 -534156 -507482 -479615 -452044 -425199 -398055 -370744 -344556 
3708.299 -322738 -310156 -311613 -330750 -368360 -421955 -485705 -551530 
3712.157 -611654 -659396 -690659 -704983 -703428 -689204 -665781 -636270 
3716.014 -603349 -568803 -533329 -497388 -460881 -424736 -390640 -360944 
3719.872 -338663 -326082 -324228 -331975 -346675 -364586 -382264 -397360 
3723.729 -409939 -421128 -433772 -449561 -469586 -492953 -516881 -537101 
3727.586 -549941 -552622 -544514 -527703 -505761 -483851 -466376 -456347 
3731.444 -453897 -456082 -458134 -455983 -448800 -439698 -435759 -443967 
3735.301 -468957 -509335 -558049 -603647 -636369 -651357 -648677 -632564 
3739.159 -608246 -580120 -550603 -519694 -487426 -455354 -428410 -414176 
3743.016 -421988 -457770 -519165 -593356 -659859 -700947 -710408 -692578 
3746.874 -658470 -619826 -587268 -567215 -561656 -569267 -586440 -609437 
3750.731 -635410 -662705 -688939 -710243 -721986 -720167 -703792 -675111 
3754.588 -639314 -602819 -571020 -547856 -534222 -529457 -531542 -538922 
3758.446 -550438 -565230 -582139 -598021 -608941 -611191 -603150 -586176 
3762.303 -565130 -545904 -534586 -534255 -544647 -562152 -580848 -595705 
3766.161 -603911 -606293 -606459 -608312 -614301 -624855 -637825 -650133 
3770.018 -658304 -660984 -658205 -650794 -640273 -627337 -612150 -594150 
3773.875 -573502 -550504 -525783 -500764 -476603 -454725 -436520 -423180 
3777.733 -416262 -416030 -421889 -432382 -444298 -454725 -461709 -464986 
3781.590 -466773 -469950 -477497 -491397 -511354 -535248 -559439 -580286 
3785.448 -595010 -602323 -602720 -597294 -587665 -575256 -561523 -547757 
3789.305 -535248 -524956 -517344 -511619 -505827 -497917 -486069 -469884 
3793.163 -451018 -433011 -420135 -415997 -422617 -438274 -459193 -478589 
3797.020 -490504 -491397 -481170 -463264 -444861 -433905 -438274 -463000 
3800.877 -507648 -564634 -621117 -663068 -681297 -673688 -645104 -604441 
3804.735 -562450 -528365 -508409 -503544 -509137 -516517 -517047 -505629 
3808.592 -482362 -452110 -420300 -391898 -368757 -349589 -331114 -309891 
3812.450 -284793 -257805 -234525 -222106 -227836 -255057 -301315 -356210 
3816.307 -405901 -437778 -444663 -428211 -395837 -358958 -329558 -317208 
3820.165 -327009 -356938 -397426 -433640 -453599 -449992 -424438 -383555 
3824.022 -337372 -295256 -263964 -246844 -243268 -249063 -258633 -266945 
3827.879 -271448 -272342 -271812 -272971 -278137 -288170 -301779 -316248 
3831.737 -328101 -334326 -332604 -322407 -304626 -281283 -255686 -231412 
3835.594 -212271 -201441 -200778 -209356 -224988 -242837 -258633 -268865 
3839.452 -273170 -273104 -271316 -271249 -275024 -283501 -296150 -310520 
3843.309 -324128 -334160 -338299 -335650 -326976 -313765 -298633 -283832 
3847.167 -270488 -258467 -244957 -226610 -199785 -162492 -116417 -67654 
3851.024 -26572 -5864 -18885 -72623 -163717 -275289 -382893 -464919 -510792 
3855.364 -521845 -507118 -476305 -436752 -392725 -346112 -297739 -248798 
3859.221 -201772 -159477 -125493 -102040 -89518 -86438 -90579 -99457 -111051 
3863.561 -124897 -140035 -154344 -164909 -167659 -160007 -142055 -117212 
3867.418 -92467 -75439 -73253 -89154 -120823 -159742 -193989 -214655 -217867 
3871.758 -207137 -189816 -174647 -168188 -173024 -187365 -205448 -220914 
3875.615 -228299 -225517 -213860 -196572 -177893 -161796 -151263 -147620 
3879.472 -150799 -158451 -167360 -173157 -171699 -160935 -140896 -114297 
3883.330 -86438 -63778 -52746 -56953 -76002 -104061 -132317 -151727 -156828 
3887.669 -147686 -128905 -107407 -90645 -84582 -91738 -110918 -137650 
3891.527 -165638 -189220 -204289 -209588 -205283 -191869 -169878 -139339 
3895.384 -100782 -55197 -5268 45130 91525 129606 156023 169944 172397 166033 
3900.206 154166 139450 123474 106273 86753 63986 37211 6825 -25512 -57152 
3905.028 -85378 -107606 -122644 -130031 -130230 -124168 -113270 -98363 
3908.885 -80276 -59935 -37704 -14081 9940 33665 56198 76513 94375 109554 
3913.707 121718 131064 137329 139848 138621 133119 123872 111908 98286 84533 
3918.529 71741 61103 52984 48444 47980 52023 60540 72669 86786 100540 111543 
3923.833 117807 118768 115023 108560 102064 97458 96497 99247 105544 114228 
3928.655 124469 135075 145118 153139 158044 158376 153338 143195 128976 
3932.994 112968 97093 83439 72735 64914 59380 55271 52023 49173 47351 46655 
3938.298 47218 48974 51095 53415 55403 56762 57657 58154 58220 57955 57822 
3943.602 58651 61467 67631 78037 92486 110118 128612 145515 158409 166099 
3948.424 168187 165900 160862 154995 149095 143958 139350 134975 130236 
3952.763 125165 119696 113764 107798 102396 98187 96198 97292 102164 110582 
3957.585 121320 132490 142234 148963 152145 152410 151515 151216 152874 
3961.925 156586 161889 167425 171635 173988 174518 174286 174253 175811 
3966.264 179325 184496 190595 196297 200672 202927 203126 201766 199844 
3970.604 198319 198021 199744 203358 208429 214463 220994 227690 235017 
3974.944 243736 254278 266711 280736 295059 307791 317639 323376 325133 
3979.283 323409 319562 314887 309880 304873 299336 292804 284913 275795 
3983.623 266147 256632 248278 241581 237072 234917 234884 236608 239658 
3987.962 243437 247217 250466 253052 255240 258058 262235 268866 277984 
3992.302 288991 300497 310842 318137 321386 320391 315550 307924 298772 
3996.642 289721 282095 277055 275132 276657 281133 287002 293003 297247 
##END=
