
##TITLE=1708_2_c
##JCAMP-DX=5.01  $$ Nicolet v. 1
##DATATYPE=INFRARED SPECTRUM
##ORIGIN=UniL
##OWNER=Nicolet
##LONGDATE=2011/09/08
##TIME=13:27:36
##SPECTROMETER/DATA SYSTEM=Nicolet iS5
##DATA PROCESSING=
Ratio against background
%Transmittance->Absorbance
Truncated
ElementMultiply or ElementDivide
##COMMENTS=
Number of sample scans: 32
Collection length: 51.17 sec
Sample gain: 2.0
Background collected on: Jeu Sep 08 13:21:44 2011 (GMT+02:00);
Number of background scans: 32
Background gain: 2.0
Sample spacing:  1.000
Number of scan points: 12415
Resolution points: 8192
Number of FFT points: 65536
Apodization: N-B fort;
Phase correction: Mertz;
Laser frequency: 15798.0 cm-1
Number of rejected sample scans: 0
Number of rejected background scans: 0
Bench serial number: ASB1000141;
##RESOLUTION=4.000
##XUNITS=1/CM
##YUNITS=ABSORBANCE
##FIRSTX=649.893372
##LASTX=4000.122314
##FIRSTY=0.104793
##MAXX=4000.122314
##MINX=649.893372
##MAXY=0.282951
##MINY=-0.000934
##XFACTOR=1.000000
##YFACTOR=1.000000E-009
##NPOINTS=6950
##DELTAX=0.482117
##ZPD=6100
##XYDATA=(X++(Y..Y))
649.893 104793136 104725320 104738144 104843128 105028000 105265352 
652.786 105527624 105803504 106100712 106442232 106850136 107332304 
655.679 107878848 108469384 109084488 109719872 110388104 111111152 
658.571 111905928 112772392 113691848 114636608 115588696 116550848 
661.464 117548496 118617352 119788120 121067648 122438712 123866784 
664.357 125319984 126778960 128229808 129650008 130978600 132085744 
667.250 132790896 132922040 132411256 131343944 129898264 128241568 
670.142 126462472 124579712 122574464 120428656 118156336 115808872 
673.035 113455448 111167472 108988408 106926880 104968424 103093440 
675.928 101294664 99582568 97978200 96500384 95155224 93932504 92809752 
679.302 91762656 90774560 89838080 88953272 88121520 87340504 86603152 
682.677 85901208 85228776 84586264 83979184 83413816 82892096 82409376 
686.052 81954408 81514088 81080064 80650056 80228008 79819824 79427336 
689.427 79045832 78663976 78267576 77845968 77395704 76921624 76433008 
692.802 75940680 75453160 74976192 74516072 74082568 73689232 73353088 
696.177 73086320 72890176 72749232 72631136 72493256 72288768 71981664 
699.551 71554784 71011872 70375968 69681544 68968456 68271040 67615280 
702.926 67017144 66482112 66007756 65586092 65207064 64860648 64538032 
706.301 64234056 63947036 63677920 63429340 63204356 63005416 62833680 
709.676 62692104 62587424 62532356 62548004 62658532 62885500 63238852 
713.051 63706168 64248504 64797096 65271372 65588132 65681740 65522588 
716.425 65119632 64520888 63797148 63038060 62337360 61779140 61444836 
719.800 61402548 61697824 62345660 63310376 64498552 65745688 66846056 
723.175 67585584 67772152 67297544 66156744 64458080 62387468 60172288 
726.550 58032732 56122408 54524816 53251944 52266316 51505724 50908116 
729.925 50427756 50031948 49700244 49418208 49171940 48950140 48746428 
733.300 48560712 48398740 48268640 48176444 48122660 48103040 48109368 
736.674 48135580 48178004 48237200 48314264 48410076 48522252 48646984 
740.049 48780796 48923324 49077740 49249908 49444124 49660420 49891692 
743.424 50124532 50342248 50526684 50660592 50728996 50715664 50604672 
746.799 50380164 50029756 49550628 48952772 48262456 47516120 46756044 
750.174 46022644 45345056 44742236 44221320 43782344 43421464 43134292 
753.548 42917344 42768140 42684420 42662852 42698240 42781960 42901912 
756.923 43041096 43180108 43300828 43388696 43437504 43452116 43446440 
760.298 43439372 43449112 43488812 43562504 43667680 43797548 43947364 
763.673 44117912 44319536 44571660 44907220 45371100 46015572 46899352 
767.048 48070656 49547580 51296780 53218240 55150976 56878252 58187616 
770.423 58918264 59004644 58507364 57600500 56534756 55545004 54801060 
773.797 54354528 54132952 53965888 53642344 52994656 51932076 50477480 
777.172 48744948 46912016 45162736 43638372 42428968 41557436 40996804 
780.547 40688524 40567072 40575952 40670764 40824892 41023788 41260816 
783.922 41534504 41846380 42199664 42598008 43044756 43542248 44091692 
787.297 44694856 45355724 46080520 46879752 47766260 48752768 49852332 
790.671 51076092 52434444 53938728 55602580 57441136 59471104 61706032 
794.046 64151472 66801308 69635136 72617152 75696056 78814752 81912664 
797.421 84935440 87851448 90659944 93405608 96172496 99086232 102286560 
800.796 105886544 109944056 114412880 119126552 123769800 127922368 
803.689 131130440 132951824 133092256 131467920 128240768 123779976 
806.581 118582128 113174664 107958328 103168136 98842504 94861288 91014496 
809.956 87090152 82959960 78602504 74109248 69633384 65355664 61427852 
813.331 57941700 54934860 52393172 50272640 48513692 47058104 45854656 
816.706 44857104 44028764 43340216 42768944 42301812 41931984 41656804 
820.081 41474932 41382892 41375060 41445624 41590288 41808508 42103932 
823.455 42482460 42949788 43509284 44160388 44898660 45716404 46601052 
826.830 47535932 48499392 49464284 50403532 51296036 52134148 52930464 
830.205 53721788 54570800 55553816 56758616 58273240 60165252 62473012 
833.580 65180772 68207496 71383696 74451960 77108528 79009264 79852872 
836.955 79452888 77767608 74928936 71200928 66947288 62534728 58274756 
840.329 54408228 51066292 48292412 46063684 44318728 42979164 41963548 
843.704 41201936 40632052 40201336 39871644 39615300 39417516 39273828 
847.079 39185300 39153716 39177760 39251560 39366872 39516396 39696000 
850.454 39905896 40148748 40427040 40740596 41086724 41461152 41861632 
853.829 42289392 42750116 43251300 43800372 44403060 45062860 45782856 
857.204 46569224 47431664 48385596 49450696 50648752 52006100 53552640 
860.578 55320868 57347504 59663676 62282404 65181768 68290312 71480360 
863.953 74558120 77300408 79475840 80874240 81360376 80885464 79503216 
867.328 77351600 74639568 71612808 68497848 65497732 62761628 60373628 
870.703 58370560 56747364 55475236 54512308 53815396 53347060 53072604 
874.078 52963664 52996492 53149892 53408504 53763380 54213056 54763204 
877.452 55424188 56206572 57114612 58141548 59263656 60441672 61618508 
880.827 62724800 63693308 64461804 64988508 65261432 65300592 65155780 
884.202 64892464 64585588 64299368 64078344 63947952 63915060 63975752 
887.577 64123476 64354280 64667836 65064936 65543316 66094784 66704088 
890.952 67352632 68020440 68690008 69349112 69987712 70597920 71171608 
894.327 71699480 72172784 72585192 72933600 73218464 73443096 73613384 
897.701 73737440 73825248 73891784 73954288 74031328 74139584 74288448 
901.076 74478624 74701264 74942488 75186680 75422808 75647544 75865824 
904.451 76089760 76334600 76617920 76958024 77372304 77879704 78498640 
907.826 79244184 80128896 81159336 82336560 83658440 85121792 86724904 
911.201 88468728 90355896 92389576 94572992 96910224 99409536 102088256 
914.575 104973312 108103264 111523416 115275728 119394112 123893312 
917.468 128763112 133958768 139393936 144941008 150407040 155545952 
920.361 160078448 163694480 166128544 167210224 166911440 165380528 
923.254 162938496 160066192 157295936 155176208 154198432 154688016 
926.146 156789584 160411408 165246224 170763088 176276064 181091584 
929.039 184540048 186132928 185638048 183067136 178646256 172716944 
931.932 165684272 157927056 149770544 141507520 133377808 125587448 
934.824 118324552 111734816 105930176 100987184 96939344 93792096 91529256 
938.199 90120640 89523048 89673528 90485776 91828928 93525504 95371632 
941.574 97129584 98572288 99519808 99847064 99514520 98563936 97111432 
944.949 95316464 93353640 91395632 89575048 87982040 86663904 85627672 
948.324 84855192 84314600 83973392 83801760 83774920 83873624 84079376 
951.698 84373944 84741000 85166168 85639496 86155640 86711968 87306024 
955.073 87933520 88586984 89258376 89941104 90632056 91332784 92046720 
958.448 92777376 93525376 94287392 95058336 95833576 96611824 97395368 
961.823 98188968 98997160 99821592 100660824 101511024 102368712 103233192 
965.198 104106384 104991664 105890984 106803728 107726080 108653848 
968.090 109584928 110521296 111469016 112435424 113425376 114439272 
970.983 115472872 116520424 117577768 118645616 119729184 120836216 
973.876 121973176 123142088 124340528 125564232 126810416 128080400 
976.768 129379720 130714016 132086408 133493216 134924800 136366608 
979.661 137804704 139228048 140628032 141997104 143325520 144598528 
982.554 145800368 146916400 147939568 148873040 149729408 150526672 
985.447 151281248 152005408 152706384 153388720 154059472 154730368 
988.339 155416464 156133920 156894048 157700704 158550448 159436896 
991.232 160355232 161304928 162289664 163313248 164376224 165472512 
994.125 166591120 167719680 168850288 169981952 171119808 172270416 
997.017 173437168 174616912 175801568 176981888 178153248 179318400 
999.910 180486544 181669408 182874800 184104688 185356720 186628064 
1002.803 187920480 189243200 190609776 192034256 193523776 195076512 
1005.695 196683424 198334544 200024912 201758000 203544192 205394768 
1008.588 207314720 209299104 211332608 213394512 215465760 217529632 
1011.481 219570800 221572064 223506704 225339696 227034896 228561264 
1014.374 229905232 231074144 232094448 233000832 233827744 234604256 
1017.266 235351184 236087328 236834592 237617392 238461840 239388448 
1020.159 240405520 241509296 242689536 243939088 245262432 246680064 
1023.052 248220928 249917184 251790432 253846560 256076576 258462496 
1025.945 260984512 263620976 266346640 269124224 271892256 274568928 
1028.838 277052960 279231296 281000480 282265376 282939904 282950752 
1031.731 282227232 280709056 278362496 275189952 271243968 266620272 
1034.624 261454224 255897520 250094352 244187392 238303856 232556800 
1037.517 227059968 221914832 217209200 213019104 209395184 206366832 
1040.410 203943536 202112784 200836704 200040096 199608912 199372128 
1043.303 199104000 198563152 197499120 195706032 193069936 189575808 
1046.196 185317824 180465408 175246688 169898112 164627632 159615056 
1049.089 154984320 150805056 147104000 143867728 141055712 138609008 
1051.982 136466304 134568944 132866832 131323592 129911992 128609824 
1054.875 127398224 126257000 125165072 124105000 123061720 122025008 
1057.768 120988488 119945712 118888696 117808168 116694784 115542992 
1060.661 114354712 113140136 111916000 110701672 109517896 108381128 
1063.554 107305320 106301616 105377976 104538640 103780528 103090872 
1066.448 102443840 101801072 101120528 100359504 99485736 98484736 97360744 
1069.823 96136360 94844760 93527600 92226064 90974864 89803288 88729992 
1073.198 87763400 86902312 86137376 85453536 84832432 84257584 83715288 
1076.573 83195656 82692440 82200088 81711776 81220376 80718320 80201104 
1079.948 79669776 79132048 78602144 78096480 77632768 77226456 76889592 
1083.324 76632616 76464696 76394528 76431312 76582544 76853400 77246096 
1086.699 77760000 78393488 79144416 80010680 80988304 82067816 83233344 
1090.074 84460672 85719656 86982256 88226248 89440432 90626224 91793480 
1093.449 92953952 94113704 95269336 96407000 97507792 98552872 99534064 
1096.825 100458544 101353704 102261528 103231344 104308344 105514568 
1099.718 106836232 108210296 109532176 110656312 111417880 111674472 
1102.611 111318584 110308520 108673128 106507776 103954392 101167744 
1105.504 98309408 95516976 92891728 90505080 88391432 86556072 84981856 
1108.879 83636392 82479720 81466288 80554192 79705880 78888096 78075616 
1112.254 77247720 76388608 75488008 74541320 73551600 72528136 71487624 
1115.630 70450856 69438056 68468560 67557560 66714600 65945268 65251648 
1119.005 64632876 64086220 63606800 63187420 62818868 62491296 62194296 
1122.380 61917484 61650620 61381212 61092292 60763204 60367952 59879192 
1125.755 59275160 58542056 57680256 56703864 55640804 54527448 53400672 
1129.131 52296248 51240964 50250956 49332568 48483276 47694992 46956756 
1132.506 46257660 45589056 44945364 44324968 43729460 43163092 42630540 
1135.881 42136280 41683320 41272988 40905924 40582136 40302140 40067200 
1139.256 39878360 39736120 39639620 39586772 39574644 39601036 39665176 
1142.632 39767564 39909564 40091760 40312720 40568272 40852448 41158220 
1146.007 41478976 41810296 42148728 42491888 42837540 43183292 43526424 
1149.382 43865320 44199820 44531788 44863940 45199688 45541620 45890932 
1152.757 46247856 46612048 46983188 47360892 47744180 48131172 48518216 
1156.133 48900256 49271988 49627732 49963132 50273684 50554412 50799044 
1159.508 50999176 51145196 51227992 51240220 51177140 51037224 50821020 
1162.883 50530068 50166184 49731564 49229532 48664844 48045152 47380588 
1166.258 46682216 45962052 45231528 44500512 43778784 43074796 42397332 
1169.634 41755104 41155528 40604800 40107352 39665612 39280828 38954408 
1173.009 38688532 38486828 38353472 38293104 38309392 38405088 38582240 
1176.384 38843876 39194660 39640856 40190684 40852880 41635436 42546188 
1179.759 43591808 44779664 46118804 47619080 49291732 51147988 53197036 
1183.135 55445756 57896948 60547440 63383712 66376052 69477280 72611864 
1186.510 75679104 78564536 81136768 83270224 84860584 85826192 86125504 
1189.885 85756992 84760496 83209176 81200528 78850504 76270808 73565728 
1193.260 70827816 68126864 65517536 63039132 60715376 58559840 56576196 
1196.635 54761064 53105068 51595640 50220080 48965940 47823332 46786380 
1200.011 45851304 45016328 44279948 43639068 43088552 42621368 42228696 
1203.386 41901404 41630692 41407312 41222160 41065376 40925584 40791984 
1206.761 40654428 40505452 40341116 40161028 39967720 39765348 39559040 
1210.136 39354608 39158176 38977820 38823008 38704184 38632576 38617980 
1213.512 38667924 38787972 38981408 39249996 39594864 40016184 40512364 
1216.887 41080128 41714064 42407268 43153028 43946484 44785320 45670024 
1220.262 46602564 47585616 48621744 49713396 50863972 52078000 53361068 
1223.637 54718516 56152872 57661868 59236388 60861308 62516400 64176136 
1227.013 65813696 67400304 68905200 70300424 71561856 72673160 73630144 
1230.388 74441384 75129160 75723552 76263776 76794080 77358648 78008208 
1233.763 78795448 79772280 80993296 82507768 84356000 86569864 89168568 
1237.138 92159936 95540880 99298120 103405992 107821552 112488096 117330472 
1240.514 122258088 127181456 132011056 136666112 141081904 145199552 
1243.407 148964736 152326576 155230064 157619856 159443936 160648960 
1246.300 161185376 161011376 160093248 158416896 155992688 152858288 
1249.193 149072560 144704768 139826592 134498768 128773408 122701768 
1252.086 116338696 109756136 103047232 96314840 89675520 83246496 77126688 
1255.461 71403424 66138268 61362512 57083736 53285244 49934176 46986364 
1258.836 44394364 42113352 40099392 38315436 36730020 35315564 34050524 
1262.212 32917276 31900294 30986874 30164582 29420992 28745752 28129640 
1265.587 27566260 27052342 26586018 26166050 25790612 25456356 25159432 
1268.962 24896992 24667780 24472936 24315430 24198930 24126804 24101446 
1272.337 24125192 24201032 24333652 24529940 24797350 25142298 25567252 
1275.713 26069036 26637028 27251414 27885786 28504914 29068238 29535922 
1279.088 29870742 30046112 30052114 29896510 29603702 29207668 28748408 
1282.463 28261060 27771502 27296610 26843736 26414890 26010354 25631466 
1285.838 25280510 24960368 24673146 24419832 24199842 24013052 23859492 
1289.214 23739648 23653358 23598360 23569640 23561278 23566630 23582268 
1292.589 23608576 23649790 23712390 23802262 23923696 24078294 24266584 
1295.964 24490044 24751886 25058044 25416058 25832630 26313386 26862876 
1299.339 27484006 28180302 28953360 29800648 30711146 31660870 32614424 
1302.715 33523258 34334728 35002236 35488184 35773476 35858104 35760812 
1306.090 35513932 35157844 34739236 34302240 33885528 33521362 33229392 
1309.465 33018156 32885146 32819890 32807738 32833252 32884608 32952520 
1312.840 33030026 33110942 33188078 33253178 33298646 33318534 33309844 
1316.216 33272136 33206892 33115268 32997456 32852874 32681402 32484752 
1319.591 32267704 32037068 31800530 31564902 31334638 31112648 30901302 
1322.966 30704354 30528006 30380440 30269728 30202944 30184616 30216902 
1326.341 30301736 30441706 30639566 30897850 31215138 31584784 31993446 
1329.717 32424268 32860308 33287804 33699576 34094212 34473312 34837952 
1333.092 35186156 35511488 35805860 36060828 36270700 36434444 36555068 
1336.467 36638444 36692160 36725368 36749564 36777692 36826196 36912264 
1339.842 37050120 37249784 37514164 37840844 38223812 38656768 39135264 
1343.218 39655736 40215512 40811532 41440444 42099880 42789932 43513056 
1346.593 44271508 45062416 45871084 46668564 47407568 48028128 48470568 
1349.968 48679116 48617076 48272676 47660712 46820368 45807412 44691956 
1353.343 43544080 42427764 41399952 40500508 39753764 39168656 38741056 
1356.719 38458192 38303420 38262020 38321260 38470392 38699800 38997756 
1360.094 39350616 39746248 40175968 40638236 41138660 41688240 42295892 
1363.469 42962336 43676220 44414256 45143952 45824020 46411200 46860780 
1366.844 47127272 47174328 46978428 46535736 45863900 45000376 43995360 
1370.219 42898180 41754080 40598180 39452676 38335016 37261880 36253268 
1373.595 35336624 34541544 33890616 33393494 33042896 32819494 32699622 
1376.970 32666254 32714732 32855660 33111870 33516244 34110592 34939856 
1380.345 36053376 37498632 39305164 41467348 43918952 46532560 49107492 
1383.720 51396540 53155696 54149016 54200780 53228012 51268480 48499020 
1387.096 45204432 41742300 38432668 35496600 33043970 31077944 29540816 
1390.471 28347952 27418320 26683394 26089620 25600816 25192472 24850500 
1393.846 24570892 24356326 24212068 24141726 24143582 24210282 24330954 
1397.221 24493306 24685982 24900184 25129588 25371094 25624928 25893680 
1400.597 26180724 26487926 26814658 27157228 27509034 27862254 28210530 
1403.972 28549744 28878600 29197320 29505600 29801678 30083044 30348780 
1407.347 30602022 30850500 31106456 31383004 31690240 32034426 32416876 
1410.722 32836684 33292920 33785952 34315936 34879172 35464672 36054416 
1414.098 36625284 37158784 37647552 38101064 38544904 39017944 39565032 
1417.473 40225036 41023860 41962420 43011608 44115784 45206968 46224232 
1420.848 47120960 47871756 48471716 48935600 49300788 49625244 49984880 
1424.223 50451240 51073820 51868976 52819764 53890560 55042980 56251076 
1427.599 57500816 58785920 60102728 61444760 62804856 64181164 65585436 
1430.974 67043320 68585816 70241912 72027344 73944344 75986696 78153952 
1434.349 80463144 82948160 85652616 88606128 91799864 95169992 98619368 
1437.724 102057624 105426288 108699128 111856752 114865760 117651136 
1440.617 120094008 122059064 123397512 123981864 123729392 122602320 
1443.510 120619248 117850248 114424312 110512192 106301320 101997016 
1446.404 97785008 93822568 90239928 87117040 84477168 82281056 80445440 
1449.779 78864848 77443072 76125376 74906584 73830312 72961816 72364456 
1453.154 72068456 72060440 72284848 72659136 73097104 73513720 73852784 
1456.529 74104928 74319280 74584440 74989896 75608544 76479360 77619136 
1459.905 79032000 80707504 82618928 84714664 86925096 89149040 91250608 
1463.280 93080376 94478496 95320752 95562344 95258152 94546216 93588184 
1466.655 92538800 91511544 90574912 89772968 89126056 88635672 88282000 
1470.030 88020144 87781120 87474544 87017512 86361464 85520176 84569432 
1473.406 83618352 82768640 82083512 81594488 81315064 81253608 81421000 
1476.781 81823576 82453240 83280416 84254296 85315760 86401208 87459352 
1480.156 88460320 89397248 90288304 91169296 92089808 93100984 94256648 
1483.531 95617432 97247448 99214088 101575576 104360288 107542816 111018304 
1486.906 114609896 118052136 121014104 123153568 124129656 123681776 
1489.800 121702808 118275048 113673168 108277592 102494184 96642784 90917304 
1493.175 85422352 80184240 75204208 70507600 66153696 62243088 58898000 
1496.550 56218564 54251384 52978412 52340424 52257940 52654252 53466136 
1499.925 54635088 56102084 57807156 59680212 61646536 63634148 65554836 
1503.301 67307176 68766440 69752184 70035408 69356456 67498224 64422256 
1506.676 60367840 55805840 51218596 46920836 43017500 39476296 36224924 
1510.051 33208576 30404356 27824454 25495566 23435642 21647930 20115998 
1513.426 18812012 17705194 16766978 15971528 15292118 14702395 14180837 
1516.802 13715336 13308854 12974232 12724613 12562441 12474012 12429684 
1520.177 12396033 12347487 12283539 12230269 12227371 12303138 12459758 
1523.552 12676644 12922822 13174538 13420965 13670300 13942636 14260438 
1526.927 14635118 15063048 15529860 16020207 16526768 17052256 17607328 
1530.302 18204258 18850802 19548630 20294244 21081726 21907194 22769116 
1533.678 23665606 24588880 25525610 26457604 27368490 28242636 29068874 
1537.053 29841640 30555698 31206452 31785414 32277662 32661506 32915454 
1540.428 33032384 33025234 32922138 32754890 32542638 32287300 31975042 
1543.803 31588100 31117170 30572122 29982950 29389366 28824494 28299394 
1547.179 27803366 27310442 26794782 26243126 25665244 25089814 24555464 
1550.554 24089188 23697202 23364518 23067308 22785492 22512200 22256446 
1553.929 22037512 21873010 21767824 21709824 21672242 21621150 21516930 
1557.304 21317090 20985146 20504518 19904626 19263718 18678508 18214556 
1560.680 17886458 17673478 17540152 17451082 17375894 17294204 17197878 
1564.055 17092300 16993366 16920978 16889560 16901412 16946130 17005562 
1567.430 17062042 17103572 17127696 17141518 17158408 17191154 17247038 
1570.805 17326960 17428800 17549430 17685936 17834154 17987428 18133362 
1574.181 18256058 18340658 18379614 18380580 18366410 18367238 18403258 
1577.556 18477240 18575960 18680652 18773710 18844504 18890874 18916068 
1580.931 18925760 18924134 18912020 18887796 18849418 18796788 18732438 
1584.306 18659864 18580976 18494112 18394408 18276446 18138648 17985286 
1587.682 17828250 17683140 17565820 17489336 17461326 17485852 17565268 
1591.057 17701536 17894262 18137336 18416290 18705246 18970132 19178554 
1594.432 19302824 19329984 19263302 19120450 18927628 18711784 18497984 
1597.807 18305786 18150774 18047628 18009600 18047870 18170400 18379544 
1601.183 18673008 19045630 19492314 20008114 20586538 21216388 21877678 
1604.558 22540012 23167184 23717708 24151674 24437814 24553922 24491902 
1607.933 24257088 23867334 23348784 22731128 22048318 21334560 20623192 
1611.308 19946808 19329810 18786062 18317570 17915254 17562714 17240382 
1614.684 16931142 16621467 16305957 15990196 15690671 15430868 15232368 
1618.059 15109395 15064111 15088330 15166108 15277497 15404055 15530066 
1621.434 15648864 15764983 15892645 16049568 16249508 16495897 16781408 
1624.809 17093954 17422662 17762696 18114260 18478864 18855610 19237984 
1628.185 19615390 19977650 20319554 20643520 20956980 21268790 21583366 
1631.560 21898482 22204482 22487526 22733642 22929940 23068672 23147856 
1634.935 23173404 23158378 23120912 23079818 23048650 23032614 23028700 
1638.310 23028212 23017696 22982724 22912720 22803440 22660466 22496984 
1641.686 22329692 22171216 22025556 21886182 21737620 21560940 21337798 
1645.061 21057066 20720004 20343304 19955516 19591438 19282770 19048712 
1648.436 18895202 18816200 18797790 18818830 18850248 18854850 18784402 
1651.811 18588790 18240402 17767010 17260586 16826836 16525771 16349958 
1655.187 16256249 16195817 16133605 16050978 15941624 15808757 15658723 
1658.562 15497374 15326818 15145109 14947906 14730740 14490935 14228630 
1661.937 13947528 13655085 13361949 13080417 12821898 12593888 12398045 
1665.312 12229008 12075298 11921814 11751260 11548480 11304745 11020261 
1668.688 10704990 10376610 10055124 9757123 9492513 9264112 9069154 8900664 
1672.545 8747384 8595342 8428453 8233466 8006299 7757932 7514394 7304821 
1676.402 7151093 7057158 7012404 6997992 6996510 6997722 7001090 7013818 
1680.260 7045809 7103298 7184408 7278471 7368814 7439727 7483245 7507651 
1684.117 7535464 7595648 7706731 7868720 8069012 8292530 8527923 8767771 
1687.975 9007345 9243498 9472058 9689185 9893674 10087476 10276173 10466819 
1691.832 10664136 10867930 11071480 11261217 11420694 11535142 11598469 
1695.207 11619942 11624605 11643630 11695093 11777508 11869371 11939387 
1698.583 11951478 11876181 11703262 11455053 11184783 10947674 10775838 
1701.958 10665359 10591303 10521707 10429824 10297311 10115794 9888488 
1705.333 9628202 9354665 9085868 8833840 8602743 8390212 8189772 7993879 
1709.190 7796623 7594569 7388092 7180163 6975634 6778672 6591555 6413767 
1713.048 6243042 6076720 5913148 5752424 5595720 5443167 5293249 5141773 
1716.905 4986061 4827858 4676544 4546779 4451765 4398074 4383147 4397070 
1720.763 4427028 4460369 4489427 4511523 4529402 4548788 4575743 4613348 
1724.620 4661171 4716101 4774086 4832314 4888940 4942190 4989479 5026953 
1728.478 5050417 5057658 5049881 5031847 5009221 4985390 4957036 4912900 
1732.335 4835027 4706019 4518454 4285759 4042186 3830003 3677166 3587521 
1736.192 3545661 3528591 3515263 3490278 3446625 3385811 3315724 3246950 
1740.050 3188601 3145445 3117879 3104196 3102260 3110637 3128024 3152221 
1743.907 3180257 3208695 3234465 3256231 3274158 3289315 3302302 3312385 
1747.765 3317360 3314155 3299732 3272456 3232529 3182393 3126022 3069124 
1751.622 3017705 2977102 2950947 2939971 2942206 2951981 2961188 2961555 
1755.479 2946110 2912418 2864453 2811425 2764671 2731527 2713556 2705954 
1759.337 2700452 2687316 2660279 2617675 2563777 2506053 2452735 2409685 
1763.194 2378834 2359311 2348584 2343887 2342321 2340722 2335525 2324066 
1767.052 2304912 2280196 2254449 2233700 2221677 2217614 2215616 2206457 
1770.909 2180915 2134496 2071136 2003125 1946540 1912260 1903541 1914723 
1774.767 1936056 1958855 1978892 1996933 2016640 2041740 2072800 2106327 
1778.624 2135828 2154841 2159670 2151877 2137326 2123941 2117015 2118114 
1782.481 2124440 2131266 2134030 2131133 2123708 2115184 2108791 2106228 
1786.339 2107792 2112787 2120878 2132831 2149014 2169060 2189706 2204992 
1790.196 2207756 2191571 2154508 2101167 2042039 1989411 1953030 1936422 
1794.054 1936622 1947006 1960985 1973999 1983819 1990276 1993638 1993938 
1797.911 1990243 1981788 1968141 1950667 1931730 1914157 1900180 1890163 
1801.769 1883806 1880678 1880645 1885237 1895820 1913392 1937288 1965512 
1805.626 1994237 2020601 2042605 2060283 2074465 2086484 2096805 2104862 
1809.483 2110090 2112021 2111855 2111788 2114318 2120978 2131066 2142188 
1813.341 2151411 2156872 2159137 2160402 2164764 2175720 2194935 2222010 
1817.198 2254216 2288423 2322567 2356146 2389795 2425046 2462432 2501254 
1821.056 2540013 2576876 2609675 2637010 2657578 2670380 2675381 2674114 
1824.913 2670314 2669513 2677848 2699385 2734661 2780144 2828066 2869656 
1828.771 2898041 2911017 2912551 2911584 2918889 2941372 2980371 3032086 
1832.628 3089813 3147348 3200818 3249154 3294323 3338829 3384609 3432564 
1836.485 3483063 3536875 3596274 3664735 3745874 3842171 3953502 4077337 
1840.343 4209136 4344055 4478547 4609966 4737237 4860459 4980263 5098926 
1844.200 5218796 5343059 5473733 5610019 5747791 5880199 5998235 6092748 
1848.058 6157336 6189365 6190373 6165133 6118824 6055652 5976768 5881610 
1851.915 5769111 5640195 5498229 5348862 5197736 5049311 4905259 4765209 
1855.772 4628384 4495118 4367349 4248785 4141960 4047537 3963734 3886633 
1859.630 3812822 3740226 3669046 3601118 3537978 3479557 3424048 3368647 
1863.487 3312285 3256364 3204823 3162834 3133731 3117144 3107733 3097889 
1867.345 3079502 3049270 3008864 2965859 2929030 2905846 2898275 2903645 
1871.202 2916020 2930231 2942440 2951314 2956985 2959320 2957218 2949045 
1875.060 2932966 2908215 2876194 2839339 2800620 2761804 2723658 2686183 
1878.917 2649311 2614742 2584509 2560577 2542880 2528315 2511285 2485125 
1882.774 2445371 2391461 2327930 2261844 2201695 2153742 2120012 2099003 
1886.632 2086950 2079925 2074998 2070770 2066475 2061348 2055089 2047665 
1890.489 2040708 2037279 2041274 2055655 2080491 2112254 2145085 2172690 
1894.347 2191471 2201728 2207490 2214850 2228571 2249620 2274867 2298849 
1898.204 2316570 2325798 2327463 2325198 2322767 2321967 2323066 2324232 
1902.062 2324365 2324499 2327230 2335425 2351149 2372770 2396491 2417082 
1905.919 2431210 2437740 2439973 2442106 2447970 2459033 2473328 2487258 
1909.776 2497855 2504420 2508619 2513685 2522016 2533914 2547846 2561144 
1913.634 2572076 2580542 2587942 2594975 2600575 2601508 2593275 2572476 
1917.491 2540813 2504120 2471929 2452802 2450002 2460199 2475461 2485825 
1921.349 2484625 2471462 2451535 2433275 2424579 2428477 2442739 2461898 
1925.206 2480893 2497355 2513218 2532581 2558244 2590275 2624976 2657345 
1929.063 2683882 2704520 2722425 2742931 2769040 2799919 2829800 2851812 
1932.921 2860517 2855281 2841340 2825865 2816227 2816027 2824031 2835737 
1936.778 2847476 2857749 2868489 2883531 2905346 2932966 2962289 2987110 
1940.636 3002491 3008129 3007095 3005494 3008363 3016704 3027615 3037024 
1944.493 3042796 3046734 3055376 3075764 3112139 3163902 3223283 3280368 
1948.351 3326175 3356493 3372788 3380936 3387481 3396230 3407083 3417336 
1952.208 3423380 3425451 3425952 3428857 3437708 3452135 3468434 3481460 
1956.065 3488007 3488575 3487673 3491314 3503405 3523848 3547131 3566072 
1959.923 3574391 3571551 3561095 3550538 3546597 3552443 3567075 3588022 
1963.780 3611843 3638472 3669480 3706673 3748514 3789925 3822047 3836889 
1967.638 3831574 3809980 3781837 3757204 3744370 3744337 3752826 3762585 
1971.495 3767465 3767565 3767197 3773046 3790995 3822515 3865103 3915653 
1975.353 3972695 4038808 4118980 4216263 4327589 4441689 4541087 4609598 
1979.210 4636154 4620113 4568678 4494717 4411095 4326385 4245238 4168756 
1983.067 4098241 4035731 3986205 3953569 3939559 3942200 3955675 3972495 
1986.925 3987843 3999146 4006636 4012355 4015231 4012890 4001286 3977845 
1990.782 3943738 3906325 3875834 3862596 3872625 3905522 3954840 4011519 
1994.640 4067069 4115869 4156479 4188293 4211044 4223590 4223423 4209772 
1998.497 4185584 4157616 4134100 4122994 4126673 4141225 4158218 4167150 
2002.354 4160895 4138783 4106503 4074026 4053356 4052988 4076869 4124332 
2006.212 4190970 4269697 4352790 4432484 4499805 4546645 4569079 4565430 
2010.069 4540351 4502450 4461775 4427463 4405505 4397338 4401689 4417220 
2013.927 4443430 4480656 4529938 4589606 4655076 4720891 4781992 4836099 
2017.784 4886662 4939107 4997859 5063826 5130977 5189320 5229091 5244115 
2021.642 5236401 5214939 5193277 5182479 5188883 5211888 5245691 5283556 
2025.499 5321524 5358221 5394150 5429478 5461587 5484504 5492826 5484471 
2029.356 5462560 5435953 5414984 5409012 5422566 5454172 5499236 5553768 
2033.214 5615121 5683599 5761389 5846480 5933772 6015638 6083608 6132971 
2037.071 6164998 6184760 6199313 6213665 6228622 6240286 6243513 6234673 
2040.929 6213900 6185466 6156059 6130552 6110625 6094428 6078232 6059752 
2044.786 6040634 6025582 6021920 6035325 6066707 6112977 6165906 6217161 
2048.644 6258270 6283247 6288054 6272019 6235143 6181332 6116942 6052326 
2052.501 5998269 5965885 5961988 5986175 6030521 6083205 6130585 6162948 
2056.358 6177131 6176056 6165906 6152799 6140129 6128569 6116740 6104038 
2060.216 6091639 6082768 6080617 6086901 6100006 6115631 6128200 6134685 
2064.073 6134786 6131056 6126922 6124570 6122655 6117480 6103769 6078165 
2067.931 6040903 5995749 5948618 5905087 5868511 5839260 5816189 5797854 
2071.788 5784155 5775995 5774316 5779185 5787411 5794598 5796713 5791407 
2075.646 5779789 5765788 5754472 5750040 5753398 5762799 5775256 5788049 
2079.503 5800239 5813234 5828514 5847118 5867739 5887420 5902064 5909419 
2083.360 5909789 5905456 5900183 5896656 5895514 5894943 5891920 5883020 
2087.218 5867202 5844700 5817163 5786236 5753163 5717171 5678094 5636469 
2091.075 5594546 5556050 5525477 5506081 5499840 5506450 5524806 5553667 
2094.933 5591525 5636838 5687594 5739363 5786841 5824215 5847655 5855850 
2098.790 5851988 5841611 5830797 5824853 5826297 5835029 5849603 5869015 
2102.647 5893230 5922855 5958528 5999445 6042952 6086162 6126317 6162848 
2106.505 6197734 6233900 6274977 6322379 6375131 6430345 6485264 6537734 
2110.362 6587922 6637410 6687981 6739634 6791360 6839929 6882276 6917792 
2114.220 6947756 6975264 7003851 7035605 7069989 7104510 7136002 7162007 
2118.077 7182488 7199432 7216041 7235278 7258929 7287097 7318906 7353346 
2121.935 7390181 7429548 7472019 7517630 7565707 7615171 7665046 7715366 
2125.792 7767613 7822735 7881203 7941908 8001945 8057873 8107664 8151079 
2129.649 8190244 8229582 8273483 8325460 8386969 8457913 8537047 8623157 
2133.507 8715166 8811049 8908003 9001561 9086275 9158213 9215880 9261606 
2137.364 9300500 9338720 9380193 9425429 9471719 9514222 9548700 9573427 
2141.222 9589144 9598866 9605031 9608723 9608588 9603100 9590262 9571834 
2145.079 9550631 9530275 9512155 9495188 9473954 9442698 9396987 9336519 
2148.937 9265093 9189448 9114764 9044659 8978491 8913718 8847401 8778691 
2152.794 8708845 8640665 8575132 8511298 8445109 8374843 8302899 8239882 
2156.651 8203075 8213340 8285438 8422406 8608556 8816121 9011879 9166368 
2160.509 9264010 9302260 9289261 9239098 9165590 9081503 8995167 8912095 
2164.366 8835396 8766520 8703774 8643673 8580776 8509439 8425311 8327047 
2168.224 8216379 8096523 7970593 7841290 7709564 7577069 7446502 7323994 
2172.081 7216344 7131455 7073929 7044361 7036919 7044024 7055474 7062075 
2175.938 7057932 7038097 7000147 6943244 6868676 6781432 6690437 6608107 
2179.796 6547354 6517620 6521521 6552231 6597813 6642323 6673210 6685356 
2183.653 6679737 6662005 6638588 6613288 6585601 6552871 6512137 6463605 
2187.511 6410639 6359261 6313637 6276489 6246337 6219043 6190978 6161134 
2191.368 6131526 6106122 6089993 6084616 6089018 6099972 6114556 6130014 
2195.226 6146515 6164965 6185634 6207481 6227547 6242068 6248992 6247748 
2199.083 6241328 6233463 6227412 6224488 6224018 6224018 6222639 6220253 
2202.940 6217900 6217396 6219513 6222438 6223211 6218337 6206170 6187684 
2206.798 6166074 6144263 6124772 6106794 6088816 6068017 6044262 6019972 
2210.655 6000016 5988963 5989602 6000352 6016545 6031663 6041205 6044464 
2214.513 6044699 6046547 6055149 6071949 6094360 6117513 6136097 6146413 
2218.370 6148296 6143759 6136601 6129443 6123999 6120101 6116539 6113078 
2222.228 6109650 6106558 6104172 6102022 6098930 6093957 6087203 6079274 
2226.085 6071982 6066001 6060222 6052360 6038988 6018561 5992322 5965078 
2229.942 5943177 5932797 5937197 5954765 5979893 6005290 6023902 6033309 
2233.800 6034653 6032167 6031596 6037543 6051251 6072083 6097452 6124839 
2237.657 6151791 6177568 6200792 6221194 6237933 6250942 6261194 6270304 
2241.515 6280523 6293466 6309670 6328228 6346888 6364405 6380209 6396012 
2245.372 6414305 6437576 6466363 6499222 6532318 6560607 6580488 6589873 
2249.229 6588763 6579916 6566494 6552399 6541333 6536926 6542813 6561415 
2253.087 6593642 6637814 6689024 6740542 6784730 6815560 6829831 6828451 
2256.944 6814416 6792067 6765076 6735495 6704267 6671964 6640068 6611034 
2260.802 6587889 6572818 6566393 6566561 6570060 6573760 6575812 6576586 
2264.659 6577932 6581632 6588124 6595828 6601614 6601951 6595559 6583213 
2268.517 6568209 6554687 6546009 6542880 6543721 6545437 6544696 6540021 
2272.374 6531377 6520479 6509446 6499928 6492428 6486575 6481834 6477562 
2276.231 6474233 6472282 6471979 6473089 6474737 6475645 6475376 6473963 
2280.089 6471811 6470163 6469894 6471138 6473963 6478066 6483380 6489771 
2283.946 6497506 6505646 6513011 6517989 6518561 6514054 6504636 6491856 
2287.804 6477999 6464984 6453751 6444100 6435255 6425738 6415448 6405159 
2291.661 6396550 6391607 6391776 6397223 6407513 6421367 6437408 6454592 
2295.519 6472147 6488863 6503829 6515803 6524145 6528854 6531141 6532958 
2299.376 6536557 6543318 6553745 6566595 6579916 6591724 6601076 6608444 
2303.233 6615475 6624290 6637343 6655848 6680343 6710593 6746028 6785976 
2307.091 6829696 6876149 6924087 6972132 7019307 7064937 7109428 7153686 
2310.948 7198927 7245823 7294443 7343775 7392473 7439255 7483952 7527407 
2314.806 7570899 7616149 7664068 7714927 7767883 7821588 7875063 7927600 
2318.663 7979030 8030094 8081468 8134098 8188422 8243697 8297832 8346976 
2322.521 8385584 8407474 8407508 8382612 8333870 8266728 8190447 8115630 
2326.378 8052641 8009168 7988007 7988007 8003667 8028473 8055678 8080894 
2330.235 8101587 8117554 8129978 8140005 8149324 8159520 8172315 8189637 
2334.093 8213171 8243866 8281182 8323400 8367884 8412170 8454805 8495316 
2337.950 8534276 8572834 8611564 8650129 8687683 8722738 8754112 8780856 
2341.808 8802360 8817338 8823831 8818252 8796780 8756175 8694748 8614470 
2345.665 8521063 8424501 8336336 8268553 8232014 8234276 8279022 8366060 
2349.522 8491362 8647087 8821972 9004233 9181969 9345829 9491091 9617260 
2353.380 9727404 9825647 9915844 10000431 10079778 10153746 10222333 
2356.755 10286317 10346645 10404302 10459386 10511048 10557862 10598976 
2360.130 10633881 10663084 10686787 10705363 10717759 10722276 10717555 
2363.506 10703427 10681523 10654764 10626581 10599927 10575651 10553007 
2366.881 10529582 10502562 10470213 10431961 10388419 10341352 10291950 
2370.256 10241196 10189769 10137805 10085102 10032066 9979138 9926115 
2373.631 9873200 9820293 9767153 9714359 9663469 9615532 9572478 9535355 
2377.489 9504671 9480457 9462237 9449708 9442665 9441547 9446288 9456955 
2381.346 9472973 9493224 9516728 9542468 9570107 9599475 9630574 9663672 
2385.204 9698197 9733775 9769661 9805279 9840391 9874726 9908183 9940523 
2389.061 9971036 9999380 10025284 10048749 10070452 10091037 10111216 
2392.436 10131225 10150965 10170027 10188513 10206797 10225896 10247064 
2395.812 10271288 10298667 10328967 10361440 10395512 10431385 10469636 
2399.187 10511455 10557489 10607532 10660877 10716095 10772373 10829576 
2402.562 10889028 10952533 11022640 11100576 11186754 11280227 11379297 
2405.937 11481894 11586796 11693119 11800931 11910371 12021780 12135433 
2409.313 12252216 12372816 12497916 12627964 12762180 12898553 13034219 
2412.688 13165350 13288731 13402340 13505724 13599662 13685551 13764651 
2416.063 13837403 13903460 13962241 14013158 14056483 14093344 14125142 
2419.438 14153691 14180495 14206616 14232739 14259754 14288140 14318992 
2422.813 14352931 14390364 14431159 14475519 14523139 14574670 14631417 
2426.189 14694751 14766459 14848053 14940088 15042947 15156535 15280551 
2429.564 15414595 15558638 15712004 15873777 16043378 16219927 16403463 
2432.939 16594442 16793462 17001220 17217732 17441872 17671926 17905898 
2436.314 18141758 18378404 18616180 18855958 19098878 19346542 19599756 
2439.690 19859570 20126026 20399282 20678788 20963586 21251914 21541232 
2443.065 21829072 22113476 22393322 22668948 22941398 23211816 23481072 
2446.440 23749484 24016168 24280354 24541090 24798368 25052182 25303128 
2449.815 25551264 25795604 26034980 26267872 26493174 26710736 26921356 
2453.191 27126682 27328684 27528696 27727636 27925040 28119776 28309190 
2456.566 28491080 28661966 28819252 28960728 29085172 29191720 29281068 
2459.941 29353772 29410888 29452408 29478614 29489250 29484712 29466450 
2463.316 29437124 29400500 29361252 29323568 29291276 29267420 29254556 
2466.692 29255016 29271356 29306306 29362742 29443188 29549294 29681676 
2470.067 29840076 30023318 30230294 30459688 30709902 30979402 31265732 
2473.442 31565580 31875402 32191120 32508962 32824642 33135078 33436720 
2476.817 33726288 34001320 34259248 34498424 34717952 34916692 35093828 
2480.193 35247748 35376484 35478260 35551684 35595780 35611280 35599336 
2483.568 35562476 35503540 35425732 35332744 35228736 35117968 35004640 
2486.943 34891664 34780620 34670436 34558264 34439988 34311028 34168224 
2490.318 34010032 33836416 33648268 33446670 33232074 33004142 32761536 
2493.694 32502894 32227948 31936702 31630612 31310816 30978192 30633024 
2497.069 30274700 29902332 29515422 29114544 28701468 28278706 27849748 
2500.444 27418074 26987110 26559494 26137756 25723844 25319142 24924608 
2503.819 24540740 24167226 23803382 23448582 23102950 22766952 22441922 
2507.195 22129724 21831442 21548406 21280378 21027018 20787674 20562150 
2510.570 20350492 20153062 19970192 19801720 19646832 19504338 19372700 
2513.945 19250798 19138108 19034796 18941232 18858104 18785960 18724758 
2517.320 18674738 18635896 18608434 18592594 18588100 18594808 18611546 
2520.696 18637174 18670034 18708464 18751326 18797378 18846234 18897276 
2524.071 18950230 19004954 19060830 19116954 19172080 19224338 19271998 
2527.446 19313218 19346438 19370690 19385970 19392032 19388776 19375610 
2530.821 19351532 19315226 19266144 19204666 19132602 19052796 18968886 
2534.197 18883572 18799174 18716420 18634546 18553136 18471328 18389258 
2537.572 18307996 18229172 18154162 18084412 18020236 17961526 17907278 
2540.947 17856628 17808606 17761972 17716066 17670028 17623752 17577412 
2544.322 17531560 17487438 17445840 17407070 17370550 17335444 17300204 
2547.698 17263896 17226180 17187674 17149378 17112668 17078170 17045880 
2551.073 17015418 16986028 16957154 16929350 16903170 16879880 16859868 
2554.448 16843402 16829384 16816984 16805000 16792360 16778894 16764568 
2557.823 16749656 16733918 16717527 16699348 16679067 16655618 16628318 
2561.198 16596232 16559022 16516030 16467400 16413750 16356599 16298078 
2564.574 16240736 16186427 16137008 16093338 16055310 16022922 15996141 
2567.949 15975172 15960461 15952658 15951557 15956713 15967162 15980981 
2571.324 15996967 16013606 16030142 16046165 16061945 16077796 16094815 
2574.699 16113831 16135909 16161975 16192308 16226565 16263714 16302070 
2578.075 16340222 16376968 16412443 16447200 16482577 16520092 16560914 
2581.450 16605493 16653897 16705958 16761400 16820086 16881672 16946164 
2584.825 17012868 17080652 17148688 17215974 17282136 17347650 17413176 
2588.200 17480056 17549156 17621474 17697188 17775882 17857180 17939944 
2591.576 18023172 18105622 18186154 18264038 18338966 18411070 18481114 
2594.951 18549784 18617598 18684632 18750116 18813120 18872568 18927560 
2598.326 18978406 19025794 19070974 19115672 19161448 19209688 19261640 
2601.701 19318380 19380530 19448684 19522948 19603014 19688020 19777202 
2605.077 19869592 19964884 20063146 20164796 20270530 20380946 20495902 
2608.452 20615374 20738804 20865366 20994570 21125554 21257308 21389170 
2611.827 21520064 21649358 21776672 21902176 22026112 22148480 22269140 
2615.202 22387040 22500822 22609434 22711890 22808330 22899972 22988068 
2618.578 23074054 23158656 23241424 23321270 23396758 23466384 23529482 
2621.953 23586222 23637230 23683974 23727472 23769082 23809892 23850740 
2625.328 23892362 23934970 23978594 24022610 24066036 24108310 24148730 
2628.703 24187370 24224994 24262834 24301764 24342588 24385030 24428420 
2632.079 24471360 24512446 24550870 24585724 24617002 24644880 24669640 
2635.454 24691524 24710956 24728210 24743854 24758342 24772128 24785704 
2638.829 24799630 24814506 24830960 24849976 24872676 24899974 24932504 
2642.204 24970194 25012486 25058396 25106804 25157080 25208728 25261790 
2645.580 25316612 25373834 25433834 25497254 25564406 25635824 25711926 
2648.955 25792862 25878628 25968456 26061368 26155528 26249532 26341938 
2652.330 26431794 26519024 26604090 26687800 26771698 26857342 26945892 
2655.705 27038800 27136664 27239596 27347140 27458380 27571838 27686702 
2659.081 27802022 27917478 28033494 28150426 28268840 28389124 28511460 
2662.456 28635314 28760374 28886388 29012798 29139488 29266180 29392804 
2665.831 29519288 29645702 29772294 29899670 30028254 30158296 30289906 
2669.206 30422976 30556976 30691694 30827270 30963886 31102396 31243194 
2672.582 31386816 31533476 31683072 31835504 31990450 32148090 32308142 
2675.957 32470576 32634858 32800306 32965820 33130574 33294354 33457406 
2679.332 33620556 33785196 33952736 34124280 34300912 34483356 34672192 
2682.707 34867968 35071196 35281960 35500124 35724940 35955640 36191392 
2686.083 36431632 36676260 36925644 37180260 37440372 37706060 37976936 
2689.458 38252108 38531288 38814024 39100564 39391288 39686704 39987084 
2692.833 40292396 40602580 40917064 41235784 41558676 41886000 42218072 
2696.208 42555652 42898876 43248076 43603312 43964412 44330584 44701324 
2699.583 45075616 45452768 45832124 46213140 46595744 46979500 47364108 
2702.959 47748508 48131356 48511172 48886424 49255844 49618668 49974248 
2706.334 50322528 50662752 50994036 51315652 51626160 51925060 52212052 
2709.709 52487684 52752976 53009108 53256968 53497320 53730456 53956396 
2713.084 54174952 54385392 54587220 54779480 54960768 55129760 55284852 
2716.460 55425200 55549408 55657004 55747820 55822344 55881728 55927744 
2719.835 55963020 55990876 56014772 56038712 56065628 56098728 56140092 
2723.210 56191640 56255152 56332588 56425808 56536716 56666640 56816356 
2726.585 56985760 57173796 57379152 57600308 57835620 58084012 58344028 
2729.961 58614820 58895152 59183644 59479048 59779824 60084084 60390116 
2733.336 60695980 60999204 61297640 61589408 61872812 62147040 62411568 
2736.711 62666500 62911964 63147752 63374048 63590804 63798300 63997060 
2740.086 64188308 64373532 64554332 64732672 64911128 65092036 65278604 
2743.462 65474464 65682432 65905356 66144364 66399836 66670596 66954592 
2746.837 67248800 67550280 67855072 68158960 68457312 68744816 69015992 
2750.212 69266360 69491792 69689904 69859312 70000056 70112616 70197672 
2753.587 70256440 70289672 70298168 70283008 70244288 70181664 70093848 
2756.963 69978336 69832304 69652904 69437776 69185800 68896496 68570680 
2760.338 68209552 67814288 67387224 66931284 66449596 65947004 65428504 
2763.713 64899468 64365728 63832416 63304588 62787204 62285116 61803016 
2767.088 61345760 60916964 60519440 60154976 59824088 59526736 59262248 
2770.464 59030568 58831372 58664916 58530680 58427828 58354072 58306436 
2773.839 58280668 58271804 58275020 58285064 58297572 58308292 58313976 
2777.214 58311476 58298288 58271424 58228076 58165716 58081096 57972672 
2780.589 57839556 57683020 57506568 57314988 57114424 56910740 56708888 
2783.965 56512300 56322440 56139300 55961892 55788096 55616288 55443460 
2787.340 55267236 55084428 54892032 54687172 54467796 54232800 53982400 
2790.715 53718228 53442340 53157940 52868524 52577732 52289108 52007104 
2794.090 51734804 51476660 51236156 51016392 50820312 50650240 50507660 
2797.466 50393596 50308652 50252812 50225512 50226368 50254448 50309248 
2800.841 50389688 50495268 50624848 50777000 50949728 51140572 51346716 
2804.216 51565416 51793748 52029256 52269376 52511876 52754620 52994848 
2807.591 53230036 53457332 53673796 53875820 54060108 54222852 54359856 
2810.967 54467760 54543564 54585380 54592668 54566516 54508516 54420812 
2814.342 54305748 54165908 54003596 53822708 53627048 53422140 53214676 
2817.717 53011356 52819240 52645576 52496136 52377136 52293444 52248860 
2821.092 52246132 52286384 52368352 52488956 52643668 52826540 53030600 
2824.468 53249476 53476744 53706080 53931788 54148416 54350356 54532780 
2827.843 54691608 54823424 54926664 55001008 55047228 55067768 55066188 
2831.218 55046628 55013568 54971412 54924028 54874212 54824436 54775908 
2834.593 54730164 54688488 54652676 54624756 54606984 54601460 54610440 
2837.969 54635992 54680856 54748548 54843800 54972048 55140104 55355376 
2841.344 55624688 55955972 56357300 56837504 57407100 58078220 58863392 
2844.719 59775336 60823840 62012488 63335524 64774060 66295212 67847248 
2848.094 69365592 70776144 71997304 72956560 73594032 73871008 73776080 
2851.469 73324416 72556216 71525488 70298864 68946472 67531320 66111952 
2854.845 64736636 63440272 62247448 61171704 60215948 59375364 58639092 
2858.220 57993424 57422488 56911304 56446372 56015228 55607440 55214220 
2861.595 54827708 54441880 54051776 53653852 53246440 52829120 52403412 
2864.970 51972224 51540568 51115636 50705124 50318772 49965848 49654364 
2868.346 49390624 49178208 49017864 48907268 48842412 48816904 48822616 
2871.721 48851124 48893028 48939088 48981776 49015084 49034852 49039716 
2875.096 49029808 49006216 48970460 48924104 48868368 48804744 48734752 
2878.471 48660844 48585388 48510840 48439156 48371444 48308188 48249164 
2881.847 48194736 48145088 48101372 48065100 48038008 48021872 48017840 
2885.222 48027016 48049776 48086196 48135912 48197992 48271232 48354036 
2888.597 48444416 48540780 48642092 48747432 48856540 48969756 49086972 
2891.972 49208456 49334348 49464732 49600132 49741224 49888460 50042468 
2895.348 50203716 50372164 50548384 50732828 50926296 51129876 51344328 
2898.723 51569856 51805992 52051816 52305744 52566660 52833980 53108176 
2902.098 53389996 53681148 53983000 54297036 54624716 54967988 55329068 
2905.473 55711168 56118144 56554608 57025512 57536756 58094960 58708496 
2908.849 59387028 60140476 60979148 61911328 62941372 64068788 65285808 
2912.224 66578352 67923496 69290144 70642592 71937200 73128664 74175240 
2915.599 75039200 75694992 76130824 76349608 76367824 76210232 75907808 
2918.974 75489744 74980168 74397248 73750360 73041624 72268376 71426384 
2922.350 70512088 69526280 68475432 67372560 66237016 65090536 63956744 
2925.725 62857048 61807716 60820064 59899388 59045752 58255544 57523024 
2929.100 56841544 56204612 55606420 55042980 54511448 54010840 53542704 
2932.475 53109860 52716200 52366404 52064552 51813084 51612840 51462448 
2935.851 51358832 51296968 51270796 51273144 51296484 51333328 51377148 
2939.226 51422612 51466552 51507324 51545864 51583700 51622992 51665684 
2942.601 51712668 51762836 51813496 51859900 51895484 51911988 51901644 
2945.976 51856800 51772020 51646016 51481512 51286308 51071732 50851864 
2949.352 50641640 50453660 50298424 50182028 50106312 50069388 50066452 
2952.727 50091028 50135428 50192632 50256536 50321708 50384144 50441152 
2956.102 50490504 50530440 50559960 50578460 50586020 50583596 50573508 
2959.477 50558208 50540900 50524560 50511232 50503008 50500964 50505652 
2962.853 50517524 50536772 50563084 50595472 50632592 50672504 50713128 
2966.228 50752904 50790780 50826088 50858940 50889264 50917240 50942764 
2969.603 50965788 50987028 51007560 51029472 51054924 51085936 51123652 
2972.978 51168196 51218780 51273964 51332320 51392848 51454764 51517324 
2976.354 51579148 51637880 51689384 51729096 51751340 51750816 51723792 
2979.729 51668144 51583812 51473080 51340488 51191196 51031524 50867548 
2983.104 50703632 50542836 50385708 50230308 50072588 49907300 49728888 
2986.479 49532244 49314340 49073952 48812272 48531924 48235796 47926404 
2989.854 47604548 47268968 46916632 46544436 46149608 45732236 45295148 
2993.230 44844356 44387864 43933728 43488296 43054564 42632072 42216864 
2996.605 41802852 41384572 40957408 40519204 40070432 39613592 39152192 
2999.980 38689876 38230180 37775452 37327628 36888240 36458444 36039296 
3003.355 35631888 35237040 34855188 34486764 34131704 33789820 33460732 
3006.731 33143520 32837220 32540568 32252252 31971082 31696546 31428274 
3010.106 31166506 30911654 30663922 30422800 30187776 29957354 29730142 
3013.481 29504960 29281422 29059486 28839896 28624096 28413390 28209116 
3016.856 28012042 27822370 27640018 27463852 27293012 27126682 26964014 
3020.232 26805108 26650452 26501168 26358272 26223134 26096796 25979466 
3023.607 25871560 25773276 25684436 25606158 25539314 25485062 25444516 
3026.982 25417850 25404324 25401126 25404114 25407450 25403938 25386126 
3030.357 25347100 25281526 25186398 25061484 24909238 24734068 24541474 
3033.733 24337576 24127540 23915574 23705006 23497968 23295852 23099388 
3037.108 22908598 22723306 22542770 22366214 22193080 22022696 21855378 
3040.483 21691084 21530160 21372846 21219312 21069414 20923634 20782356 
3043.858 20646298 20516432 20393272 20276744 20166218 20060542 19958500 
3047.234 19859360 19763226 19670546 19582356 19499208 19420824 19346404 
3050.609 19274422 19203524 19132708 19061936 18991384 18921746 18853604 
3053.984 18786754 18720814 18655402 18590244 18525854 18462962 18402842 
3057.359 18346638 18295038 18248350 18206850 18170814 18140274 18115606 
3060.735 18096850 18083514 18074776 18069526 18066866 18066244 18068214 
3064.110 18073670 18083412 18098092 18117230 18139408 18162902 18185082 
3067.485 18203878 18217666 18225060 18224992 18216802 18199768 18173440 
3070.860 18138200 18095018 18045140 17990536 17933038 17873890 17814302 
3074.236 17755066 17696496 17639280 17583624 17529836 17477952 17427836 
3077.611 17378964 17331064 17283998 17237660 17192120 17147274 17102398 
3080.986 17056976 17009836 16960566 16908922 16855874 16802174 16749036 
3084.361 16697384 16647493 16599676 16554650 16513310 16476966 16447302 
3087.737 16425071 16409896 16400227 16393416 16386671 16378000 16366715 
3091.112 16353812 16341392 16331209 16324913 16322574 16323192 16325256 
3094.487 16327390 16328834 16329797 16331416 16334752 16341254 16351542 
3097.862 16365958 16384263 16405905 16430097 16455699 16481303 16505877 
3101.238 16528456 16548797 16567420 16585045 16602911 16622087 16642708 
3104.613 16664432 16686710 16708713 16729925 16750345 16770180 16789640 
3107.988 16809030 16828282 16847226 16866034 16885084 16904890 16926662 
3111.363 16950988 16978066 17007630 17038610 17069900 17100780 17130558 
3114.739 17158718 17185536 17210598 17233522 17254174 17271894 17286342 
3118.114 17297550 17305308 17309582 17310514 17308374 17303168 17296032 
3121.489 17288204 17281102 17276172 17274378 17275964 17280274 17286272 
3124.864 17292616 17298754 17304306 17309444 17314928 17321030 17327684 
3128.240 17334720 17341478 17347480 17352514 17356860 17361272 17366618 
3131.615 17374204 17384620 17398380 17415418 17435492 17458014 17482576 
3134.990 17508722 17536252 17565198 17595732 17627376 17659952 17692598 
3138.365 17724420 17754826 17784030 17812542 17841818 17873478 17908246 
3141.740 17945678 17985010 18023830 18060372 18093394 18122792 18150188 
3145.116 18177688 18207540 18241024 18278622 18319472 18362572 18407026 
3148.491 18452450 18499022 18547154 18597160 18648554 18700474 18751638 
3151.866 18800698 18847098 18890702 18932266 18972798 19013332 19055012 
3155.241 19098844 19145518 19195420 19248582 19304350 19361372 19418192 
3158.617 19473114 19525166 19574384 19621664 19668744 19717350 19769016 
3161.992 19824088 19882566 19943894 20007280 20072444 20139526 20208356 
3165.367 20278584 20349902 20420744 20490172 20557250 20621872 20684244 
3168.742 20745338 20806026 20866860 20928296 20990294 21052718 21115918 
3172.118 21179752 21244398 21309296 21373506 21435606 21494682 21549414 
3175.493 21599940 21647268 21692790 21738316 21785660 21835970 21889630 
3178.868 21946924 22007710 22071640 22138474 22207830 22279220 22352294 
3182.243 22426362 22501242 22576518 22652124 22727880 22803440 22878700 
3185.619 22953448 23027618 23101762 23176516 23252994 23332212 23414592 
3188.994 23500240 23588880 23679602 23771462 23864288 23957482 24051048 
3192.369 24144982 24239044 24333056 24426948 24520370 24613494 24706674 
3195.744 24800122 24894360 24989708 25086480 25184818 25285250 25387814 
3199.120 25492792 25600570 25710732 25823066 25936976 26051832 26167140 
3202.495 26282338 26396968 26510360 26622338 26732336 26840002 26945540 
3205.870 27048992 27150456 27250462 27348868 27445884 27542146 27638252 
3209.245 27735404 27835334 27939386 28048340 28162340 28280474 28401186 
3212.621 28522606 28643350 28762710 28880864 28998344 29115676 29233468 
3215.996 29351502 29469464 29586924 29703672 29819422 29934528 30049238 
3219.371 30163694 30278076 30392840 30507886 30623672 30740096 30857510 
3222.746 30975416 31093890 31212396 31330648 31448792 31566862 31685248 
3226.122 31804200 31923294 32041990 32159898 32276270 32390922 32503962 
3229.497 32615282 32724916 32832362 32937222 33038784 33137084 33233040 
3232.872 33327732 33422906 33519932 33619304 33720524 33822412 33923428 
3236.247 34022536 34119692 34215364 34310772 34407352 34505740 34606704 
3239.623 34710376 34816524 34925024 35035348 35147032 35258852 35369480 
3242.998 35477580 35582148 35683756 35783584 35883944 35987420 36095824 
3246.373 36209940 36329528 36453256 36579072 36705572 36831572 36956744 
3249.748 37081444 37206252 37331852 37459008 37588692 37721200 37857472 
3253.124 37997548 38140452 38285580 38431112 38575284 38717220 38856416 
3256.499 38993188 39128520 39263492 39398904 39535196 39672656 39811100 
3259.874 39950432 40090344 40230888 40371952 40513348 40654788 40796028 
3263.249 40937416 41078892 41221428 41365148 41510692 41658008 41807304 
3266.625 41957928 42110212 42264192 42420240 42578856 42740428 42904580 
3270.000 43070772 43238012 43405096 43570784 43734444 43895560 44054028 
3273.375 44210568 44365956 44521472 44678624 44838444 45002104 45170272 
3276.750 45343032 45519800 45700392 45883824 46069356 46256520 46444904 
3280.125 46633776 46823024 47012504 47202512 47393708 47587508 47785048 
3283.501 47987456 48195512 48408928 48626972 48848608 49072804 49298676 
3286.876 49526188 49755604 49987260 50221752 50459576 50700880 50946080 
3290.251 51195448 51449132 51707336 51970208 52237800 52510344 52787848 
3293.626 53070544 53358448 53651076 53947468 54246616 54547056 54848124 
3297.002 55150184 55454604 55763004 56077804 56400232 56730484 57068016 
3300.377 57411408 57759316 58111584 58468884 58832776 59205360 59588340 
3303.752 59981892 60385660 60797960 61216640 61640272 62067296 62497424 
3307.127 62930880 63368724 63812152 64263372 64724632 65197744 65683900 
3310.503 66183104 66693848 67213984 67741280 68273520 68810224 69352064 
3313.878 69900880 70458576 71027016 71606792 72197584 72798400 73408056 
3317.253 74025320 74649520 75280376 75917352 76560720 77210192 77866024 
3320.628 78528216 79196464 79870160 80547696 81226888 81905592 82581784 
3324.004 83254616 83924064 84590888 85255960 85918976 86579048 87233800 
3327.379 87880336 88516128 89139272 89748440 90342808 90921432 91483032 
3330.754 92025792 92548312 93049504 93528544 93985280 94419280 94828848 
3334.129 95212072 95566112 95889232 96180392 96440632 96671968 96876544 
3337.505 97055576 97208656 97333800 97428328 97489664 97515960 97506504 
3340.880 97460928 97379448 97260792 97103848 96907232 96669816 96391192 
3344.255 96072200 95713248 95314560 94876336 94398688 93881912 93327344 
3347.630 92737792 92116392 91466672 90791544 90092544 89370864 88627176 
3351.006 87862368 87078288 86277112 85460592 84630504 83788016 82933688 
3354.381 82068976 81196408 80319088 79441584 78567760 77700480 76841696 
3357.756 75992096 75152008 74322224 73504032 72699528 71910728 71138784 
3361.131 70383408 69642952 68915136 68198152 67490752 66793656 66108092 
3364.507 65436020 64779444 64139448 63516816 62911576 62323400 61752176 
3367.882 61197532 60658908 60135112 59625132 59127408 58640760 58164316 
3371.257 57697284 57238848 56788104 56343792 55904716 55470192 55040724 
3374.632 54617128 54201116 53794464 53397752 53010944 52632744 52261304 
3378.008 51895260 51533704 51176732 50825156 50479412 50139668 49804948 
3381.383 49473828 49144260 48814976 48485128 48154788 47824592 47495528 
3384.758 47168344 46843656 46522196 46204328 45890564 45581324 45276612 
3388.133 44976376 44680168 44387208 44096312 43807152 43519172 43232336 
3391.509 42946896 42663328 42382280 42104700 41830872 41560716 41294228 
3394.884 41029832 40765964 40501200 40234632 39966412 39698904 39435008 
3398.259 39177904 38930124 38692120 38462280 38237380 38013748 37788068 
3401.634 37559104 37327268 37094180 36862304 36633648 36408752 36187432 
3405.010 35968776 35751568 35535432 35320844 35108052 34897700 34689852 
3408.385 34483932 34279004 34073928 33868080 33660940 33452644 33243518 
3411.760 33034426 32826178 32619390 32415200 32214280 32017234 31824130 
3415.135 31634602 31447832 31262316 31077552 30892942 30708478 30524734 
3418.510 30341956 30160606 29980608 29802210 29625482 29451168 29280642 
3421.886 29114686 28954352 28799636 28650002 28504028 28360402 28217780 
3425.261 28075626 27933626 27791568 27649234 27505786 27360514 27212644 
3428.636 27062356 26910218 26757956 26607438 26460176 26317154 26178718 
3432.011 26043880 25912074 25782488 25654558 25528176 25403024 25278788 
3435.387 25154586 25029508 24903096 24774934 24645686 24516548 24388918 
3438.762 24263816 24141866 24022682 23905210 23788016 23669804 23549700 
3442.137 23427566 23303788 23179276 23055044 22931478 22809064 22686998 
3445.512 22564582 22440946 22315738 22188686 22060414 21931692 21803462 
3448.888 21676246 21550390 21425092 21300246 21175474 21050876 20927148 
3452.263 20805400 20686260 20570174 20456688 20344554 20232446 20119050 
3455.638 20003670 19886450 19768392 19650436 19533900 19419890 19308230 
3459.013 19198952 19091366 18984808 18878660 18772846 18666954 18560850 
3462.389 18454560 18348228 18241576 18134400 18026488 17917498 17807260 
3465.764 17696118 17584658 17473918 17364894 17258726 17155926 17056356 
3469.139 16959324 16864104 16769389 16674727 16579537 16483678 16386636 
3472.514 16288035 16187288 16083743 15977304 15867934 15756978 15645739 
3475.890 15535903 15428671 15324896 15224785 15127474 15032382 14938373 
3479.265 14844247 14748840 14651362 14551371 14449074 14345601 14243113 
3482.640 14143901 14050426 13963986 13884302 13809833 13737189 13662505 
3486.015 13582808 13496290 13402852 13304275 13203638 13104355 13009226 
3489.391 12920229 12837869 12761600 12689847 12620289 12550674 12479126 
3492.766 12403875 12324238 12239947 12152026 12061603 11970483 11880574 
3496.141 11793305 11710547 11632944 11561275 11495129 11433518 11374263 
3499.516 11314710 11251968 11183321 11107511 11023999 10934320 10840752 
3502.892 10745948 10652795 10563395 10479039 10400603 10328220 10262026 
3506.267 10201030 10144250 10089477 10033965 9975375 9912048 9843542 9771287 
3510.124 9698164 9627525 9561707 9502606 9449742 9401795 9356832 9312720 
3513.982 9267902 9221566 9172933 9121735 9067463 9009984 8949875 8888354 
3517.839 8827314 8769157 8715977 8668550 8626333 8587433 8549178 8508730 
3521.697 8463995 8414163 8359473 8301074 8240118 8177954 8115732 8053924 
3525.554 7993608 7935664 7880900 7829921 7782725 7738301 7695062 7651321 
3529.411 7605696 7557986 7509168 7461064 7416335 7376633 7342932 7313953 
3533.269 7287434 7260142 7228607 7190774 7146074 7095753 7042576 6990045 
3537.126 6941056 6897761 6860765 6829158 6801626 6776485 6752119 6727721 
3540.984 6702786 6676743 6649186 6619411 6586577 6549507 6507428 6459401 
3544.841 6405865 6347459 6285633 6223110 6162948 6107533 6059248 6018829 
3548.698 5984999 5955303 5926348 5894305 5856891 5813201 5764041 5712001 
3552.556 5660067 5610489 5564641 5522155 5482156 5443401 5405422 5368453 
3556.413 5333096 5299990 5269201 5239856 5210211 5178657 5143584 5105028 
3560.271 5063893 5021791 4980631 4942022 4906868 4874766 4844744 4814992 
3564.128 4782930 4745243 4698817 4640809 4570218 4487987 4398610 4308715 
3567.986 4224828 4152966 4095499 4051250 4016669 3986405 3955408 3920200 
3571.843 3879445 3833814 3785480 3737452 3692103 3650701 3613446 3578901 
3575.700 3545394 3511154 3474680 3435069 3392423 3347177 3300366 3253159 
3579.558 3206659 3161766 3119547 3080603 3045432 3014035 2986643 2962623 
3583.415 2941406 2921257 2899709 2873892 2840506 2796718 2741330 2676148 
3587.273 2604609 2533148 2469030 2417049 2380166 2357978 2346585 2340955 
3591.130 2335292 2324599 2305345 2276199 2238063 2193736 2147216 2102465 
3594.988 2063046 2030821 2005954 1987647 1973933 1962949 1952365 1940449 
3598.845 1925872 1907767 1886336 1862509 1838418 1816357 1798556 1786778 
3602.702 1781588 1782021 1786113 1791104 1793499 1790006 1777296 1752711 
3606.560 1714454 1662331 1598108 1525782 1451008 1379670 1316786 1264212 
3610.417 1220781 1182904 1145993 1106528 1062947 1017112 973275 936548 
3614.275 911114 898696 897002 901717 906498 904905 891856 864598 823332 
3618.614 771482 715356 661726 617328 586470 570744 568454 577180 592940 
3622.954 612649 634317 657744 683297 711572 741576 769921 790203 793721 
3627.293 770917 715887 629804 523601 415865 326691 267905 241117 238663 
3631.633 249206 261340 266446 260379 244034 221524 198286 179259 166696 
3635.973 160000 156785 153934 149493 142731 134710 126590 119630 114493 
3640.312 110714 107698 105511 104318 105743 111245 122281 138820 159967 
3644.652 183269 205247 222717 232563 232364 220563 196330 159403 110516 
3648.991 52122 -11596 -74147 -127481 -164081 -179648 -173090 -147487 -108864 
3653.331 -65335 -25048 4903 19251 16633 -165 -23557 -44794 -55297 -50625 
3658.153 -30747 132 34924 66670 89007 98220 94011 79263 59247 39696 25911 
3663.457 21338 27734 45661 75386 117111 170508 235017 308388 387178 468569 
3668.279 552331 644603 759366 918252 1144797 1455529 1856187 2340355 2895773 
3672.618 3506211 4152899 4812613 5443133 5981640 6351696 6479714 6329136 
3676.476 5916607 5301198 4556422 3750419 2942073 2176219 1490106 912641 
3680.333 457158 121221 -112376 -268104 -371207 -440360 -485241 -508773 
3684.190 -511056 -493714 -462338 -426126 -396135 -382595 -391931 -425663 
3688.048 -479052 -543819 -610496 -670909 -720332 -756916 -780598 -792373 
3691.905 -793861 -787775 -777026 -764987 -753906 -744612 -736078 -726055 
3695.763 -712261 -693074 -668726 -641200 -613672 -589749 -572476 -564270 
3699.620 -566686 -580286 -604672 -637891 -676533 -715403 -749540 -774116 
3703.478 -786386 -786122 -775174 -756652 -733961 -710309 -687550 -667138 
3707.335 -649669 -635542 -625782 -621447 -624128 -634880 -654169 -681099 
3711.192 -713716 -748449 -781524 -809273 -828951 -839500 -841517 -837020 
3715.050 -828454 -818401 -808909 -800277 -791347 -780367 -764888 -744049 
3718.907 -718314 -690692 -665219 -646262 -636237 -635145 -641067 -649570 
3722.765 -656452 -658602 -655558 -648578 -640604 -634318 -631572 -632300 
3726.622 -634351 -634616 -629818 -617709 -598286 -572940 -545275 -519495 
3730.479 -499870 -489345 -489014 -497818 -512446 -529887 -548949 -570987 
3734.337 -598749 -635410 -680834 -730984 -777952 -812679 -829215 -825643 
3738.194 -804940 -772594 -733762 -693140 -652515 -613110 -576315 -545077 
3742.052 -525618 -526611 -556129 -617047 -701311 -789594 -856398 -883216 
3745.909 -866319 -815160 -745538 -674019 -615029 -578433 -568969 -585977 
3749.767 -625021 -678717 -739518 -800939 -856928 -901072 -928152 -934268 
3753.624 -919522 -887813 -846279 -803221 -765814 -739154 -725493 -723938 
3757.481 -732538 -748382 -769882 -795746 -824254 -852893 -877330 -892574 
3761.339 -895914 -886788 -868733 -847040 -828322 -816615 -813969 -817938 
3765.196 -824453 -828322 -826206 -818103 -806329 -795052 -788073 -787345 
3769.054 -792902 -802460 -812481 -820418 -824420 -824420 -821410 -817177 
3772.911 -813242 -810728 -810100 -810927 -812150 -812316 -810133 -805073 
3776.769 -797962 -790818 -786056 -785824 -790653 -798987 -806826 -810133 
3780.626 -805999 -793762 -775769 -756155 -739352 -728867 -725923 -729793 
3784.483 -738162 -748250 -757942 -766177 -772594 -776960 -778978 -777886 
3788.341 -773388 -765450 -755725 -746431 -739452 -735879 -734424 -732902 
3792.198 -727940 -717587 -701973 -684241 -669553 -662705 -667038 -681926 
3796.056 -702502 -720465 -727973 -719968 -696548 -662936 -628726 -605268 
3799.913 -601959 -624128 -668990 -725327 -775835 -804147 -801369 -768294 
3803.771 -714179 -652085 -597492 -562913 -556229 -578896 -623300 -676533 
3807.628 -723177 -753212 -763234 -757181 -741370 -722350 -703792 -685730 
3811.485 -665550 -640009 -607385 -569234 -531178 -500764 -486334 -493019 
3815.343 -519727 -558049 -594713 -616584 -616385 -595077 -560498 -525122 
3819.200 -501889 -502054 -531277 -586804 -656849 -724202 -773619 -796672 
3823.058 -794291 -774082 -746133 -719803 -701047 -691586 -688906 -688013 
3826.915 -682918 -669553 -647651 -620190 -591867 -568274 -553449 -549213 
3830.772 -554839 -566884 -580650 -590974 -593720 -587069 -571120 -548551 
3834.630 -523566 -501525 -488088 -487194 -500962 -527703 -563277 -600966 
3838.487 -634318 -658966 -673854 -680735 -682587 -683150 -684804 -688476 
3842.345 -693603 -698731 -701874 -700881 -694232 -680669 -660422 -634153 
3846.202 -603547 -570425 -536506 -502617 -468693 -433309 -395010 -353032 
3850.060 -308865 -267475 -237108 -228763 -253765 -318367 -419572 -541304 
3853.917 -659793 -753344 -810497 -831861 -825346 -801104 -766938 -728404 
3857.774 -689038 -650430 -614268 -582403 -556394 -537565 -525949 -520257 
3861.632 -518337 -518304 -519330 -522275 -528530 -538491 -550074 -558876 
3865.489 -559075 -546268 -519793 -483884 -447542 -421128 -414706 -433839 
3869.347 -476768 -533196 -587532 -626907 -644541 -642258 -628098 -611720 
3873.204 -601165 -599974 -606492 -615029 -619065 -613076 -595805 -569895 
3877.062 -540212 -512446 -491464 -480277 -479648 -487459 -499738 -510957 
3880.919 -516484 -512512 -498083 -475842 -450091 -427152 -414342 -417288 
3884.776 -437612 -472102 -511917 -545176 -561424 -555898 -530119 -491497 
3888.634 -450223 -416725 -400074 -405040 -430926 -471705 -517874 -559207 
3892.491 -587334 -598319 -591867 -570292 -537333 -496891 -453070 -409409 
3896.349 -369221 -335451 -309957 -293799 -286216 -285488 -289097 -294130 
3900.206 -299196 -303699 -309163 -317606 -331214 -351542 -378192 -408913 
3904.063 -439929 -466309 -484215 -491133 -486698 -472929 -452607 -429238 
3907.921 -405967 -384846 -367102 -352634 -340683 -330287 -320552 -310454 
3911.778 -299594 -287607 -274461 -260653 -247341 -236082 -229326 -229392 
3915.636 -237473 -253235 -275024 -298998 -320718 -337107 -345814 -346642 
3919.493 -340881 -330485 -317506 -303732 -290819 -279958 -272872 -271415 
3923.351 -276647 -288700 -306083 -325784 -343563 -355846 -359918 -355780 
3927.208 -344755 -329393 -312440 -295819 -280521 -267375 -256414 -248434 
3931.065 -244394 -245188 -250619 -259825 -270786 -281084 -289163 -294229 
3934.923 -296978 -299097 -301713 -305752 -310255 -313566 -313732 -309328 
3938.780 -300587 -288700 -276746 -267044 -261845 -261680 -265885 -272342 
3942.638 -278601 -282276 -281846 -276647 -267210 -255123 -242440 -231048 
3946.495 -223067 -219722 -221047 -226445 -234260 -242705 -250288 -256249 
3950.353 -260421 -263335 -265289 -266183 -265885 -263700 -259494 -254030 
3954.210 -248599 -244659 -243731 -246381 -251811 -258203 -263700 -266349 
3958.067 -265388 -261050 -254593 -247540 -241049 -235949 -232340 -229823 
3961.925 -227736 -225882 -223961 -222106 -220583 -219821 -219921 -221279 
3965.782 -224160 -228366 -233697 -238698 -242738 -244394 -242738 -237771 
3969.640 -229955 -220484 -210813 -202070 -195148 -190578 -188458 -188458 
3973.497 -190280 -193327 -196440 -198460 -198195 -194784 -187928 -178423 
3977.354 -167824 -157821 -150005 -145235 -143115 -142916 -143016 -142850 
3981.212 -141989 -141194 -141260 -143082 -147023 -152853 -159477 -165903 
3985.069 -171269 -175111 -177065 -177628 -176932 -175309 -172892 -169613 
3988.927 -165539 -160604 -154410 -146957 -137948 -127481 -116019 -104624 
3992.784 -94156 -86073 -80872 -78686 -78619 -79613 -80872 -81336 -81435 
3997.124 -81700 -82926 -86040 -91009 -97204 -103895 -109991 -114926 
##END=
