
##TITLE=1708_3_c
##JCAMP-DX=5.01  $$ Nicolet v. 1
##DATATYPE=INFRARED SPECTRUM
##ORIGIN=UniL
##OWNER=Nicolet
##LONGDATE=2011/09/08
##TIME=13:45:16
##SPECTROMETER/DATA SYSTEM=Nicolet iS5
##DATA PROCESSING=
Ratio against background
%Transmittance->Absorbance
Truncated
ElementMultiply or ElementDivide
##COMMENTS=
Number of sample scans: 32
Collection length: 51.16 sec
Sample gain: 2.0
Background collected on: Jeu Sep 08 13:38:27 2011 (GMT+02:00);
Number of background scans: 32
Background gain: 2.0
Sample spacing:  1.000
Number of scan points: 12415
Resolution points: 8192
Number of FFT points: 65536
Apodization: N-B fort;
Phase correction: Mertz;
Laser frequency: 15798.0 cm-1
Number of rejected sample scans: 0
Number of rejected background scans: 0
Bench serial number: ASB1000141;
##RESOLUTION=4.000
##XUNITS=1/CM
##YUNITS=ABSORBANCE
##FIRSTX=649.893372
##LASTX=4000.122314
##FIRSTY=0.100073
##MAXX=4000.122314
##MINX=649.893372
##MAXY=0.282987
##MINY=-0.000612
##XFACTOR=1.000000
##YFACTOR=1.000000E-009
##NPOINTS=6950
##DELTAX=0.482117
##ZPD=6100
##XYDATA=(X++(Y..Y))
649.893 100073416 99984736 99981192 100077096 100264632 100520232 100815592 
653.268 101133872 101477072 101860552 102301280 102805504 103362728 
656.161 103953720 104560896 105183112 105837328 106551688 107348512 
659.054 108230656 109176504 110149392 111117784 112070248 113023720 
661.946 114012560 115073480 116223240 117449952 118715856 119973096 
664.839 121178616 122290584 123267976 124055352 124571320 124730920 
667.732 124485744 123869608 122987512 121956592 120840584 119636440 
670.624 118296272 116763664 115006760 113036792 110911984 108714584 
673.517 106533944 104432472 102436120 100545872 98752272 97052352 95455344 
676.892 93976680 92626232 91401072 90283080 89246448 88266728 87330736 
680.267 86436304 85588648 84791184 84041216 83327984 82638728 81963760 
683.642 81304272 80669248 80074624 79533304 79050792 78622992 78239488 
687.016 77887152 77555320 77237344 76928824 76624952 76317576 75995656 
690.391 75647584 75266144 74851144 74410232 73955184 73498024 73047664 
693.766 72609080 72186248 71785744 71419120 71102376 70851024 70672024 
697.141 70557840 70483048 70408888 70287296 70075624 69747440 69296552 
700.516 68739224 68107488 67443184 66784652 66163188 65597916 65095304 
703.890 64651488 64256452 63899204 63569172 63258976 62965124 62686972 
707.265 62426256 62185732 61968228 61776808 61615068 61488772 61407548 
710.640 61385716 61443580 61602124 61878052 62274640 62773952 63333036 
714.015 63881428 64339904 64629300 64689404 64496056 64063104 63441232 
717.390 62701940 61933724 61227704 60665956 60328396 60283396 60578104 
720.765 61230376 62207376 63417532 64697100 65839528 66628484 66868820 
724.139 66448212 65358096 63702940 61666472 59475020 57349204 55444176 
727.514 53846376 52570624 51581944 50820500 50225584 49751888 49367276 
730.889 49051696 48791360 48573716 48388740 48230352 48098228 47996632 
734.264 47931212 47904904 47915820 47957260 48020504 48099116 48190960 
737.639 48298336 48425300 48574940 48747060 48938532 49144928 49362744 
741.013 49590512 49827652 50072104 50317916 50553148 50761284 50925144 
744.388 51027680 51055820 51000108 50852272 50604632 50249392 49781316 
747.763 49202144 48523880 47771476 46978132 46181368 45416788 44710064 
751.138 44078048 43528148 43061952 42678204 42375488 42152928 42009316 
754.513 41943040 41950484 42024864 42154936 42325988 42516952 42704784 
757.888 42867492 42986660 43053572 43070440 43049844 43010328 42971408 
761.262 42948544 42948948 42974116 43022256 43093052 43192224 43334180 
764.637 43541184 43846736 44294000 44930996 45810396 46973296 48431928 
768.012 50149788 52027836 53910592 55591132 56869340 57597736 57723092 
771.387 57316160 56557700 55701000 54978256 54549352 54447328 54573844 
774.762 54724492 54651548 54156972 53131204 51596572 49683600 47601888 
778.136 45573968 43775672 42325772 41263004 40564348 40165572 39990644 
781.511 39971172 40052772 40201412 40398820 40635760 40910220 41223144 
784.886 41578804 41981796 42436932 42947444 43514556 44139004 44823084 
788.261 45571868 46395972 47310052 48330152 49473160 50753948 52185712 
791.636 53782952 55563040 57546136 59755832 62212460 64926364 67890560 
795.010 71077632 74436856 77894568 81369648 84775832 88035728 91100304 
798.385 93957104 96644272 99245192 101888376 104720104 107863000 111388288 
801.760 115267600 119355776 123364768 126903160 129545168 130873696 
804.653 130611152 128680256 125239744 120647768 115386296 109969192 
807.546 104788336 100075008 95868904 92052336 88415768 84742048 80892648 
810.920 76829720 72625568 68416744 64369804 60627744 57278768 54361808 
814.295 51867520 49759360 47988200 46506268 45272384 44249200 43405428 
817.670 42713776 42149752 41695864 41339852 41074084 40893836 40794972 
821.045 40772952 40823872 40945608 41139756 41410992 41766812 42214820 
824.420 42760208 43405428 44148576 44983724 45899252 46876984 47892180 
827.794 48911496 49900312 50827576 51675124 52446892 53173780 53917272 
831.169 54757564 55790580 57115516 58810996 60924476 63447596 66303552 
834.544 69326448 72263680 74817880 76652816 77474752 77101320 75488800 
837.919 72761576 69171272 65067136 60802876 56680232 52934096 49693076 
841.294 47000656 44835248 43137660 41831928 40839524 40093800 39535884 
844.669 39116372 38799388 38558484 38379280 38256524 38190780 38182780 
848.043 38230904 38328644 38467168 38638624 38838152 39065508 39323196 
851.418 39613960 39938368 40294504 40679424 41091492 41533116 42010336 
854.793 42530656 43100956 43725280 44404568 45139684 45935016 46800068 
858.168 47753168 48818796 50024512 51402620 52986872 54811056 56910324 
861.543 59311700 62023800 65020024 68225216 71508416 74673008 77492536 
864.917 79732272 81178272 81692624 81225376 79830376 77647704 74888784 
868.292 71801536 68614024 65530292 62700376 60210044 58099200 56367144 
871.667 54989200 53927696 53142248 52596168 52254616 52087972 52071536 
875.042 52183280 52407452 52734232 53160860 53690704 54331360 55091012 
878.417 55972824 56970008 58060948 59209540 60362468 61453728 62418492 
881.792 63195392 63742004 64044520 64120056 64015336 63793540 63527516 
885.166 63280784 63097788 63004964 63009404 63107640 63291900 63556516 
888.541 63899048 64317928 64810412 65368840 65980100 66629188 67299664 
891.916 67977504 68651744 69312296 69948480 70548600 71098704 71585032 
895.291 71997504 72329976 72581712 72756168 72860352 72903776 72898712 
898.666 72862040 72812664 72770784 72754640 72775640 72836560 72931712 
902.040 73049624 73177920 73307184 73435128 73566160 73710544 73880664 
905.415 74091176 74357184 74693984 75119592 75652240 76308848 77103456 
908.790 78044448 79134280 80370872 81750368 83269544 84927744 86726320 
912.165 88668256 90757240 92998112 95400360 97981856 100769168 103800520 
915.540 107120920 110772864 114792080 119196656 123981560 129109072 
918.432 134502336 140043504 145550960 150788880 155484096 159327008 
921.325 162043744 163447104 163483952 162275696 160118080 157472528 
924.218 154861872 152834928 151892768 152377552 154456592 158065696 
927.110 162925424 168531824 174219696 179303824 183105808 185108320 
930.003 185037232 182851376 178728752 172977568 165986816 158141600 
932.896 149790096 141260384 132830024 124739928 117206200 110391304 
935.789 104414224 99350672 95228120 92043072 89770112 88372304 87801488 
939.163 87992024 88856496 90262320 92028864 93946656 95770048 97262784 
942.538 98237608 98564472 98203920 97202104 95683264 93816560 91784800 
945.913 89767184 87899360 86271976 84930648 83880256 83100120 82556056 
949.288 82213856 82042368 82015792 82114128 82318608 82611632 82977360 
952.663 83402776 83878680 84400944 84967112 85574936 86219728 86893808 
956.037 87588032 88294864 89009632 89731656 90462840 91205304 91958832 
959.412 92720968 93488112 94258328 95033096 95817840 96618944 97441680 
962.787 98287008 99151552 100028992 100912984 101800904 102693632 103594712 
966.162 104507792 105434224 106372560 107320040 108274960 109238664 
969.055 110215712 111211256 112228752 113267208 114322040 115386992 
971.947 116457952 117535376 118624016 119731624 120864440 122025488 
974.840 123213368 124425376 125660328 126920344 128210528 129536552 
977.733 130899664 132294816 133710768 135131888 136543728 137935280 
980.625 139299360 140630032 141919600 143156144 144325440 145414512 
983.518 146416096 147332384 148174080 148957072 149695840 150402224 
986.411 151083728 151746608 152400032 153057760 153736400 154452608 
989.304 155216800 156031072 156889376 157782560 158703008 159648464 
992.196 160621616 161627200 162667312 163738400 164831856 165937312 
995.089 167047600 168161728 169283776 170418880 171569536 172732048 
997.982 173898048 175058768 176209776 177354272 178502096 179665088 
1000.874 180852000 182066144 183305936 184569040 185857120 187178112 
1003.767 188543872 189966608 191452272 192998768 194598128 196241968 
1006.660 197927120 199658448 201446496 203301728 205227568 207217456 
1009.552 209254704 211318208 213389552 215453824 217498272 219508128 
1012.445 221459072 223317296 225046688 226614624 228006064 229226432 
1015.338 230301120 231265632 232155920 233003504 233830752 234656464 
1018.231 235500336 236383120 237325920 238344272 239443472 240618704 
1021.123 241861168 243166304 244541520 246008672 247597280 249336848 
1024.016 251245952 253327280 255569968 257956416 260469552 263093136 
1026.909 265808608 268584992 271366112 274073504 276606976 278852320 
1029.802 280704512 282066496 282851360 282986688 282404000 281045952 
1032.695 278881184 275912960 272192128 267809744 262893952 257586688 
1035.588 252022320 246333008 240636544 235038576 229646672 224557936 
1038.481 219857328 215617936 211888656 208698112 206056672 203956704 
1041.374 202369616 201235408 200458784 199891888 199333248 198562144 
1044.267 197343824 195479520 192853024 189438016 185310880 180622272 
1047.160 175581056 170408960 165303760 160439840 155939008 151871568 
1050.053 148266368 145111936 142369488 139981616 137887488 136029248 
1052.947 134356976 132835208 131437432 130142720 128933536 127790584 
1055.840 126694008 125626312 124572560 123522344 122468848 121405376 
1058.733 120324656 119218192 118077792 116899784 115687336 114451904 
1061.626 113210528 111982328 110786552 109637976 108548208 107526008 
1064.519 106578408 105708824 104915600 104188120 103503704 102827712 
1067.412 102121288 101343696 100463560 99465944 98353456 97146240 95875432 
1070.787 94580616 93301504 92072360 90922288 89870072 88924568 88084752 
1074.162 87341432 86679560 86081136 85529984 85013296 84522208 84051144 
1077.538 83594648 83145416 82694120 82230512 81746688 81240672 80718560 
1080.913 80194208 79685648 79213440 78796440 78449256 78184584 78012560 
1084.288 77942224 77983024 78143280 78429488 78846144 79395120 80076776 
1087.663 80890528 81833888 82900920 84078128 85343824 86665768 88004720 
1091.039 89323728 90591568 91790896 92920128 93990512 95019120 96021024 
1094.414 97004952 97970104 98908904 99813048 100680920 101522488 102364056 
1097.789 103242640 104200040 105271936 106470944 107775096 109116392 
1100.682 110389256 111452184 112148008 112343960 111942800 110910280 
1103.575 109279576 107145680 104646520 101930232 99150592 96437200 93884704 
1106.950 91558952 89490640 87682864 86118552 84767144 83591272 82550120 
1110.326 81606488 80727016 79882224 79048728 78206720 77339520 76436016 
1113.701 75490416 74504344 73486960 72454336 71426976 70425016 69467288 
1117.076 68567768 67734776 66973032 66283524 65665364 65116056 64631572 
1120.451 64206436 63832952 63502392 63205548 62931648 62669404 62404568 
1123.827 62117680 61785940 61381900 60877736 60252336 59493752 58604848 
1127.202 57602200 56515660 55382704 54240044 53122552 52055964 51055260 
1130.577 50126136 49266128 48467420 47719252 47010512 46331752 45675952 
1133.952 45040068 44424968 43834968 43276040 42754868 42276976 41845612 
1137.328 41462172 41126752 40838724 40598212 40405512 40261132 40164628 
1140.703 40114692 40109240 40146092 40223800 40341768 40500324 40699256 
1144.078 40937416 41211084 41515324 41844188 42191448 42552180 42922464 
1147.453 43298592 43676880 44053588 44425044 44788848 45144540 45493676 
1150.829 45839008 46183840 46530792 46881228 47235608 47594012 47956964 
1154.204 48325040 48698724 49076960 49456972 49833936 50202080 50554376 
1157.579 50885092 51188436 51458796 51689940 51874612 52004980 52073704 
1160.954 52074900 52004304 51860312 51642208 51350220 50984792 50546820 
1164.330 50039088 49465884 48834888 48155752 47439164 46696896 45939764 
1167.705 45177628 44420348 43677392 42958420 42273468 41631312 41039192 
1171.080 40502108 40022688 39601976 39240676 38940380 38703856 38535164 
1174.455 38438172 38416596 38473108 38609688 38828912 39134864 39533088 
1177.831 40031260 40637436 41359860 42206712 43185780 44305704 45576984 
1181.206 47010436 48617592 50409372 52394256 54578464 56964416 59550224 
1184.581 62325120 65264092 68325912 71442088 74518824 77447464 80100680 
1187.956 82354264 84102296 85259024 85775728 85641960 84886608 83572040 
1191.332 81785768 79635624 77228360 74666792 72044864 69435568 66897652 
1194.707 64474264 62191736 60064524 58096472 56283024 54614460 53078448 
1198.082 51663220 50358916 49158580 48058956 47058956 46158636 45357524 
1201.457 44653616 44042768 43518808 43074096 42700872 42391156 42136168 
1204.833 41926688 41751200 41596524 41449488 41298016 41133308 40951580 
1208.208 40753188 40542300 40324572 40105716 39890748 39684272 39491536 
1211.583 39319604 39177360 39075620 39025740 39037664 39119852 39277928 
1214.958 39515088 39833036 40231760 40709700 41263440 41888228 42577944 
1218.333 43326708 44130460 44986960 45896344 46860116 47880340 48959112 
1221.709 50099136 51303940 52578516 53929088 55361476 56878672 58478700 
1225.084 60152996 61887104 63661500 65451348 67230112 68968608 70634136 
1228.459 72195672 73623312 74893464 75993448 76922928 77694936 78332968 
1231.834 78871408 79352592 79822736 80337144 80955800 81738616 82749632 
1235.210 84046800 85678200 87683560 90089000 92908928 96146984 99795784 
1238.585 103835576 108228144 112919800 117836288 122884872 127970504 
1241.478 132995080 137866048 142506096 146842144 150806464 154336448 
1244.371 157367952 159840144 161699120 162894272 163382672 163131504 
1247.264 162119216 160344288 157828624 154620368 150784944 146394928 
1250.157 141521072 136219456 130534936 124508424 118184952 111626824 
1253.050 104919608 98162632 91472440 84970056 78760920 72940696 67579736 
1256.426 62716028 58361616 54501568 51101736 48114624 45488820 43175644 
1259.801 41128716 39309592 37687160 36234972 34932960 33764892 32716234 
1263.176 31774432 30926954 30161104 29466024 28832390 28253422 27725658 
1266.551 27246758 26814942 26427532 26080576 25769830 25492158 25246550 
1269.927 25034738 24860640 24728912 24643512 24607078 24621980 24690472 
1273.302 24816646 25006518 25266532 25602502 26016828 26506382 27061156 
1276.677 27662796 28286486 28899068 29461734 29936268 30286246 30485600 
1280.052 30523668 30407268 30158900 29810656 29399790 28958460 28509938 
1283.427 28068204 27638924 27223262 26822376 26439118 26078150 25744938 
1286.803 25443076 25174072 24937312 24731650 24556586 24412158 24299064 
1290.178 24216166 24159976 24125332 24106664 24099974 24105298 24126594 
1293.553 24169680 24240970 24345006 24483804 24658346 24869764 25121058 
1296.928 25417638 25766666 26174918 26648056 27190526 27805344 28495184 
1300.304 29260688 30098738 30997728 31933922 32873600 33770728 34575808 
1303.679 35244800 35742464 36050456 36168272 36111988 35910792 35601532 
1307.054 35227516 34830700 34448956 34114672 33849028 33661980 33552322 
1310.429 33510480 33521790 33570008 33642144 33727612 33818184 33907520 
1313.805 33988388 34053212 34095896 34111808 34098904 34058048 33990932 
1317.180 33898744 33781440 33638348 33469432 33276968 33066568 32846082 
1320.555 32623642 32405916 32196402 31996086 31805768 31627442 31466462 
1323.930 31330936 31229878 31172132 31163908 31208944 31310350 31470880 
1327.306 31693448 31979822 32327558 32728668 33167840 33626176 34084640 
1330.681 34527264 34945420 35336516 35701992 36044160 36362672 36653800 
1334.056 36912116 37132148 37310840 37448680 37549532 37619480 37665260 
1337.431 37695868 37721816 37756332 37816696 37920996 38084528 38317712 
1340.807 38623556 38998192 39434244 39923584 40459480 41036208 41648304 
1344.182 42289868 42953996 43634892 44329408 45037424 45759884 46493912 
1347.557 47226448 47931880 48568084 49081856 49420732 49536696 49399720 
1350.932 49002472 48361780 47515900 46517144 45429956 44319136 43243648 
1354.308 42256524 41395688 40684372 40130936 39730420 39468972 39328564 
1357.683 39293416 39350548 39489976 39703080 39979600 40306976 40673276 
1361.058 41069312 41493052 41950412 42453412 43013880 43635664 44311280 
1364.433 45020148 45732236 46408324 47006968 47485516 47800400 47915744 
1367.809 47806872 47465628 46903340 46149200 45244692 44231552 43149440 
1371.184 42029500 40892816 39757612 38643476 37574964 36586244 35713936 
1374.559 34987508 34421840 34012468 33740360 33580532 33513990 33534784 
1377.934 33652780 33891760 34286068 34879496 35718396 36853036 38331360 
1381.310 40182472 42399012 44912400 47590760 50227444 52568120 54361660 
1384.685 55365768 55400548 54382764 52353732 49498820 46113016 42565080 
1388.060 39183092 36191572 33700328 31710126 30159858 28961436 28031586 
1391.435 27300244 26712814 26232848 25835268 25505828 25239946 25039336 
1394.811 24908606 24849976 24861132 24934116 25058818 25223512 25418412 
1398.186 25635858 25870082 26117910 26378272 26652072 26940818 27245100 
1401.561 27563436 27892038 28224814 28554628 28876298 29186900 29486520 
1404.936 29776552 30057370 30327636 30584776 30827486 31058834 31286776 
1408.312 31523962 31784094 32077734 32410700 32782976 33191622 33633336 
1411.687 34107220 34613232 35149512 35708540 36276248 36833376 37363628 
1415.062 37859680 38328752 38792720 39285652 39847488 40513312 41307276 
1418.437 42231400 43261288 44348600 45432644 46457144 47377080 48165080 
1421.813 48812380 49328372 49745644 50117876 50518904 51020492 51674152 
1425.188 52499872 53484240 54594508 55794236 57058612 58373820 59733324 
1428.563 61131688 62558532 64001052 65450580 66912068 68406272 69962144 
1431.938 71609952 73369008 75245856 77238064 79347384 81591248 84004672 
1435.313 86635472 89522072 92670608 96032432 99520776 103046384 106542712 
1438.689 109970552 113295848 116472160 119412216 121986736 124052712 
1441.582 125456464 126069056 125810456 124647824 122605576 119759264 
1444.475 116241944 112225920 107898096 103462536 99104672 94984312 91239200 
1447.850 87960664 85184272 82881272 80972528 79351248 77915576 76604040 
1451.225 75405824 74361152 73534336 72988944 72754720 72816504 73115216 
1454.601 73563528 74071168 74549776 74943272 75245224 75509184 75825888 
1457.976 76282024 76943816 77842328 78988552 80383520 82017664 83868032 
1461.351 85888528 88015480 90153264 92171080 93924608 95260088 96058888 
1464.726 96280672 95981432 95295288 94376992 93372040 92384536 91476528 
1468.102 90686608 90032216 89512456 89105344 88763280 88414216 87966664 
1471.477 87340664 86497928 85468624 84346016 83251760 82291464 81524048 
1474.852 80972728 80642792 80537128 80664616 81033344 81638192 82453280 
1478.227 83431000 84514080 85640584 86760800 87846912 88893624 89920280 
1481.603 90962488 92067240 93282448 94657328 96248584 98116976 100328872 
1484.978 102942768 105988416 109441448 113195904 117069560 120786504 
1487.871 124000072 126350416 127479048 127114504 125148416 121673736 
1490.764 116983488 111477800 105577696 99610280 93769560 88155408 82787720 
1494.139 77662208 72801384 68265688 64161764 60620924 57752576 55610416 
1497.514 54179456 53399848 53189472 53469396 54175440 55250004 56636400 
1500.890 58277220 60105164 62047076 64031272 65968564 67754952 69263016 
1504.265 70308216 70657056 70045760 68252704 65235980 61231980 56709944 
1507.640 52150512 47866948 43961844 40401912 37114464 34045936 31176154 
1511.015 28521614 26114146 23976354 22115324 20516814 19153552 17994230 
1514.391 17009112 16171535 15453974 14829608 14276736 13783291 13351802 
1517.766 12994955 12725330 12544262 12436606 12371248 12312955 12236233 
1521.141 12141327 12056391 12023824 12073629 12207878 12404897 12632364 
1524.516 12864934 13091276 13319514 13569988 13865316 14216579 14619183 
1527.892 15057903 15517325 15990367 16480615 16999326 17558574 18165010 
1531.267 18817688 19510230 20234322 20986154 21766954 22580568 23425012 
1534.642 24290760 25160170 26014892 26836794 27613042 28338190 29009148 
1538.017 29625056 30182200 30669434 31067018 31351946 31513240 31558738 
1541.393 31512954 31404908 31252630 31057478 30806498 30483218 30079350 
1544.768 29605440 29090912 28573808 28085170 27634264 27209858 26786604 
1548.143 26339544 25856050 25345098 24833204 24355030 23934480 23574852 
1551.518 23260508 22967982 22678444 22387180 22105770 21856284 21659494 
1554.894 21523232 21437484 21377822 21312010 21202506 21009386 20697728 
1558.269 20251506 19696686 19105698 18568630 18147250 17855936 17675030 
1561.644 17570614 17508310 17458464 17401484 17329582 17248934 17176126 
1565.019 17130970 17128008 17168680 17241970 17328720 17410694 17475090 
1568.395 17519244 17550018 17580620 17624752 17690422 17780542 17894054 
1571.770 18028974 18182872 18351200 18526580 18695250 18839832 18944070 
1575.145 18999348 19012640 19007344 19014890 19057194 19138108 19245846 
1578.520 19361718 19468678 19556256 19621422 19667008 19698108 19718252 
1581.896 19728760 19729106 19718808 19699286 19673770 19644474 19610570 
1585.271 19566202 19502258 19409736 19285298 19133712 18969438 18812012 
1588.646 18682036 18597298 18569216 18604596 18707220 18879108 19118718 
1592.021 19417014 19755840 20104058 20421716 20670482 20817670 20846106 
1595.396 20757330 20569756 20312332 20016128 19711630 19423182 19170002 
1598.772 18969716 18837480 18785682 18823224 18953032 19173776 19480912 
1602.147 19870218 20337574 20876978 21478144 22121460 22776868 23408892 
1605.522 23976600 24440058 24767532 24934644 24929520 24752484 24415520 
1608.897 23939312 23350008 22680014 21963792 21237194 20536476 19889296 
1612.273 19312768 18811148 18376364 17992816 17641764 17306514 16975518 
1615.648 16645221 16323227 16026499 15777009 15593703 15486765 15455451 
1619.023 15489924 15573783 15688060 15815699 15942860 16064661 16186049 
1622.398 16320819 16485021 16689911 16937446 17219872 17526350 17848376 
1625.774 18183458 18533186 18899664 19281106 19669054 20050930 20414942 
1629.149 20755176 21074108 21380258 21683388 21988852 22295230 22593866 
1632.524 22872274 23118186 23320814 23474078 23577162 23634990 23657592 
1635.899 23659168 23655564 23658782 23674912 23702906 23734996 23758336 
1639.275 23757778 23721346 23643248 23527838 23387736 23239920 23098164 
1642.650 22967318 22841856 22707700 22547482 22344168 22088340 21781828 
1646.025 21438980 21083918 20745444 20449360 20212244 20040972 19933314 
1649.400 19879790 19864216 19861754 19840042 19755804 19564366 19242522 
1652.776 18817064 18371386 17998928 17749028 17610398 17540806 17494476 
1656.151 17439424 17359342 17249830 17114806 16961324 16795254 16618816 
1659.526 16430235 16225567 16000405 15752133 15480412 15187690 14880215 
1662.901 14567544 14261739 13975312 13717832 13492838 13296999 13119860 
1666.277 12946308 12758699 12540886 12282414 11981893 11647850 11296142 
1669.652 10946451 10615308 10313834 10047087 9814124 9610113 9425463 9247052 
1673.509 9058971 8847704 8608623 8351772 8102296 7888661 7731926 7635910 
1677.367 7589275 7573158 7569584 7568404 7568842 7578485 7607820 7663495 
1681.224 7744440 7840953 7937453 8020643 8084472 8138554 8204561 8307864 
1685.082 8462002 8663075 8897484 9150328 9412190 9677022 9941947 10204660 
1688.939 10460879 10705974 10936460 11151874 11355761 11553686 11750613 
1692.314 11947289 12139215 12315341 12461668 12565476 12621893 12639391 
1695.689 12640858 12654231 12695340 12761395 12831283 12875071 12858040 
1699.065 12752524 12550129 12274950 11980190 11721099 11528268 11397189 
1702.440 11303283 11215586 11108428 10965038 10777298 10547541 10287064 
1705.815 10012637 9739807 9479474 9235409 9005552 8784033 8563641 8338700 
1709.673 8106178 7867201 7625692 7388058 7160288 6945567 6744581 6555158 
1713.530 6374358 6200053 6031730 5869854 5713713 5559976 5403409 5239487 
1717.387 5069525 4903450 4757839 4648311 4583076 4560306 4569883 4597776 
1721.245 4630126 4658023 4678252 4693827 4711043 4736735 4774857 4825010 
1725.102 4883679 4946345 5009054 5069022 5123936 5170944 5206086 5225670 
1728.960 5228118 5215442 5192908 5166183 5137616 5102513 5047836 4953853 
1732.817 4803300 4590543 4333982 4073156 3854640 3706205 3628782 3602688 
1736.675 3600817 3599815 3582743 3543189 3483297 3413328 3345140 3289148 
1740.532 3250155 3227789 3218876 3220345 3230193 3247151 3269584 3295291 
1744.389 3321467 3345607 3366477 3383774 3397866 3408519 3414263 3412193 
1748.247 3399636 3373723 3333387 3279934 3216006 3146413 3076832 3013801 
1752.104 2962856 2927729 2909249 2904879 2908548 2911717 2905546 2882764 
1755.962 2841440 2786280 2727593 2677148 2642510 2624576 2617075 2610675 
1759.819 2595208 2564010 2516284 2456833 2394493 2337257 2290955 2256848 
1763.677 2233434 2217681 2207057 2198765 2190239 2178417 2160369 2135096 
1767.534 2104263 2072667 2046667 2029955 2022265 2017505 2006720 1980523 
1771.391 1934825 1873856 1810568 1760595 1734613 1734181 1752511 1779093 
1775.249 1804213 1823943 1838817 1853325 1871560 1894489 1918850 1938985 
1779.106 1949236 1947705 1937288 1925240 1919282 1923542 1936755 1953163 
1782.964 1965678 1968507 1960220 1943445 1923842 1906836 1895887 1891560 
1786.821 1892792 1898549 1908633 1923276 1942280 1962616 1979725 1986615 
1790.678 1977561 1950468 1908666 1861012 1816756 1783651 1763556 1753309 
1794.536 1747720 1742431 1735212 1726197 1716583 1706936 1696292 1682754 
1798.393 1664360 1641211 1615502 1592056 1575761 1570141 1575229 1588597 
1802.251 1606655 1626344 1646133 1665923 1685880 1705905 1724667 1740668 
1806.108 1752644 1761294 1768513 1776531 1786645 1798257 1808272 1813396 
1809.966 1810867 1800819 1786113 1771275 1760263 1754507 1752711 1751879 
1813.823 1749184 1744194 1738838 1737474 1744760 1763523 1793832 1832894 
1817.680 1876585 1921213 1964480 2006187 2046700 2086218 2124108 2159070 
1821.538 2189573 2214783 2234300 2248688 2258446 2264442 2267906 2270903 
1825.395 2276599 2288557 2308609 2336424 2368372 2398224 2419248 2427211 
1829.253 2422413 2411218 2403455 2409119 2433575 2476127 2530348 2588575 
1833.110 2644877 2696418 2744264 2792116 2843508 2900009 2960855 3023744 
1836.968 3087210 3152054 3222081 3302002 3396197 3505844 3628181 3757605 
1840.825 3887235 4011519 4126673 4232055 4329865 4424718 4522103 4627581 
1844.682 4745009 4874733 5013914 5155889 5292176 5413172 5509940 5576992 
1848.540 5612335 5617907 5598204 5558198 5501115 5427800 5337055 5228185 
1852.397 5102278 4963907 4819414 4675372 4536533 4404668 4278532 4156077 
1856.255 4036066 3918929 3807005 3701894 3604192 3511956 3422211 3332118 
1860.112 3241242 3151186 3065353 2987144 2917588 2855514 2798452 2744298 
1863.969 2693518 2648844 2613675 2589975 2576176 2566510 2552612 2527215 
1867.827 2487724 2437974 2387196 2346252 2323366 2320335 2333160 2354081 
1871.684 2376335 2394426 2406220 2411418 2410085 2401989 2386330 2362209 
1875.542 2330528 2293353 2253583 2213917 2175121 2135728 2093276 2045701 
1879.399 1993039 1937388 1883307 1833992 1791237 1753675 1717880 1680791 
1883.257 1641909 1602798 1567414 1540213 1522856 1514444 1510986 1507495 
1887.114 1500313 1487778 1470224 1449678 1428236 1407360 1388379 1372790 
1890.971 1362353 1359428 1364945 1377942 1394994 1410783 1421221 1424413 
1894.829 1422651 1421255 1426308 1441301 1465869 1495292 1522623 1542907 
1898.686 1554179 1558901 1561495 1566583 1576459 1589861 1603862 1615934 
1902.544 1625712 1635656 1649293 1669050 1694695 1722338 1746955 1763723 
1906.401 1770709 1769345 1763357 1756071 1749184 1742198 1733216 1721041 
1910.259 1706737 1693664 1685947 1686878 1696691 1713024 1732451 1752112 
1914.116 1770576 1788342 1805344 1819751 1827670 1823511 1803813 1769412 
1917.973 1726929 1687444 1660568 1651488 1657541 1670413 1678862 1674072 
1921.831 1652918 1618794 1579286 1542807 1514577 1495093 1481528 1470324 
1925.688 1460283 1453036 1451374 1457424 1470024 1484387 1495592 1499947 
1929.546 1497919 1494029 1494561 1504303 1523554 1547994 1570440 1585438 
1933.403 1590260 1587101 1580716 1575927 1574830 1576592 1578554 1578521 
1937.260 1577623 1578720 1585072 1597576 1613007 1625013 1626909 1615335 
1941.118 1592089 1565086 1544137 1536423 1543538 1560863 1580616 1596146 
1944.975 1606023 1613373 1624648 1644936 1675436 1712525 1750016 1782453 
1948.833 1808072 1828901 1849066 1871427 1894322 1913625 1922910 1918450 
1952.690 1901078 1876619 1852393 1834391 1823710 1815858 1803614 1781056 
1956.548 1746689 1703909 1660269 1622552 1594550 1575328 1562260 1551685 
1960.405 1544203 1542641 1550521 1570307 1598308 1627541 1649958 1658572 
1964.262 1652253 1632630 1605392 1575029 1543638 1510454 1475311 1439871 
1968.120 1408855 1388412 1383127 1391470 1406728 1419460 1420457 1406894 
1971.977 1383426 1359461 1345601 1347795 1365876 1395260 1431194 1473050 
1975.835 1526214 1599671 1699019 1821980 1956092 2080791 2178051 2235598 
1979.692 2251952 2234932 2196667 2148248 2096472 2044203 1991907 1941648 
1983.550 1897983 1866402 1850663 1849465 1856719 1863208 1860978 1848001 
1987.407 1828335 1810501 1802482 1807606 1822213 1838418 1847768 1846104 
1991.264 1836221 1826339 1826206 1840780 1869464 1905138 1939717 1967110 
1995.122 1986282 2000628 2015241 2032518 2051261 2066741 2073500 2069005 
1998.979 2054989 2036380 2018604 2003924 1988978 1967575 1932994 1881810 
2002.837 1816357 1744161 1673673 1612309 1563523 1527777 1503937 1493763 
2006.694 1500446 1528309 1578421 1644969 1716018 1777363 1816856 1830964 
2010.552 1824542 1810002 1801085 1808172 1833393 1872725 1919216 1965412 
2014.409 2007585 2046334 2081756 2114618 2142720 2163632 2176619 2185511 
2018.266 2196367 2217248 2252684 2300748 2354647 2404721 2443105 2467730 
2022.124 2483758 2498421 2519284 2548612 2581776 2612075 2632576 2640743 
2025.981 2639610 2636010 2635710 2641177 2650211 2657612 2660079 2658578 
2029.839 2659245 2670780 2700452 2749933 2816260 2891403 2969328 3047101 
2033.696 3125921 3209663 3300166 3394961 3487406 3569981 3636801 3687458 
2037.553 3725688 3757638 3787385 3815329 3837792 3849592 3848790 3837792 
2041.411 3823585 3815696 3819440 3836187 3860791 3884861 3901644 3908832 
2045.268 3909534 3911574 3923309 3950225 3993127 4049042 4111086 4173272 
2049.126 4228877 4272943 4300885 4309786 4299111 4272341 4237676 4205222 
2052.983 4186754 4190501 4217735 4263038 4315743 4364404 4401221 4424250 
2056.841 4437673 4448552 4463114 4483568 4508544 4534491 4557561 4576245 
2060.698 4591883 4605914 4619342 4629892 4633508 4626408 4607521 4579292 
2064.555 4547951 4520128 4500207 4488691 4481627 4473224 4459331 4439011 
2068.413 4414911 4391748 4373440 4361458 4354597 4349678 4343921 4337596 
2072.270 4331940 4329597 4332275 4338566 4345226 4348339 4345695 4337730 
2076.128 4327958 4320964 4320696 4328393 4342683 4360923 4380870 4401522 
2079.985 4423346 4447079 4472253 4496525 4516914 4530775 4537638 4539748 
2083.843 4541422 4546344 4556624 4570586 4584148 4592887 4593557 4585688 
2087.700 4571490 4553643 4534090 4512494 4487084 4456318 4420568 4383314 
2091.557 4350247 4327523 4318855 4324444 4341043 4363266 4386527 4408183 
2095.415 4428066 4447447 4467466 4487653 4506033 4520496 4530206 4536031 
2099.272 4541422 4548955 4560809 4576714 4594863 4613415 4631666 4651359 
2103.130 4675439 4706923 4746918 4794555 4847056 4901640 4956466 5012205 
2106.987 5070229 5131715 5195557 5258603 5316158 5365266 5404785 5437865 
2110.844 5469271 5504000 5544774 5590853 5638181 5682323 5719823 5750174 
2114.702 5775458 5798963 5822939 5848596 5874993 5900586 5925038 5949626 
2118.559 5976399 6007877 6044498 6084347 6124301 6160932 6192726 6220488 
2122.417 6247715 6277700 6312931 6353680 6397626 6442385 6485634 6527071 
2126.274 6567638 6607636 6646596 6682126 6711165 6731389 6743706 6751917 
2130.132 6762148 6781331 6814113 6861338 6920788 6987688 7057730 7127818 
2133.989 7195962 7261119 7321737 7375521 7420245 7455434 7482873 7506842 
2137.846 7532497 7562706 7596760 7629974 7655772 7668081 7664237 7646397 
2141.704 7620027 7590994 7563751 7537689 7509943 7475896 7432143 7378925 
2145.561 7318164 7253741 7187844 7120509 7050019 6973849 6891297 6803477 
2149.419 6712713 6620858 6527172 6428597 6320361 6198708 6063817 5918421 
2153.276 5768138 5618007 5470311 5325617 5184524 5050417 4934951 4853992 
2157.134 4826450 4865150 4970610 5127356 5309046 5487357 5640195 5758199 
2160.991 5843794 5904180 5947577 5977004 5990911 5986578 5962827 5922821 
2164.848 5873079 5821831 5774249 5730533 5686889 5636368 5573938 5496920 
2168.706 5406898 5308007 5205583 5104290 5008182 4921278 4847491 4791574 
2172.563 4757001 4744071 4749230 4764874 4781155 4789865 4785845 4767721 
2176.421 4737472 4696674 4645732 4584047 4510485 4426894 4339805 4258957 
2180.278 4195486 4158586 4150825 4168254 4201241 4238780 4272240 4296835 
2184.135 4311292 4316211 4312831 4300885 4280003 4251796 4219274 4188227 
2187.993 4165277 4154170 4155341 4165243 4178056 4188293 4193479 4193345 
2191.850 4190468 4187725 4185182 4181970 4176083 4166950 4156211 4148149 
2195.708 4146476 4153568 4168555 4187256 4204954 4218739 4228877 4238880 
2199.565 4252733 4272441 4295631 4316814 4327656 4323072 4302022 4268861 
2203.423 4231754 4199066 4176517 4165511 4163939 4167719 4173874 4181603 
2207.280 4190836 4202512 4216062 4229111 4238780 4242595 4240420 4234330 
2211.137 4227706 4223155 4221917 4222620 4223691 4224192 4225297 4229880 
2214.995 4241959 4263875 4294995 4332007 4369859 4404668 4434359 4460001 
2218.852 4483368 4506869 4530775 4553275 4571658 4583645 4588702 4588534 
2222.710 4585822 4582473 4579225 4575140 4568510 4558934 4546578 4533688 
2226.567 4522840 4515173 4510485 4507338 4504626 4502953 4504995 4515373 
2230.425 4537069 4571557 4615793 4663549 4707761 4742530 4765175 4776699 
2234.282 4780418 4780083 4778743 4777436 4776364 4776331 4778776 4786649 
2238.139 4802596 4827858 4861229 4899496 4938738 4975335 5008518 5038819 
2241.997 5068352 5098591 5129670 5159779 5187274 5210278 5228789 5244551 
2245.854 5259374 5275205 5292310 5309348 5324811 5337625 5347252 5354833 
2249.712 5361207 5366910 5371640 5374760 5376302 5377611 5381905 5392372 
2253.569 5411763 5439744 5472626 5505242 5530712 5544539 5544908 5532793 
2257.427 5511316 5483598 5452259 5418473 5382844 5346145 5309684 5275741 
2261.284 5246429 5223021 5206052 5195020 5189555 5189923 5197501 5213296 
2265.141 5237944 5269637 5304787 5338665 5367044 5387541 5400423 5407502 
2268.999 5411528 5414044 5415118 5413340 5407435 5397303 5384220 5371506 
2272.856 5362549 5359764 5363824 5373552 5387205 5402940 5420218 5439342 
2276.714 5461016 5485209 5511249 5537156 5560983 5581490 5598372 5612167 
2280.571 5623411 5632541 5639053 5642544 5643216 5642208 5642041 5645397 
2284.428 5654058 5667855 5684203 5699377 5709147 5710826 5703943 5690078 
2288.286 5672286 5653622 5636502 5622538 5612267 5606159 5604850 5608944 
2292.143 5618309 5632172 5648385 5664498 5678328 5688803 5696423 5702802 
2296.001 5709751 5718480 5728787 5739531 5748462 5754036 5755412 5752860 
2299.858 5747421 5739968 5731339 5721334 5709617 5696054 5680242 5662651 
2303.716 5643316 5622774 5601326 5579375 5558063 5538666 5523195 5513296 
2307.573 5509772 5512188 5519235 5528732 5538901 5548935 5558466 5567964 
2311.430 5577563 5586625 5593807 5597600 5597231 5593203 5586860 5580516 
2315.288 5575482 5572227 5569475 5565111 5556755 5543700 5526954 5509168 
2319.145 5493531 5483196 5479907 5483800 5493263 5505343 5516383 5521786 
2323.003 5517457 5499370 5464976 5413776 5348057 5273024 5195557 5122729 
2326.860 5060709 5012841 4978721 4955930 4940313 4928315 4918094 4909348 
2330.718 4903115 4900401 4901406 4905293 4910387 4915447 4920239 4925769 
2334.575 4933577 4945172 4961393 4981938 5005602 5030975 5056753 5082264 
2338.432 5106872 5130139 5151698 5171246 5188917 5205684 5222853 5241767 
2342.290 5263366 5287614 5313675 5341248 5370902 5405053 5447562 5502725 
2346.147 5573334 5659496 5757964 5862734 5966926 6063279 6145641 6209565 
2350.005 6252622 6273867 6274372 6256387 6223648 6180021 6129880 6077022 
2353.862 6024104 5972939 5924836 5880468 5841073 5808197 5783751 5769649 
2357.719 5766761 5774820 5792583 5817835 5848797 5883423 5921041 5961014 
2361.577 6003106 6046648 6091135 6135458 6179450 6223547 6268489 6315856 
2365.434 6366389 6420963 6479176 6540627 6604541 6670147 6736975 6803881 
2369.292 6869652 6933077 6993143 7049783 7104038 7158133 7214828 7276315 
2373.149 7343708 7416605 7493796 7573293 7654086 7736007 7819631 7906746 
2377.007 7998806 8096388 8199529 8307559 8419164 8533093 8648067 8763004 
2380.864 8876720 8988334 9096730 9201496 9302633 9400136 9494172 9584402 
2384.721 9669906 9749295 9821139 9884488 9939439 9986733 10027726 10063975 
2388.579 10096259 10124951 10149914 10170943 10188377 10202997 10215888 
2391.954 10227693 10238481 10247912 10255105 10259922 10262941 10265927 
2395.329 10271321 10281466 10297582 10319975 10347392 10378544 10412345 
2398.705 10448558 10488237 10532401 10582441 10638431 10700065 10765682 
2402.080 10834060 10903944 10975131 11047858 11122705 11200660 11282437 
2405.455 11369025 11461244 11559641 11664391 11775090 11890722 12010029 
2408.830 12131583 12254807 12379873 12507703 12639050 12774498 12913026 
2412.206 13052964 13191444 13326005 13454593 13576039 13689894 13795638 
2415.581 13892445 13979316 14055114 14119358 14172656 14216715 14254103 
2418.956 14286735 14316356 14343410 14367007 14386803 14402661 14415334 
2422.331 14426809 14439311 14454794 14474765 14500322 14532013 14570662 
2425.707 14617709 14674358 14741846 14820899 14911042 15011870 15122809 
2429.082 15243728 15375184 15518253 15673220 15839960 16017113 16202386 
2432.457 16393621 16589003 16787676 16990022 17196740 17408900 17627582 
2435.832 17853278 18086658 18328770 18580766 18843638 19117852 19402634 
2439.208 19696098 19995414 20297472 20599358 20899506 21197428 21493778 
2442.583 21790050 22087780 22388716 22694294 23005292 23321968 23643946 
2445.958 23969946 24298400 24627522 24955560 25281246 25603910 25923048 
2449.333 26237986 26547800 26851102 27146470 27433180 27710646 27979564 
2452.708 28240728 28494652 28741612 28980704 29210608 29429536 29636054 
2456.084 29829464 30009294 30175096 30326252 30461360 30578590 30675728 
2459.459 30750942 30803156 30832146 30838406 30823286 30787718 30733408 
2462.834 30661754 30574752 30474580 30363986 30246672 30126510 30008548 
2466.209 29897754 29799796 29720276 29664220 29635842 29637862 29671316 
2469.585 29735428 29828152 29947200 30089966 30254914 30441458 30648916 
2472.960 30876898 31124466 31389166 31667534 31955284 32246932 32537494 
2476.335 32821782 33095744 33355888 33599756 33825172 34030744 34214400 
2479.710 34373960 34507284 34612444 34688412 34735432 34755784 34752696 
2483.086 34730192 34692292 34642336 34582412 34513740 34436940 34352012 
2486.461 34258852 34157616 34048012 33929376 33801460 33663304 33514418 
2489.836 33355206 33185792 33006750 32818780 32622140 32416344 32200790 
2493.211 31974222 31735364 31483312 31217026 30935456 30638002 30324298 
2496.587 29994346 29648894 29289362 28917590 28535802 28146150 27750522 
2499.962 27350668 26948150 26544948 26142822 25744270 25351280 24965738 
2503.337 24588562 24219916 23859316 23506222 23160018 22820796 22489552 
2506.712 22167554 21857156 21559896 21277768 21012028 20763830 20533766 
2510.088 20321152 20125124 19943652 19774324 19614418 19462198 19316578 
2513.463 19177688 19046946 18925796 18815404 18716768 18629428 18553310 
2516.838 18487992 18433784 18391436 18361812 18345290 18341246 18348160 
2520.213 18363712 18385628 18412176 18442184 18475062 18511056 18549990 
2523.589 18591834 18636206 18683006 18732506 18784956 18840558 18898522 
2526.964 18956876 19012916 19062594 19102236 19129036 19141606 19139874 
2530.339 19124778 19097942 19060726 19014612 18960336 18898522 18829590 
2533.714 18754128 18672662 18586162 18496084 18404294 18313284 18225820 
2537.090 18144488 18071080 18006182 17949232 17898612 17852416 17809470 
2540.465 17769392 17732322 17698810 17668820 17641108 17614056 17585280 
2543.840 17553296 17517970 17479988 17441630 17404656 17370344 17338824 
2547.215 17308996 17279308 17248658 17216354 17182848 17149034 17115806 
2550.591 17083546 17052394 17022344 16993710 16966904 16942992 16922530 
2553.966 16905442 16891078 16878056 16865036 16851188 16836412 16821186 
2557.341 16806584 16792946 16779996 16766736 16751379 16732369 16707955 
2560.716 16677449 16640436 16597092 16547799 16493384 16435018 16374560 
2564.092 16314145 16256180 16202454 16153757 16110152 16070988 16035059 
2567.467 16001780 15971322 15944649 15923372 15908591 15901340 15901856 
2570.842 15909279 15922513 15940249 15961250 15984351 16008519 16033202 
2574.217 16058266 16083743 16110152 16138246 16168578 16201148 16235508 
2577.593 16271006 16306611 16342115 16377725 16414130 16452463 16493177 
2580.968 16536063 16580604 16625701 16670700 16715599 16761640 16810648 
2584.343 16864174 16923666 16989162 17060182 17135384 17213320 17293102 
2587.718 17374136 17456222 17539220 17622612 17705988 17788724 17870404 
2591.094 17951064 18030704 18109664 18188054 18265662 18341902 18416082 
2594.469 18487542 18556180 18621922 18685116 18746172 18805438 18863328 
2597.844 18920222 18976882 19033860 19092092 19152064 19214432 19279582 
2601.219 19347722 19419302 19494634 19574278 19658410 19746790 19839070 
2604.594 19934146 20031290 20130122 20230920 20334484 20442242 20555548 
2607.970 20675174 20801646 20934414 21072822 21215242 21360456 21506728 
2611.345 21652562 21796566 21937442 22074602 22207690 22336738 22462090 
2614.720 22584022 22702534 22817304 22927774 23033102 23132794 23226462 
2618.095 23314206 23396022 23471982 23542040 23606336 23665254 23719318 
2621.471 23769748 23817556 23863972 23909902 23955802 24001672 24047616 
2624.846 24093390 24139134 24184708 24230356 24275798 24320512 24364316 
2628.221 24406724 24447698 24487872 24527976 24568754 24610584 24653682 
2631.596 24697732 24742206 24786476 24830292 24873342 24915518 24956506 
2634.972 24995778 25032842 25067312 25099012 25128290 25155956 25183132 
2638.347 25210766 25239736 25270570 25303512 25338812 25376642 25417498 
2641.722 25461732 25509446 25560786 25615402 25672520 25732002 25793528 
2645.097 25857352 25923646 25993010 26065764 26142084 26221762 26304234 
2648.473 26389258 26476516 26565590 26656406 26748898 26842854 26938068 
2651.848 27034006 27130422 27226790 27323144 27419414 27516270 27614242 
2655.223 27714496 27817530 27924298 28035014 28150108 28269652 28393510 
2658.598 28521862 28654532 28791210 28931330 29073658 29216812 29359230 
2661.974 29499678 29637438 29772580 29906024 30039154 30173284 30309410 
2665.349 30447818 30588510 30730634 30873376 31016162 31158604 31300630 
2668.724 31442594 31585034 31728484 31873654 32021336 32172032 32326170 
2672.099 32483966 32645394 32810062 32977364 33146664 33317390 33488936 
2675.475 33660980 33832980 34004692 34176040 34347136 34518512 34691176 
2678.850 34865956 35043932 35225720 35411860 35602216 35797116 35996640 
2682.225 36201512 36412464 36630440 36856208 37090068 37331924 37581288 
2685.600 37837592 38100372 38369360 38644744 38926356 39214240 39508196 
2688.976 39808232 40113928 40425184 40742052 41064104 41391388 41723292 
2692.351 42059652 42400144 42744816 43094076 43448420 43808652 44174912 
2695.726 44547392 44925924 45310336 45700576 46096620 46498484 46906216 
2699.101 47318772 47735228 48154196 48574460 48995236 49416316 49837912 
2702.477 50260180 50682708 51104680 51524488 51940296 52350292 52753160 
2705.852 53147720 53533036 53908156 54271920 54622764 54959228 55280256 
2709.227 55585560 55875324 56150272 56411360 56659392 56894912 57118692 
2712.602 57331056 57532252 57722716 57901908 58069320 58223644 58363132 
2715.978 58486096 58590968 58676712 58742824 58789488 58816956 58826288 
2719.353 58818852 58797036 58763844 58723104 58679520 58637308 58600980 
2722.728 58574248 58560140 58561012 58579060 58615808 58672392 58749652 
2726.103 58847952 58966916 59106224 59265400 59443904 59641176 59856524 
2729.479 60088952 60336584 60597532 60869008 61148740 61434644 61725360 
2732.854 62019788 62317204 62616468 62916064 63213900 63507608 63794688 
2736.229 64073168 64341524 64598776 64844840 65080108 65305756 65523052 
2739.604 65733588 65938832 66140236 66339144 66536792 66734648 66934572 
2742.979 67139224 67351160 67573280 67807392 68054776 68315368 68588176 
2746.355 68871800 69164592 69464456 69769080 70074960 70377680 70671712 
2749.730 70951280 71210488 71444864 71651488 71829880 71980416 72104712 
2753.105 72204432 72281176 72335656 72368568 72380000 72369424 72335808 
2756.480 72277408 72191840 72076552 71929104 71747944 71532168 71282096 
2759.856 70998528 70682712 70335912 69959496 69555248 69125192 68672352 
2763.231 68200712 67714328 67218240 66717536 66217528 65723680 65241180 
2766.606 64775132 64330108 63909568 63516200 63151508 62816568 62512116 
2769.981 62238920 61997580 61788616 61612052 61467088 61351788 61263492 
2773.357 61198900 61154732 61127344 61113612 61110064 61112848 61117960 
2776.732 61120856 61116892 61101596 61071048 61021700 60951008 60856924 
2780.107 60738240 60595016 60428420 60241336 60037360 59821424 59598108 
2783.482 59371908 59146884 58925512 58709560 58499744 58295636 58096060 
2786.858 57898424 57699596 57495636 57282512 57057024 56817148 56561664 
2790.233 56291620 56008740 55715688 55415604 55112568 54810116 54512308 
2793.608 54223040 53945292 53682272 53436008 53208348 53001060 52815984 
2796.983 52655224 52521224 52416088 52341100 52296588 52281712 52294528 
2800.359 52333028 52394888 52478560 52582252 52704676 52844052 52998140 
2803.734 53164756 53341100 53525092 53714704 53908376 54104804 54302220 
2807.109 54498448 54690968 54877220 55054264 55219524 55370396 55503960 
2810.484 55616740 55705668 55766656 55797024 55794876 55760104 55693616 
2813.860 55597724 55475464 55329860 55163916 54981376 54785980 54582712 
2817.235 54377360 54176756 53988176 53819520 53677660 53569056 53498852 
2820.610 53470524 53485624 53543904 53643168 53779388 53947432 54142000 
2823.985 54356856 54586620 54825980 55069572 55311456 55546320 55767900 
2827.361 55970864 56150420 56302748 56425660 56518376 56581176 56615452 
2830.736 56623640 56609036 56575668 56528076 56471052 56408796 56344996 
2834.111 56282268 56222904 56168676 56121164 56082404 56054280 56038784 
2837.486 56037656 56052776 56086136 56140544 56219848 56329040 56474712 
2840.862 56664372 56905904 57207852 57579124 58028376 58566020 59203276 
2844.237 59951080 60820828 61820588 62952712 64210780 65575800 67015716 
2847.612 68480672 69909280 71231184 72369824 73257256 73838056 74076712 
2850.987 73963552 73513688 72765488 71770808 70592496 69296904 67943480 
2854.363 66587544 65274520 64036876 62898064 61870216 60956232 60151244 
2857.738 59445192 58825072 58275856 57783196 57334004 56916404 56520036 
2861.113 56136548 55758144 55378976 54994352 54601196 54197964 53784564 
2864.488 53362492 52935144 52507276 52085660 51678108 51293240 50940008 
2867.864 50625444 50355716 50134764 49964064 49843040 49769168 49737660 
2871.239 49741520 49771840 49819072 49872068 49921352 49959120 49980568 
2874.614 49984508 49972164 49946852 49912356 49871992 49827916 49781464 
2877.989 49733012 49682672 49630740 49577628 49523960 49470524 49418136 
2881.365 49367980 49321724 49281528 49249756 49228680 49220072 49224968 
2884.740 49243340 49274736 49318160 49373288 49439632 49517204 49605668 
2888.115 49704368 49812048 49926632 50045776 50167416 50289680 50411572 
2891.490 50532824 50654112 50776740 50902268 51032416 51168756 51312332 
2894.865 51463680 51623028 51790124 51964944 52147712 52338968 52539324 
2898.241 52749420 52969244 53198384 53436044 53681260 53933852 54194096 
2901.616 54462988 54741628 55031096 55331740 55643972 55967808 56304184 
2904.991 56655580 57025432 57418896 57841604 58299464 58798820 59345620 
2908.366 59947008 60611132 61346596 62162636 63067944 64067556 65162404 
2911.742 66346364 67606336 68920072 70256520 71579792 72846640 74012152 
2915.117 75035736 75880776 76522312 76949280 77164128 77182088 77027056 
2918.492 76728520 76314888 75810032 75232256 74591096 73889544 73126112 
2921.867 72297416 71401736 70441472 69423936 68362832 67276144 66183216 
2925.243 65104396 64057344 63055492 62108392 61220916 60394304 59626384 
2928.618 58912608 58247440 57623956 57035976 56478748 55949264 55447112 
2931.993 54974308 54535112 54134416 53777216 53468308 53210332 53004692 
2935.368 52850860 52746504 52687656 52668168 52681260 52718708 52772544 
2938.744 52836004 52903780 52972836 53042016 53111920 53183740 53258464 
2942.119 53336604 53417460 53499268 53578352 53649764 53706604 53740204 
2945.494 53741892 53703828 53620408 53490648 53318588 53113564 52888208 
2948.869 52658032 52438068 52240900 52076360 51949892 51863112 51814204 
2952.245 51798824 51810916 51843100 51887904 51938312 51988132 52032652 
2955.620 52068552 52093916 52107700 52109832 52101200 52083008 52057380 
2958.995 52027236 51995340 51964756 51937644 51915160 51897724 51885216 
2962.370 51876700 51871964 51870168 51871176 51874388 51879244 51885180 
2965.746 51891528 51898136 51905044 51912812 51921772 51931968 51942872 
2969.121 51954152 51965464 51977304 51990820 52007892 52030452 52059660 
2972.496 52095336 52136576 52181712 52228980 52277336 52326708 52377432 
2975.871 52429432 52481852 52531956 52575184 52606264 52618608 52606976 
2979.247 52566884 52495760 52393208 52260896 52102768 51924012 51731444 
2982.622 51531800 51330940 51133008 50939560 50749736 50560220 50366504 
2985.997 50164140 49949376 49720416 49476688 49219216 48949248 48667812 
2989.372 48374520 48067728 47744068 47399252 47029120 46631044 46204736 
2992.748 45753000 45282056 44800712 44318068 43842556 43380052 42932412 
2996.123 42497916 42071512 41647468 41219716 40784308 40339844 39887512 
2999.498 39430468 38972528 38517748 38069520 37629668 37199428 36779060 
3002.873 36368400 35967124 35574808 35191584 34817560 34452936 34098508 
3006.249 33754936 33423084 33103790 32797736 32505248 32226022 31958994 
3009.624 31702712 31454742 31212504 30973530 30736004 30498894 30262622 
3012.999 30028112 29797490 29572132 29353418 29141792 28936926 28738248 
3016.374 28545036 28356972 28173972 27996386 27824136 27656934 27494420 
3019.750 27336130 27182026 27032488 26888642 26751646 26622410 26500992 
3023.125 26386652 26278396 26175128 26076918 25985096 25902508 25832244 
3026.500 25777672 25740614 25720680 25715266 25718852 25724546 25724162 
3029.875 25709220 25672836 25609426 25516368 25393434 25243492 25071488 
3033.250 24882922 24683984 24479844 24274362 24070274 23869118 23671588 
3036.626 23477926 23288264 23102076 22919008 22738844 22561092 22386204 
3040.001 22214874 22048248 21887680 21733860 21587194 21446988 21312322 
3043.376 21182188 21056126 20934240 20816906 20704748 20598142 20496598 
3046.751 20399524 20305978 20215230 20127694 20043608 19963878 19888982 
3050.127 19818712 19751784 19686806 19621906 19555596 19487148 19416354 
3053.502 19343528 19269226 19194208 19119480 19046082 18975254 18908420 
3056.877 18846614 18790386 18740152 18695320 18655506 18620366 18589654 
3060.252 18563374 18541588 18523988 18509672 18497916 18487854 18479382 
3063.628 18472676 18469046 18469460 18475028 18485710 18500820 18518730 
3067.003 18537784 18555868 18571258 18582082 18586404 18582530 18568630 
3070.378 18543696 18507494 18461302 18407302 18348228 18287330 18226442 
3073.753 18166944 18109182 18052912 17997752 17943708 17891016 17839848 
3077.129 17790552 17743056 17696704 17651218 17605636 17560024 17514310 
3080.504 17468638 17423282 17378448 17334306 17290858 17248278 17206530 
3083.879 17165612 17125180 17085202 17045364 17005976 16967628 16931796 
3087.254 16899724 16872612 16851258 16835480 16824424 16816744 16811268 
3090.630 16807204 16804000 16801624 16799662 16798042 16796252 16794012 
3094.005 16791706 16790224 16790982 16795322 16804242 16817640 16834654 
3097.380 16853842 16873476 16892456 16910162 16926906 16942960 16959118 
3100.755 16975620 16992642 17010422 17029304 17049602 17072002 17096608 
3104.131 17123182 17150720 17178366 17204944 17230248 17254242 17277586 
3107.506 17301066 17324754 17348720 17371928 17393862 17414176 17433214 
3110.881 17452082 17472640 17496236 17524040 17555848 17590800 17627202 
3114.256 17662780 17695600 17723902 17746578 17763248 17774156 17780128 
3117.632 17782198 17781372 17778644 17774604 17769566 17763628 17756620 
3121.007 17748856 17740744 17732736 17725522 17719516 17714720 17710924 
3124.382 17708060 17705366 17703296 17701846 17701744 17703504 17707818 
3127.757 17714822 17724522 17736774 17750788 17765974 17781680 17797110 
3131.133 17811852 17825764 17839228 17852796 17867262 17883108 17900650 
3134.508 17919640 17939462 17959420 17979520 17999758 18020824 18043448 
3137.883 18068144 18095156 18124276 18154714 18186118 18218530 18252288 
3141.258 18287988 18326212 18367032 18409964 18453834 18497536 18539928 
3144.634 18580628 18619536 18657098 18693762 18730154 18766410 18803050 
3148.009 18840524 18879386 18919980 18962724 19007690 19054528 19102618 
3151.384 19151234 19199714 19247578 19294616 19340342 19384756 19427580 
3154.759 19469060 19509674 19550260 19592062 19636086 19682956 19732504 
3158.135 19784344 19837614 19891444 19945664 20000444 20056100 20113324 
3161.510 20172362 20233072 20295318 20359380 20425536 20494376 20566664 
3164.885 20642268 20720420 20799456 20877394 20952426 21023260 21089728 
3168.260 21152376 21211900 21268964 21324086 21377300 21428538 21478492 
3171.635 21528002 21578524 21631108 21686382 21744030 21802662 21860918 
3175.011 21917508 21971634 22023464 22073418 22122262 22170588 22218362 
3178.386 22266106 22313784 22362446 22413208 22467602 22526610 22590722 
3181.761 22659524 22731790 22806094 22880832 22955020 23028002 23099876 
3185.136 23171028 23242122 23313856 23387002 23462188 23539800 23619982 
3188.512 23702206 23785776 23869748 23953560 24036934 24120498 24205518 
3191.887 24293248 24384678 24480404 24579796 24681494 24783740 24884570 
3195.262 24982336 25076474 25167016 25255046 25341938 25429794 25520374 
3198.637 25614768 25713684 25816666 25923224 26031848 26141626 26251362 
3202.013 26360562 26468980 26576332 26682584 26787874 26892098 26995888 
3205.388 27099808 27204778 27311184 27419414 27528766 27638606 27747768 
3208.763 27855260 27961082 28065766 28170862 28277256 28386330 28498192 
3212.138 28612310 28727912 28843896 28959524 29074188 29187752 29300210 
3215.514 29411242 29521310 29630022 29738230 29846572 29955650 30066210 
3218.889 30178294 30291362 30404958 30518230 30631068 30743792 30857330 
3222.264 30972498 31089654 31208480 31328156 31447404 31565722 31682930 
3225.639 31799674 31917234 32036140 32156404 32277626 32397884 32515604 
3229.015 32629642 32739494 32845832 32949984 33053264 33157214 33262014 
3232.390 33368018 33474442 33580924 33686792 33791932 33896168 33999604 
3235.765 34102200 34203680 34303852 34402400 34499212 34594648 34689240 
3239.140 34784356 34881216 34980972 35084344 35190972 35299748 35408768 
3242.516 35516088 35620160 35720844 35819064 35916876 36016872 36121316 
3245.891 36231584 36347936 36469756 36595832 36724900 36856100 36989032 
3249.266 37123196 37258488 37394468 37530456 37666128 37801332 37936004 
3252.641 38070496 38205068 38340116 38475892 38612224 38749680 38888124 
3256.017 39027984 39169092 39311404 39454308 39597040 39738988 39880104 
3259.392 40020796 40162084 40304720 40449300 40595560 40743072 40890596 
3262.767 41037664 41183904 41329756 41475768 41622452 41769656 41917132 
3266.142 42064216 42210876 42357840 42506612 42658940 42816224 42979164 
3269.518 43146696 43316784 43486652 43653980 43817448 43976696 44132400 
3272.893 44285852 44438040 44590092 44742784 44896860 45053044 45212668 
3276.268 45376876 45546736 45722664 45904228 46090356 46279260 46469348 
3279.643 46659340 46848012 47035656 47222720 47410412 47599852 47792596 
3283.019 47989272 48190552 48396296 48606032 48819204 49035448 49254436 
3286.394 49476540 49702288 49931760 50164996 50401524 50640672 50881664 
3289.769 51124176 51368120 51613884 51861768 52112780 52367156 52625524 
3293.144 52888508 53156816 53431740 53713956 54003972 54301468 54605332 
3296.520 54913392 55223964 55535512 55847140 56158796 56471204 56785348 
3299.895 57101952 57421732 57745540 58073864 58408236 58749996 59100720 
3303.270 59461720 59833704 60216480 60609188 61010492 61419036 61833696 
3306.645 62253796 62678896 63109704 63546576 63990688 64442976 64904468 
3310.021 65375352 65855800 66345208 66842928 67348456 67861784 68383584 
3313.396 68914520 69454888 70004728 70563456 71129576 71702216 72280936 
3316.771 72866384 73459608 74062248 74674544 75296488 75926584 76562504 
3320.146 77202160 77843552 78485896 79128992 79772560 80416448 81060216 
3323.521 81703576 82346208 82988512 83631200 84274768 84919040 85562944 
3326.897 86204376 86840592 87469032 88087272 88693456 89286208 89863952 
3330.272 90424968 90967712 91490600 91992744 92473576 92932728 93369704 
3333.647 93782808 94169504 94527432 94854072 95148704 95412000 95646136 
3337.022 95853080 96034336 96189408 96316696 96413200 96476128 96503528 
3340.398 96494296 96448208 96365216 96245568 96089192 95895888 95665752 
3343.773 95398952 95095832 94755896 94377768 93959776 93500320 92998648 
3347.148 92455816 91875144 91261232 90618792 89952032 89263496 88554160 
3350.523 87824080 87073432 86302864 85513968 84708824 83889496 83057712 
3353.899 82214256 81360656 80498080 79628896 78756592 77884816 77017720 
3357.274 76159016 75311696 74478040 73659824 72858272 72073808 71306456 
3360.649 70555304 69818960 69095240 68382568 67680016 66987336 66304824 
3364.024 65633372 64973688 64326456 63691816 63070124 62462260 61869300 
3367.400 61292908 60734164 60193644 59670976 59164696 58672920 58193600 
3370.775 57725140 57266032 56815788 56373408 55938636 55510400 55088644 
3374.150 54673196 54264972 53865016 53474420 53093832 52723008 52360724 
3377.525 52005276 51654712 51307632 50963292 50621984 50283728 49949116 
3380.901 49617888 49289548 48963008 48637012 48310484 47983016 47654652 
3384.276 47326200 46998732 46674024 46353724 46039700 45733264 45435216 
3387.651 45145236 44862104 44583704 44307316 44030080 43750276 43466984 
3391.026 43180732 42893352 42607512 42326320 42052244 41786692 41529252 
3394.402 41278452 41031180 40784452 40535788 40284000 40029772 39775116 
3397.777 39522892 39275496 39034260 38799204 38568588 38340116 38111624 
3401.152 37881984 37651564 37421556 37193544 36968936 36747832 36529472 
3404.527 36312448 36095176 35876892 35657676 35438820 35222124 35009308 
3407.903 34801408 34598628 34400036 34204036 34009060 33813636 33616724 
3411.278 33418112 33218302 33017762 32817814 32619142 32422374 32227806 
3414.653 32035430 31844846 31656132 31468920 31283538 31099942 30918060 
3418.028 30737820 30559180 30381718 30205322 30030810 29859064 29691432 
3421.404 29529220 29372844 29222304 29076316 28932926 28790218 28646216 
3424.779 28499606 28350144 28197838 28043462 27888046 27732686 27578440 
3428.154 27426648 27278404 27134656 26995712 26861396 26730926 26602786 
3431.529 26475566 26347712 26218348 26087578 25955900 25824508 25694560 
3434.905 25567216 25443004 25322374 25204760 25089988 24976896 24865062 
3438.280 24753570 24641654 24528818 24414050 24297032 24177246 24054654 
3441.655 23929612 23802820 23675578 23548792 23423510 23299452 23176026 
3445.030 23052074 22925714 22796108 22663050 22527380 22391542 22258188 
3448.406 22129340 22006662 21890190 21778658 21670464 21563552 21456352 
3451.781 21347612 21237126 21124474 21010012 20893526 20775090 20655090 
3455.156 20533490 20411226 20289000 20167746 20048014 19930468 19815002 
3458.531 19701680 19590190 19480114 19370830 19261986 19153172 19044488 
3461.906 18936040 18828516 18722612 18618394 18515930 18414632 18313354 
3465.282 18211032 18107142 18001380 17894918 17788724 17684210 17581966 
3468.657 17482126 17384102 17287240 17190568 17093886 16996812 16899690 
3472.032 16802174 16703926 16604116 16501987 16396994 16288998 16178621 
3475.407 16067000 15955476 15845492 15737772 15633237 15532195 15434782 
3478.783 15340411 15248258 15157255 15065758 14972907 14878055 14781988 
3482.158 14685874 14591837 14501452 14415128 14332383 14251638 14170568 
3485.533 14087046 13999847 13908867 13814895 13719713 13624689 13531155 
3488.908 13439761 13350504 13263177 13177508 13093257 13010080 12927806 
3492.284 12846060 12764500 12683194 12601938 12521139 12440937 12361293 
3495.659 12282209 12203380 12124530 12045592 11967077 11889393 11813120 
3499.034 11738358 11664867 11591527 11516870 11439574 11358447 11273460 
3502.409 11185735 11097347 11010610 10928475 10852846 10784805 10723804 
3505.785 10668109 10614459 10559899 10501645 10437833 10368499 10295546 
3509.160 10221553 10149676 10082456 10020537 9963882 9910692 9859473 9808803 
3513.017 9758580 9708972 9660420 9613026 9565873 9517405 9465996 9410598 
3516.875 9351381 9289972 9228944 9171139 9118723 9072199 9030756 8991954 
3520.732 8953426 8912467 8867657 8818489 8765810 8711210 8656348 8602743 
3524.590 8551070 8501364 8452778 8404029 8353900 8301277 8246231 8189467 
3528.447 8132578 8077282 8025503 7977882 7935429 7897534 7863221 7831304 
3532.304 7800570 7769435 7736480 7700525 7660629 7616284 7568168 7517360 
3536.162 7465716 7415190 7366826 7321399 7278269 7236726 7195929 7155573 
3540.019 7116197 7078644 7044125 7012740 6984388 6957688 6930484 6900757 
3543.877 6866555 6827004 6782139 6732971 6681049 6628764 6578537 6531948 
3547.734 6490174 6453078 6419315 6386664 6352503 6314612 6272086 6225497 
3551.592 6176391 6127662 6081726 6040365 6003980 5971931 5942706 5915163 
3555.449 5888327 5861559 5834458 5805981 5774618 5738725 5696960 5648519 
3559.306 5594411 5536551 5478028 5421996 5371270 5327529 5291773 5263634 
3563.164 5241432 5222484 5202967 5177717 5141539 5089639 5019344 4931667 
3567.021 4831476 4727289 4627212 4538543 4464553 4404903 4356505 4314906 
3570.879 4276825 4239583 4201676 4163270 4124232 4084795 4044560 4003058 
3574.736 3959454 3913680 3865872 3816465 3766529 3716598 3667442 3619828 
3578.594 3574224 3530996 3490412 3452403 3417002 3383774 3353087 3325273 
3582.451 3301835 3283306 3270185 3261439 3254395 3244947 3227756 3198315 
3586.308 3153522 3093484 3021809 2944942 2870757 2805588 2753568 2715756 
3590.166 2690117 2673214 2661012 2649377 2634710 2614508 2587042 2552111 
3594.023 2510885 2465264 2418581 2373303 2332294 2297117 2268305 2245423 
3597.881 2227172 2211619 2196833 2181281 2164265 2145351 2125539 2105928 
3601.738 2087882 2072767 2061281 2053724 2049829 2048731 2048764 2047632 
3605.595 2042139 2028690 2003957 1965812 1914423 1853325 1788509 1727760 
3609.453 1677199 1640179 1615335 1598408 1583077 1563324 1535924 1501044 
3613.310 1462777 1426341 1397021 1377643 1367638 1363184 1358863 1349157 
3617.168 1329348 1296812 1251817 1197124 1137588 1078592 1025316 981345 
3621.025 948038 924827 909819 901186 896737 896239 900223 909819 926288 
3625.365 948370 972279 991905 998049 981511 936847 865328 777423 690100 
3629.704 620944 579934 567061 574626 592011 609165 618854 618224 608667 
3634.044 594466 579868 568687 561985 558004 554421 548947 540487 529871 
3638.384 519355 510730 505322 502768 501375 499119 494508 487575 480178 
3642.723 475335 476131 484922 502005 525923 553160 580166 602230 616000 
3647.063 618456 608137 583683 545032 493181 431354 365158 302519 251891 
3651.402 219634 208960 218540 243736 277055 310510 336838 350898 350832 
3655.742 339358 323110 310245 307957 319330 344001 377262 412880 444588 
3660.082 466844 476397 472947 459049 438916 417225 398885 386846 383298 
3664.421 389234 405617 433609 474208 527681 593604 669724 753790 845342 
3668.761 948270 1073011 1236997 1460184 1757668 2135994 2592175 3117078 
3672.618 3697650 4317282 4953350 5565111 6091068 6456744 6589638 6454054 
3676.476 6065296 5479169 4766046 3990853 3210131 2467797 1801385 1241516 
3680.333 802883 485121 271552 136798 53514 -563 -37837 -63413 -77493 -79812 
3685.155 -72723 -61923 -55495 -61492 -86073 -130561 -191108 -259362 -326049 
3689.494 -382595 -424272 -449661 -460319 -458763 -448932 -434666 -419936 
3693.352 -407456 -399346 -395870 -396301 -398982 -402325 -405040 -406596 
3697.209 -407092 -407192 -407986 -410667 -416990 -428576 -446814 -472433 
3701.067 -504073 -538160 -569002 -591338 -600768 -595838 -577969 -551066 
3704.924 -519595 -487194 -456347 -427880 -401498 -377166 -355647 -338663 
3708.781 -329492 -331214 -345583 -372763 -409840 -452408 -493780 -528365 
3712.639 -551497 -560961 -557222 -542231 -519495 -492589 -464986 -439466 
3716.496 -417453 -398982 -383291 -368824 -354753 -341212 -329657 -322473 
3720.354 -322373 -330485 -347006 -369750 -396168 -423081 -448370 -471175 
3724.211 -491960 -511884 -531211 -549941 -566289 -577605 -580650 -573238 
3728.069 -554343 -525022 -488353 -448668 -411594 -381602 -362401 -354555 
3731.926 -356309 -363229 -371406 -379483 -389051 -404576 -430264 -467667 
3735.783 -513075 -558611 -593885 -611521 -609040 -588757 -555898 -515557 
3739.641 -471837 -426093 -378590 -330320 -284759 -248897 -233598 -249096 
3743.498 -301117 -383423 -476768 -554078 -593952 -590279 -550603 -490405 
3747.356 -425199 -369022 -330684 -313765 -317142 -336445 -365976 -400571 
3751.213 -436123 -468759 -493251 -504934 -500102 -478721 -444133 -402855 
3755.071 -361838 -326446 -300123 -283402 -274561 -271547 -273269 -280256 
3758.928 -293335 -312738 -335783 -357071 -370578 -371671 -359355 -337008 
3762.785 -311083 -288932 -275852 -273932 -281084 -292309 -301878 -305852 
3766.643 -304097 -299660 -296812 -299130 -308136 -322638 -339292 -353661 
3770.500 -362600 -364520 -359454 -348496 -333333 -315222 -294892 -273104 
3774.358 -250619 -227935 -206011 -185775 -168288 -155238 -147951 -148613 
3778.215 -157556 -174183 -196076 -218728 -237572 -249626 -254063 -253037 
3782.073 -250255 -250189 -255951 -268567 -286680 -306845 -324890 -337306 
3785.930 -342239 -339491 -330684 -317573 -302540 -287773 -274759 -264925 
3789.787 -258666 -255984 -255520 -255222 -252739 -246314 -235717 -222040 
3793.645 -208594 -199156 -197003 -203892 -218364 -236777 -253037 -261680 
3797.502 -259030 -245420 -224491 -203163 -189915 -192598 -216344 -260322 
3801.360 -316248 -370015 -406894 -417818 -401763 -365314 -319228 -276316 
3805.217 -247308 -238499 -249990 -274627 -300388 -315023 -311547 -289925 
3809.074 -255785 -216344 -178257 -144771 -115423 -87431 -57682 -24684 9178 
3813.414 38105 54674 51095 23658 -24452 -82661 -135563 -169712 -177396 
3817.754 -160471 -126984 -89750 -61923 -53541 -70105 -108500 -157722 -201043 
3822.093 -225319 -223332 -197268 -155536 -108964 -67853 -39030 -24949 -23756 
3826.433 -30482 -38400 -42343 -40521 -34159 -26440 -21370 -21602 -27964 
3830.772 -38765 -51255 -61227 -65732 -62552 -50824 -31641 -6891 20046 45462 
3835.594 64848 74359 71078 55105 28860 -2385 -32867 -57218 -73418 -81833 
3840.416 -84483 -84781 -85378 -87796 -92401 -98396 -104293 -108566 -109494 
3844.756 -106413 -99291 -88790 -75903 -61856 -47312 -32006 -14015 8846 39133 
3849.577 78037 123872 171005 210021 229547 217082 165536 77706 -30846 
3853.917 -136457 -217901 -263700 -274362 -257905 -223994 -180278 -131687 
3857.774 -81104 -30084 20046 67002 108262 140908 163149 174883 177237 171701 
3862.596 159967 143030 121353 96497 71906 52487 43971 50101 70481 100308 
3867.418 130733 151714 154398 134909 96662 50830 12723 -6328 -1756 22034 
3872.240 55039 85659 104683 108229 97756 80191 63323 54243 55602 65742 80456 
3877.544 94442 103125 103788 96298 82611 66803 53614 47417 51460 66273 89769 
3882.848 117575 143858 161724 165436 152940 126855 95436 69421 58485 67300 
3887.669 93713 130203 167060 194374 204617 194805 167524 130236 92685 63721 
3892.491 48941 49604 63555 87880 119100 155227 194407 235215 275497 312831 
3897.313 344432 368010 382203 387244 384657 376831 365622 352191 336805 
3901.653 318137 295457 268170 237072 204021 171800 143858 122812 110482 
3905.992 107334 112968 125894 144488 166497 190164 213833 236044 256135 
3910.332 273872 289124 302552 314788 326426 338098 350102 361941 372785 
3914.671 381407 386116 386083 380910 371293 358890 346223 335081 327123 
3919.011 323077 322944 326592 333290 342509 353452 364726 374974 382336 
3923.351 385287 383032 376068 366152 355607 346819 341248 339126 339590 
3927.690 341845 344664 347648 350732 354380 358426 362571 365423 365953 
3932.030 363234 357265 349008 339690 330704 322944 316711 311936 308620 
3936.369 307029 307261 310278 315882 324039 333754 343537 352589 360018 
3940.709 365556 369535 371856 372685 371923 369999 367413 365522 365920 
3945.049 369999 378224 389963 403295 415898 425550 430757 431354 428634 
3949.388 424223 419745 416429 414638 414240 415301 417391 421105 426147 
3953.728 432050 438120 443460 447009 448468 448336 447473 446710 446412 
3958.067 446246 445350 442564 437291 429894 421802 414737 410691 410990 
3962.407 415567 423858 434272 444820 454173 461205 465318 466778 465882 
3966.747 463262 460044 457158 455434 455301 456893 459779 462864 465849 
3971.086 467905 469365 470957 473080 476496 481671 488206 495470 503233 
3975.426 510862 518194 525492 532591 539525 546492 553160 559795 566331 
3979.765 573066 579901 586636 592509 596590 597818 595230 588693 578408 
3984.105 565037 550307 535544 522871 513815 509469 510365 516303 526023 
3988.445 537999 550075 560492 567957 572469 574327 574891 574991 575853 
3992.784 577711 580233 582887 585044 586138 586205 585143 583186 580863 
3997.124 578408 576152 573929 572204 570810 569682 568720 568090 
##END=
