
##TITLE=1708_1_c
##JCAMP-DX=5.01  $$ Nicolet v. 1
##DATATYPE=INFRARED SPECTRUM
##ORIGIN=UniL
##OWNER=Nicolet
##LONGDATE=2011/09/08
##TIME=11:56:35
##SPECTROMETER/DATA SYSTEM=Nicolet iS5
##DATA PROCESSING=
Ratio against background
%Transmittance->Absorbance
Truncated
ElementMultiply or ElementDivide
##COMMENTS=
Number of sample scans: 32
Collection length: 51.16 sec
Sample gain: 2.0
Background collected on: Jeu Sep 08 11:48:24 2011 (GMT+02:00);
Number of background scans: 32
Background gain: 2.0
Sample spacing:  1.000
Number of scan points: 12415
Resolution points: 8192
Number of FFT points: 65536
Apodization: N-B fort;
Phase correction: Mertz;
Laser frequency: 15798.0 cm-1
Number of rejected sample scans: 0
Number of rejected background scans: 0
Bench serial number: ASB1000141;
##RESOLUTION=4.000
##XUNITS=1/CM
##YUNITS=ABSORBANCE
##FIRSTX=649.893372
##LASTX=4000.122314
##FIRSTY=0.099684
##MAXX=4000.122314
##MINX=649.893372
##MAXY=0.289708
##MINY=-0.001369
##XFACTOR=1.000000
##YFACTOR=1.000000E-009
##NPOINTS=6950
##DELTAX=0.482117
##ZPD=6100
##XYDATA=(X++(Y..Y))
649.893 99683600 99399872 99230280 99183896 99238728 99353472 99486064 
653.268 99613992 99741576 99893560 100096872 100366400 100696632 101067464 
656.643 101460040 101870400 102316080 102828552 103436888 104149336 
659.536 104948128 105795944 106656472 107511152 108370672 109267304 
662.428 110240008 111312592 112482432 113720784 114988584 116247880 
665.321 117462200 118594624 119588088 120349008 120764800 120744888 
668.214 120284704 119474640 118442096 117274824 115992200 114561544 
671.107 112935704 111087576 109033592 106838640 104592976 102394632 
673.999 100311544 98369288 96561792 94866896 93266880 91756600 90341944 
677.374 89030752 87823432 86709656 85671784 84692480 83761936 82879224 
680.749 82049688 81278544 80566040 79906920 79292976 78717624 78178832 
684.124 77678256 77218664 76797368 76405544 76027864 75648848 75258624 
687.498 74857560 74455176 74066464 73703952 73371408 73061000 72755584 
690.873 72435856 72085312 71695416 71266784 70807032 70328080 69842464 
694.248 69365048 68913272 68505656 68163104 67901288 67725440 67624072 
697.623 67567200 67511184 67403864 67198624 66866232 66399024 65812812 
700.998 65140464 64425260 63707472 63021012 62389264 61823608 61326984 
704.373 60896532 60526376 60208980 59934988 59694888 59478172 59276000 
707.747 59082688 58896900 58722532 58567764 58445912 58374048 58372224 
711.122 58464752 58674740 59018612 59498312 60093672 60755772 61407776 
714.497 61961732 62331124 62450436 62294640 61880416 61264864 60526948 
717.872 59763244 59073804 58550664 58287600 58369080 58857892 59783168 
721.247 61112240 62737352 64460232 66025728 67165440 67634680 67292008 
724.621 66124140 64257876 61917368 59378896 56910548 54699764 52850484 
727.996 51379608 50244480 49373324 48694500 48156528 47725244 47380888 
731.371 47110768 46900644 46735384 46601388 46488340 46391552 46310112 
734.746 46245424 46197956 46167588 46154176 46159592 46186828 46239160 
738.121 46318372 46422224 46545580 46682400 46829152 46986660 47159924 
741.496 47355612 47577044 47821892 48079500 48333780 48567344 48763184 
744.870 48907120 48986780 48988936 48898516 48700280 48381812 47940388 
748.245 47387648 46750656 46066300 45375804 44716964 44115604 43587048 
751.620 43136524 42764228 42467328 42243780 42091044 42005484 41982016 
754.995 42013768 42092180 42207988 42350828 42508364 42667164 42813736 
758.370 42936476 43029756 43096016 43146148 43195992 43262608 43359696 
761.744 43493572 43664716 43870452 44109332 44386140 44715936 45124172 
765.119 45651880 46354608 47295640 48544148 50153168 52136092 54439740 
768.494 56928040 59390864 61550312 63137332 63952944 63921236 63130208 
771.869 61814284 60307840 58925704 57900280 57312984 57082224 56994036 
775.244 56772776 56186964 55096392 53502748 51528740 49384128 47295900 
778.619 45444196 43950184 42853048 42129120 41714392 41534540 41524220 
781.993 41631424 41824448 42084476 42400364 42766424 43179924 43640788 
785.368 44150704 44712632 45329684 46004888 46742800 47550720 48439228 
788.743 49423296 50520316 51746896 53118620 54648768 56349528 58236148 
792.118 60327940 62648848 65225816 68081280 71227584 74659320 78351104 
795.493 82256024 86305568 90423632 94528584 98546232 102429288 106167392 
798.867 109803144 113426576 117173520 121193032 125599088 130434784 
801.760 135618992 140933104 145991664 150302304 153352592 154666640 
804.653 153957568 151191696 146620832 140720464 134090736 127344208 
807.546 120927816 115086392 109836216 105016392 100369608 95644272 90692320 
810.920 85492344 80153920 74856736 69809888 65187620 61092788 57566336 
814.295 54589776 52110876 50060504 48371296 46984000 45844308 44908140 
817.670 44138492 43506248 42993172 42589824 42293192 42102324 42015156 
821.045 42026508 42129928 42320072 42595416 42959224 43418244 43979884 
824.420 44648952 45426644 46309744 47290876 48358220 49494660 50677124 
827.794 51874312 53052688 54183100 55249740 56261524 57257864 58312840 
831.169 59520732 60991540 62835412 65134764 67932480 71203544 74843944 
834.544 78644992 82296704 85437840 87660848 88609904 88064616 85975512 
837.919 82499352 77951104 72765456 67383008 62180760 57452900 53362156 
841.294 49964324 47233172 45093072 43446476 42192216 41245256 40531788 
844.669 39991408 39580820 39267840 39032844 38867144 38766996 38730516 
848.043 38753048 38826376 38941180 39090084 39270092 39483448 39735284 
851.418 40030208 40369660 40750640 41168384 41619460 42104552 42630028 
854.793 43205072 43839736 44542360 45318316 46172820 47113276 48151424 
858.168 49306100 50601692 52066084 53732516 55638472 57823320 60330032 
861.543 63192592 66422260 69986312 73792104 77678368 81404256 84693808 
864.917 87263696 88859304 89320152 88594632 86756912 83984040 80536648 
868.292 76716464 72799264 69029896 65587392 62572232 60028872 57951316 
871.667 56304256 55035984 54092532 53426152 52993724 52761244 52701684 
875.042 52792636 53018432 53370476 53847912 54456676 55207824 56111360 
878.417 57170168 58372680 59686560 61060448 62420788 63680188 64755060 
881.792 65568976 66072448 66252796 66136764 65786904 65284996 64724328 
885.166 64185888 63727268 63383944 63167796 63076140 63100776 63234404 
888.541 63473208 63814992 64255768 64786600 65392108 66053160 66749260 
891.916 67461144 68174888 68878368 69561392 70213992 70824776 71382528 
895.291 71878472 72306688 72665520 72957112 73187056 73364304 73501360 
898.666 73615856 73727944 73858440 74025352 74237896 74494952 74784312 
902.040 75088000 75387016 75667704 75926984 76172512 76421552 76695432 
905.415 77018352 77413688 77901824 78502688 79233640 80109208 81140528 
908.790 82334232 83692152 85213624 86897416 88743848 90755608 92937576 
912.165 95294832 97833160 100559072 103483600 106627032 110019560 113703688 
915.540 117729432 122143112 126981856 132260400 137964192 144037552 
918.432 150375568 156824720 163155632 169078000 174264288 178353744 
921.325 181039664 182129184 181599488 179636128 176625632 173139344 
924.218 169802432 167252928 166055744 166579888 168983168 173150592 
927.110 178721248 185076048 191418000 196940944 200865856 202624112 
930.003 201946832 198848512 193592800 186576832 178269008 169107952 
932.896 159471728 149702720 140082928 130855960 122242856 114413352 
935.789 107496848 101580936 96703144 92869248 90060712 88243872 87370688 
939.163 87372144 88153016 89567232 91414528 93461688 95432472 97057984 
942.538 98120344 98462008 98024960 96848472 95061592 92848400 90413712 
945.913 87962896 85655920 83603368 81865896 80456288 79356776 78532104 
949.288 77945192 77560664 77348624 77285368 77347760 77513568 77762464 
952.663 78076016 78440528 78848648 79296160 79780920 80299712 80847304 
956.037 81417608 82005144 82607504 83225112 83860400 84514688 85186328 
959.412 85870840 86561168 87252560 87943624 88637408 89339480 90055240 
962.787 90786928 91532936 92288512 93049584 93814752 94586256 95368208 
966.162 96164432 96975576 97798584 98628840 99462192 100297984 101139600 
969.537 101992912 102862648 103750824 104655544 105573168 106501008 
972.429 107439560 108392952 109367112 110366144 111390520 112437144 
975.322 113500928 114579488 115674184 116790640 117935568 119112648 
978.215 120319624 121547952 122784944 124018360 125239432 126443056 
981.108 127625808 128782584 129903856 130977304 131990584 132936296 
984.000 133815672 134637968 135418064 136169488 136902832 137623616 
986.893 138334736 139040880 139751120 140477712 141234608 142031936 
989.786 142872624 143753264 144667040 145608096 146575024 147570608 
992.678 148599472 149663808 150760192 151880816 153015712 154158544 
995.571 155308992 156472560 157656496 158865504 160098288 161347888 
998.464 162605328 163864448 165125824 166396368 167686432 169004400 
1001.356 170355104 171739120 173156192 174609680 176108528 177664720 
1004.249 179290464 180991152 182764400 184601024 186490784 188428656 
1007.142 190417776 192467840 194590432 196791536 199068352 201407952 
1010.035 203791424 206200416 208616784 211022080 213393552 215696528 
1012.927 217886896 219918560 221750608 223362384 224757728 225964864 
1015.820 227024560 227981232 228875808 229740208 230601632 231487936 
1018.713 232426144 233443424 234560352 235785760 237117728 238548032 
1021.605 240072672 241699088 243449728 245356400 247452448 249760912 
1024.498 252288704 255026960 257957600 261060144 264311440 267684080 
1027.391 271136128 274598016 277976000 281153120 283996384 286382432 
1030.284 288196160 289333728 289708320 289238880 287858784 285533056 
1033.177 282267456 278124320 273213248 267688512 261722592 255479600 
1036.070 249121840 242792848 236618496 230722400 225212976 220181488 
1038.963 215705776 211836928 208603344 206013168 204051776 202678240 
1041.856 201810848 201326144 201037312 200695040 200030832 198762320 
1044.750 196653872 193571280 189491632 184516896 178838432 172717936 
1047.643 166429840 160217392 154292576 148801104 143825472 139398096 
1050.536 135505232 132103312 129129592 126518920 124209384 122147328 
1053.429 120292744 118614616 117086608 115686336 114390112 113174664 
1056.322 112020152 110910144 109834296 108786600 107762184 106755600 
1059.215 105759120 104764416 103765592 102762304 101761408 100776400 
1062.108 99823792 98921592 98084464 97323512 96646760 96058272 95557680 
1065.483 95136624 94777120 94447648 94103040 93694400 93171320 92495136 
1068.858 91647664 90632672 89476632 88219752 86913768 85609760 84352016 
1072.234 83177680 82111208 81164616 80339144 79626264 79010256 78470896 
1075.609 77988536 77545968 77130288 76733112 76347912 75968776 75588592 
1078.984 75199832 74796152 74375944 73943712 73510904 73092872 72707872 
1082.359 72373616 72104560 71913896 71813264 71813456 71926248 72162216 
1085.735 72529632 73034104 73677960 74461008 75381656 76437040 77621472 
1089.110 78923464 80324352 81795968 83302816 84811040 86291464 87727272 
1092.485 89115880 90465448 91787992 93090888 94371712 95616648 96805656 
1095.860 97918912 98948392 99905656 100825912 101763168 102779264 103931744 
1099.236 105248840 106715776 108258120 109751696 111023728 111878488 
1102.129 112146720 111700480 110489416 108546976 105985496 102972720 
1105.022 99691600 96332744 93057760 89984232 87193992 84724936 82582056 
1108.397 80745856 79182032 77848392 76698912 75691720 74788792 73956448 
1111.772 73168704 72402584 71639496 70865456 70071112 69253144 68415536 
1115.147 67569088 66729664 65914572 65141232 64423716 63771324 63189180 
1118.523 62678860 62239304 61867428 61558480 61306416 61103236 60940640 
1121.898 60810156 60703108 60609988 60518456 60410220 60261512 60041660 
1125.273 59717128 59260048 58650812 57885740 56977832 55956312 54861580 
1128.648 53735476 52620064 51548140 50540680 49608192 48751028 47962148 
1132.024 47230216 46542888 45888720 45258780 44648696 44058024 43490424 
1135.399 42951216 42446432 41980444 41555500 41171736 40828276 40524440 
1138.774 40260260 40036712 39854576 39713572 39611848 39546736 39514836 
1142.149 39514620 39545900 39610288 39709832 39845712 40016876 40220492 
1145.525 40451880 40705808 40977724 41263256 41557984 41857544 42157312 
1148.900 42452936 42741740 43023428 43299984 43575072 43852380 44134564 
1152.275 44422440 44715388 45012580 45313944 45620412 45933320 46253388 
1155.650 46579364 46908028 47234352 47552384 47856556 48141720 48402892 
1159.026 48634940 48831400 48984668 49087864 49134760 49121476 49046576 
1162.401 48910532 48715108 48462236 48154680 47796332 47392012 46949228 
1165.776 46476504 45982824 45477192 44967080 44458812 43958876 43473868 
1169.151 43011936 42582404 42194224 41855064 41570600 41343204 41174068 
1172.527 41063192 41011988 41022840 41099868 41246860 41467860 41766120 
1175.902 42145260 42609960 43167156 43825660 44596224 45489444 46514748 
1179.277 47681164 48996980 50471448 52116776 53946156 55974140 58215080 
1182.652 60679940 63376704 66308072 69469504 72844640 76397448 80071192 
1186.028 83775400 87389448 90777296 93783832 96262024 98091440 99179736 
1189.403 99481312 98997544 97777208 95906552 93499992 90692240 87613576 
1192.778 84385936 81117968 77891680 74771400 71803448 69015064 66421568 
1196.153 64027196 61827544 59812980 57970440 56286792 54749788 53349344 
1199.529 52079308 50935388 49915036 49015492 48232388 47559368 46988468 
1202.904 46509956 46114820 45794604 45540664 45344324 45194980 45079800 
1206.279 44985824 44899872 44811368 44714356 44606688 44489500 44365996 
1209.654 44239884 44115164 43995980 43888560 43801176 43744044 43729056 
1213.030 43767680 43869392 44042332 44291800 44621856 45035436 45533784 
1216.405 46116220 46778852 47515120 48316408 49173908 50081212 51034988 
1219.780 52035792 53086008 54189896 55351800 56576308 57869500 59239124 
1223.155 60693464 62240832 63885540 65626128 67453008 69349376 71292792 
1226.531 73255064 75206336 77114144 78942776 80658512 82229840 83632376 
1229.906 84854912 85900480 86787864 87547336 88221256 88860032 89517264 
1233.281 90255224 91140320 92238352 93618064 95341256 97458144 100008344 
1236.656 103016352 106493336 110438048 114838128 119667248 124879192 
1239.549 130410712 136176512 142070992 147987872 153817744 159458512 
1242.442 164823776 169830608 174398432 178450720 181906128 184686688 
1245.335 186723904 187954896 188329056 187809520 186375344 184030496 
1248.229 180807424 176770528 172004320 166601808 160653712 154232736 
1251.122 147397792 140202720 132704392 124977744 117122280 109250208 
1254.015 101490928 93976600 86820800 80125112 73963360 68374616 63370184 
1257.390 58932800 55024964 51594852 48585500 45941868 43609724 41543032 
1260.765 39703368 38057836 36582136 35257524 34068476 33002142 32045488 
1264.140 31184592 30406416 29699200 29053818 28464686 27928078 27441332 
1267.516 27000930 26602082 26239712 25910352 25613364 25351492 25130010 
1270.891 24955384 24832854 24765742 24756518 24807454 24922994 25110456 
1274.266 25378504 25735374 26185934 26728354 27351516 28033566 28743558 
1277.641 29439856 30073384 30596510 30964066 31144436 31126246 30919340 
1281.017 30553742 30070828 29518544 28938662 28361394 27805238 27277628 
1284.392 26779698 26311556 25874478 25471710 25107436 24783774 24501192 
1287.767 24257438 24050382 23878254 23740700 23637684 23567680 23527102 
1291.142 23510662 23512692 23530146 23563552 23617708 23698776 23812658 
1294.518 23962524 24148906 24370694 24628188 24924432 25265898 25661482 
1297.893 26120304 26649818 27256390 27944508 28718034 29578164 30521216 
1301.268 31532694 32583174 33630440 34617072 35480740 36166544 36630116 
1304.643 36848632 36821944 36571644 36136332 35564560 34913424 34237128 
1308.019 33584544 32996598 32498930 32103206 31807444 31599574 31462650 
1311.394 31378872 31334958 31321212 31330616 31357038 31392514 31427492 
1314.769 31453352 31463042 31453494 31425178 31379800 31318720 31240880 
1318.144 31143616 31023884 30881164 30718722 30543078 30361890 30182164 
1321.520 30007732 29840290 29681356 29534112 29404966 29303648 29239740 
1324.895 29221488 29253634 29337536 29473898 29663938 29910710 30217116 
1328.270 30583498 31004560 31467390 31954854 32448616 32933292 33400006 
1331.645 33845908 34271724 34678080 35062788 35419444 35740520 36018708 
1335.021 36250280 36436244 36580980 36692052 36777728 36848308 36916664 
1338.396 36998736 37114680 37285600 37528292 37853752 38263904 38753300 
1341.771 39313220 39935644 40614808 41346632 42127552 42952492 43814556 
1345.146 44707528 45627548 46573540 47545656 48538292 49532652 50493444 
1348.521 51364800 52076060 52558020 52747028 52602452 52113004 51298536 
1351.897 50206988 48905192 47477048 46007024 44573604 43247748 42080860 
1355.272 41105220 40333952 39762080 39372964 39144292 39056044 39091356 
1358.647 39237452 39483340 39816552 40222708 40688592 41204852 41770604 
1362.022 42392948 43084016 43852640 44695852 45595936 46520060 47426340 
1365.398 48264196 48982628 49530868 49858760 49926668 49710204 49207080 
1368.773 48439636 47452028 46302964 45049368 43743200 42424036 41116732 
1372.148 39841244 38617580 37471108 36437184 35553200 34848220 34334012 
1375.523 34000536 33823060 33771696 33825240 33978356 34243976 34650268 
1378.899 35236640 36053268 37154200 38598968 40445660 42730812 45447760 
1382.274 48515692 51778252 54989388 57846220 60050256 61313704 61423080 
1385.649 60279136 57930948 54598904 50634792 46477020 42515272 39014320 
1389.024 36102088 33777320 31965696 30562096 29467620 28599464 27894228 
1392.400 27310194 26820018 26409080 26074138 25818528 25648020 25564616 
1395.775 25564196 25636104 25767580 25944784 26156300 26394364 26653236 
1399.150 26930382 27225486 27539958 27875220 28231568 28606436 28994414 
1402.525 29387842 29777902 30157940 30524522 30877324 31217168 31544234 
1405.901 31856004 32149054 32421946 32678366 32928002 33186220 33469144 
1409.276 33789100 34152744 34559988 35007368 35491672 36012480 36570744 
1412.651 37165208 37787960 38423152 39048976 39647100 40209732 40745948 
1416.026 41281948 41858200 42522032 43314880 44264096 45369260 46595672 
1419.402 47878380 49137432 50300952 51312968 52141436 52778792 53240896 
1422.777 53572056 53843936 54152320 54589136 55220200 56070604 57123568 
1426.152 58338988 59673520 61099728 62604188 64183316 65834172 67547224 
1429.527 69309192 71110992 72958840 74875512 76891128 79033072 81313664 
1432.903 83730320 86272024 88937656 91749720 94755032 98014200 101572176 
1436.278 105425864 109500200 113674200 117831336 121893680 125823912 
1439.171 129594016 133160096 136428432 139252608 141468464 142898672 
1442.064 143395920 142870960 141292224 138696656 135182432 130914984 
1444.957 126104504 120975008 115766696 110693256 105933608 101635232 
1447.850 97887736 94715800 92070392 89850952 87932176 86200816 84594352 
1451.225 83110232 81804408 80756832 80043312 79697560 79699744 79979528 
1454.601 80435384 80962784 81460576 81863576 82164248 82425400 82754888 
1457.976 83258464 84018736 85075960 86443816 88120832 90089696 92314864 
1461.351 94733768 97266224 99798288 102178720 104243048 105815720 106761912 
1464.726 107036376 106705696 105927136 104881672 103738792 102619304 
1467.619 101594072 100706616 99975560 99399616 98955136 98591800 98234872 
1470.995 97789952 97175376 96354256 95361440 94297112 93289184 92446480 
1474.370 91828560 91457472 91336952 91468064 91856728 92505504 93402320 
1477.745 94511656 95776240 97130040 98502992 99840056 101110992 102312096 
1481.120 103468296 104623960 105837368 107168240 108677384 110434208 
1484.013 112513600 114996088 117952912 121420848 125371024 129676552 
1486.906 134120376 138374560 142029536 144663312 145859856 145309312 
1489.800 142897472 138747760 133215664 126775368 119916928 113014016 
1492.693 106283752 99835016 93687000 87833080 82299912 77157320 72528376 
1496.068 68563000 65384552 63051240 61541764 60783972 60680664 61138708 
1499.443 62081784 63440232 65144964 67126376 69303320 71588848 73899056 
1502.818 76131096 78166496 79860480 81003912 81330048 80535408 78364952 
1506.194 74775688 70054600 64762056 59463964 54518092 50030756 45952028 
1509.569 42190684 38681688 35400284 32365396 29613458 27170208 25043760 
1512.944 23217374 21659458 20333442 19204908 18243064 17416384 16693976 
1516.319 16051425 15474849 14966975 14541880 14213292 13982361 13832442 
1519.695 13729597 13636655 13527293 13404048 13299151 13258497 13311860 
1523.070 13457532 13667804 13905171 14141368 14364986 14587075 14832076 
1526.445 15126754 15483708 15897010 16347757 16816882 17294686 17783752 
1529.820 18295972 18844296 19436452 20072096 20745618 21450398 22185860 
1533.196 22957466 23773002 24631344 25520374 26417214 27298058 28140246 
1536.571 28927506 29652408 30310476 30899738 31416342 31850766 32186732 
1539.946 32407810 32511428 32512568 32439228 32318744 32162934 31965234 
1543.321 31704210 31357396 30915250 30391490 29820770 29248212 28708902 
1546.697 28213076 27747908 27285356 26799046 26276670 25730032 25189558 
1550.072 24693558 24267214 23913194 23613614 23342804 23080308 22819958 
1553.447 22571458 22354144 22185164 22069060 21994080 21935842 21864752 
1556.822 21747270 21548300 21237892 20803002 20270670 19711216 19210554 
1560.198 18824850 18563960 18405678 18314738 18256160 18199974 18127040 
1563.573 18031290 17921574 17817652 17741952 17709716 17721346 17763456 
1566.948 17815028 17857732 17881142 17886804 17886252 17896334 17930760 
1570.323 17994438 18085312 18197936 18328148 18472988 18628736 18788518 
1573.698 18938774 19062144 19142576 19173500 19166192 19148912 19157050 
1577.074 19212010 19314430 19446744 19586238 19713260 19816596 19894462 
1580.449 19951076 19992500 20022928 20043124 20052006 20049160 20036634 
1583.824 20018662 19999022 19977270 19946844 19897620 19818886 19705632 
1587.199 19562840 19405094 19253156 19128482 19050166 19030192 19076166 
1590.575 19192892 19383198 19646208 19972932 20343444 20724696 21074458 
1593.950 21352484 21525704 21577864 21512264 21349282 21119084 20853372 
1597.325 20582716 20332158 20122556 19974528 19906570 19934320 20068594 
1600.700 20312958 20664750 21117970 21666424 22304124 23022482 23807722 
1604.076 24634534 25465210 26256078 26956646 27518636 27903840 28084214 
1607.451 28048376 27801140 27362806 26764720 26043142 25239526 24395124 
1610.826 23549454 22740378 21995510 21330488 20747390 20235606 19777236 
1614.201 19351082 18938566 18527134 18113500 17707506 17330512 17009766 
1617.577 16768150 16617404 16555579 16569760 16639128 16740875 16854082 
1620.952 16962978 17062732 17161096 17277206 17432732 17643042 17910316 
1624.327 18224472 18569632 18932992 19309234 19699182 20105168 20525950 
1627.702 20953434 21373750 21773572 22144856 22488434 22811298 23122066 
1631.078 23425048 23717184 23988330 24224330 24411560 24539372 24603466 
1634.453 24606588 24560828 24483350 24394878 24313048 24247698 24199632 
1637.828 24162532 24124948 24072306 23989554 23866388 23699896 23497688 
1641.203 23274526 23048722 22833264 22630620 22432084 22219616 21972158 
1644.579 21670536 21305398 20881810 20422166 19961310 19538164 19185272 
1647.954 18919150 18741190 18640530 18599442 18593910 18592008 18554798 
1651.329 18432848 18177550 17768082 17245934 16718974 16299697 16041145 
1654.704 15921826 15886631 15879620 15863054 15818140 15739661 15632240 
1658.080 15503144 15359153 15202651 15031936 14842738 14631486 14396975 
1661.455 14141642 13871782 13596859 13328602 13077788 12852920 12657813 
1664.830 12490448 12342953 12202732 12054347 11881799 11672356 11420149 
1668.205 11129063 10813203 10492718 10188920 9917065 9683933 9488483 9324738 
1672.063 9183120 9051528 8916222 8762530 8579187 8364539 8131767 7907320 
1675.920 7719211 7586409 7509337 7474817 7462884 7455907 7444850 7430492 
1679.778 7421593 7428975 7458805 7507651 7563448 7608191 7626029 7612440 
1683.635 7581655 7563751 7592074 7683258 7831203 8016458 8219418 8427575 
1687.492 8634648 8838439 9038604 9233649 9421433 9600559 9772270 9940862 
1691.350 10111623 10288184 10469229 10647124 10808413 10937310 11020941 
1694.725 11056831 11058259 11053296 11072670 11131102 11221638 11318247 
1698.100 11388311 11397087 11319947 11153437 10926981 10696193 10512338 
1701.476 10399042 10344576 10319738 10291882 10235665 10135499 9985444 
1704.851 9791045 9567228 9334217 9109688 8904384 8720305 8553064 8394942 
1708.708 8237585 8075257 7905700 7730307 7552827 7378150 7209775 7048570 
1712.566 6893182 6741115 6590244 6440333 6292861 6149875 6011304 5875094 
1716.423 5737349 5596190 5455916 5328602 5230063 5172420 5158706 5181875 
1720.281 5229326 5286373 5341080 5387675 5426424 5462929 5504940 5558836 
1724.138 5626432 5705152 5789225 5872776 5951306 6022156 6083138 6132266 
1727.995 6166578 6183483 6182643 6167149 6142179 6112910 6080282 6038047 
1731.853 5972166 5863104 5694711 5465211 5196529 4930997 4714493 4571624 
1735.710 4498634 4472722 4465859 4455414 4426727 4375682 4307209 4233293 
1739.568 4167083 4117776 4088709 4077103 4077905 4086535 4100248 4117274 
1743.425 4136474 4156479 4176283 4195085 4212817 4230516 4248183 4265180 
1747.282 4278330 4283551 4276156 4252766 4212281 4155943 4088374 4015599 
1751.140 3944942 3883791 3837992 3810448 3800253 3803429 3812521 3818069 
1754.997 3811317 3786482 3743501 3689062 3634730 3592031 3566874 3557320 
1758.855 3554714 3547398 3524516 3480057 3415132 3337560 3259603 3192039 
1762.712 3141807 3110136 3093951 3087944 3087277 3087410 3083773 3072594 
1766.570 3050671 3017471 2975901 2932466 2894005 2865120 2845509 2828900 
1770.427 2806556 2770007 2716523 2652411 2592009 2551045 2539247 2556511 
1774.284 2593942 2640077 2684383 2721791 2752667 2780111 2807389 2835537 
1778.142 2861718 2881397 2890536 2888501 2878762 2868022 2862785 2866121 
1781.999 2876660 2889235 2898475 2900409 2894939 2884932 2875059 2868989 
1785.857 2868089 2871591 2878028 2886767 2897941 2911984 2928163 2942740 
1789.714 2950146 2943307 2917455 2872558 2815293 2757202 2709888 2680815 
1793.572 2670280 2673181 2682116 2690750 2696518 2698719 2698685 2697285 
1797.429 2693984 2687150 2675648 2659412 2640910 2624009 2612942 2610108 
1801.286 2615542 2627009 2641777 2658112 2675448 2694418 2715789 2739196 
1805.144 2763171 2785713 2805622 2822930 2838872 2855414 2872791 2890203 
1809.001 2904712 2913318 2914419 2909082 2901143 2895606 2896273 2904012 
1812.859 2916988 2931198 2943241 2951681 2957419 2963891 2974967 2993716 
1816.716 3020975 3055576 3095086 3137435 3180691 3224351 3267949 3310783 
1820.573 3352285 3391488 3427889 3461654 3493050 3521977 3547799 3569881 
1824.431 3587921 3603557 3620262 3641914 3671519 3709246 3751556 3792232 
1828.288 3824421 3843408 3849692 3849559 3852066 3867042 3899170 3947182 
1832.146 4004965 4065598 4123228 4175581 4224092 4272140 4323607 4380870 
1836.003 4444234 4513298 4587630 4668640 4758911 4861665 4978888 5110425 
1839.861 5253673 5404449 5558332 5711900 5862399 6008649 6150144 6287717 
1843.718 6423855 6562020 6706723 6860294 7022506 7188214 7349167 7494908 
1847.575 7614902 7701739 7751388 7764611 7744440 7695736 7622320 7526362 
1851.433 7409561 7274361 7125056 6968328 6810982 6657766 6510556 6367431 
1855.290 6224421 6078299 5928263 5776801 5628278 5486585 5353693 5228588 
1859.148 5108715 4992362 4879591 4772981 4675741 4589907 4514704 4446309 
1863.005 4379799 4311928 4242628 4174912 4113494 4061550 4018107 3978915 
1866.863 3937419 3888639 3832945 3776756 3730768 3705370 3706071 3730835 
1870.720 3772344 3820008 3865471 3902814 3929461 3944641 3948419 3940361 
1874.577 3920534 3889842 3851263 3808777 3767063 3728562 3692638 3655613 
1878.435 3612645 3560193 3497827 3429091 3359064 3293188 3234232 3181592 
1882.292 3132696 3084641 3036490 2990280 2949345 2916887 2893938 2878562 
1886.150 2866588 2853680 2837538 2818161 2797752 2778943 2763938 2753201 
1890.007 2746932 2744998 2748933 2760270 2780277 2807889 2839372 2869256 
1893.865 2892204 2906013 2911684 2913885 2917655 2926528 2939738 2954349 
1897.722 2965825 2972031 2974066 2976768 2985109 3002591 3028315 3057912 
1901.579 3084741 3103796 3113874 3117411 3119447 3124487 3134098 3146981 
1905.437 3159897 3169943 3176552 3181392 3187500 3197346 3210932 3225686 
1909.294 3238905 3248352 3254294 3259135 3265678 3275093 3286678 3297495 
1913.152 3305174 3308846 3310449 3313153 3319163 3328045 3335524 3336058 
1917.009 3324705 3301167 3271120 3243545 3225753 3221580 3227222 3234732 
1920.866 3234833 3222214 3196846 3165337 3136735 3118379 3112773 3117512 
1924.724 3126823 3135767 3143243 3150785 3162233 3179823 3202153 3224685 
1928.581 3241509 3248720 3245815 3236134 3224284 3214136 3206459 3199316 
1932.439 3190604 3180490 3172447 3171946 3183695 3207794 3239506 3270553 
1936.296 3292186 3300767 3298930 3294924 3298029 3314455 3344639 3382806 
1940.154 3420308 3449864 3468501 3478053 3483965 3489710 3497159 3504240 
1944.011 3509083 3512223 3518904 3536274 3571251 3626410 3697550 3775085 
1947.868 3847887 3908598 3954906 3990184 4020181 4048841 4076568 4100048 
1951.726 4115000 4120485 4119749 4119849 4127877 4146945 4173540 4199401 
1955.583 4214757 4212783 4194081 4164474 4133665 4109848 4096469 4091552 
1959.441 4090950 4090883 4091418 4096101 4109313 4131524 4160861 4190134 
1963.298 4213118 4227739 4236773 4247379 4266954 4299111 4340708 4383012 
1967.156 4416718 4434895 4436936 4426760 4409555 4389004 4364839 4334116 
1971.013 4295263 4250458 4206393 4172235 4156312 4160861 4183242 4217534 
1974.870 4259893 4311794 4380703 4475032 4598346 4742832 4890080 5015892 
1978.728 5101071 5135806 5123635 5077336 5013009 4943463 4874833 4807085 
1982.585 4737907 4667903 4600723 4543063 4500643 4475299 4462645 4454477 
1986.443 4442192 4421973 4394627 4366345 4342482 4325716 4313099 4299512 
1990.300 4279970 4255544 4232289 4221482 4233226 4271806 4333346 4407279 
1994.157 4481995 4547650 4599886 4639503 4669343 4691650 4705818 4709335 
1998.015 4700492 4680463 4654573 4630394 4614252 4608526 4609363 4609832 
2001.872 4600255 4576982 4540317 4496491 4454611 4423279 4407547 4409656 
2005.730 4429070 4464419 4514737 4577651 4647139 4715934 4772311 4807085 
2009.587 4815997 4801859 4772512 4740788 4717206 4707794 4712718 4728796 
2013.445 4750268 4775225 4802998 4834223 4868902 4905259 4939207 4968163 
2017.302 4992865 5018070 5051457 5099160 5161623 5233551 5304384 5363991 
2021.159 5406731 5434409 5455010 5478465 5511115 5552358 5595385 5631333 
2025.017 5652111 5656039 5646774 5631333 5616128 5603843 5593170 5582026 
2028.874 5569843 5559440 5556251 5564944 5586994 5619719 5656542 5692999 
2032.732 5729358 5771999 5832308 5917984 6030924 6162310 6297130 6417466 
2036.589 6510825 6573356 6609688 6630480 6644375 6657665 6671123 6681420 
2040.447 6685154 6681319 6670989 6656924 6641784 6625501 6606223 6582910 
2044.304 6556470 6531309 6514323 6513079 6532419 6573659 6633810 6706319 
2048.161 6784259 6858981 6921091 6962738 6975398 6954792 6903114 6829293 
2052.019 6749326 6680948 6640607 6636300 6665874 6716886 6772816 6819532 
2055.876 6849556 6865108 6874836 6888739 6912405 6944894 6979136 7006477 
2059.734 7020351 7019374 7007050 6989338 6972031 6957553 6945736 6935366 
2063.591 6925771 6918465 6914930 6915267 6916344 6911496 6893182 6856187 
2067.448 6801121 6734149 6666278 6607603 6564677 6538474 6525120 6518898 
2071.306 6515736 6515265 6520075 6532823 6554014 6580151 6604541 6620723 
2075.163 6624794 6617494 6603700 6589604 6580387 6577628 6580084 6585164 
2079.021 6590748 6597611 6607569 6622910 6643904 6668499 6692624 6712881 
2082.878 6727452 6737211 6745086 6753028 6761307 6767600 6768542 6761508 
2086.736 6747138 6729000 6712578 6702955 6701474 6705714 6710828 6711973 
2090.593 6706925 6697470 6688149 6683943 6687644 6698513 6712881 6726880 
2094.450 6738153 6747441 6757975 6773388 6794491 6820205 6845955 6867598 
2098.308 6883218 6894058 6903215 6914627 6930148 6949001 6968799 6987183 
2102.165 7003615 7021294 7044226 7076523 7119060 7169754 7224227 7278775 
2106.023 7331441 7383542 7438446 7499055 7565572 7635100 7702920 7764847 
2109.880 7819699 7870137 7920884 7977005 8040186 8108001 8174274 8232588 
2113.738 8278312 8311004 8334140 8353190 8373593 8398759 8428825 8462035 
2117.595 8496093 8529478 8561580 8592975 8624069 8655503 8687683 8722029 
2121.452 8760773 8807194 8863936 8932049 9009747 9092872 9176115 9255243 
2125.310 9328361 9395768 9459731 9521673 9581793 9638568 9690269 9736181 
2129.167 9778133 9820529 9868116 9925030 9992463 10069129 10152017 10238685 
2133.025 10328255 10421542 10519262 10620944 10722276 10817721 10901599 
2136.400 10971325 11029369 11081100 11133447 11190495 11252207 11313519 
2139.775 11368379 11411747 11441717 11461006 11472675 11479037 11478866 
2143.150 11468048 11442567 11401032 11347223 11288354 11233471 11188046 
2146.526 11152077 11120394 11085144 11040347 10985835 10925350 10865179 
2149.901 10809364 10756715 10700473 10632217 10545063 10438750 10318720 
2153.276 10194178 10072486 9956965 9845847 9735537 9627355 9531190 9465015 
2157.134 9452248 9509514 9640059 9826698 10038882 10241433 10404709 10512982 
2160.991 10564618 10566723 10530703 10466445 10384211 10292967 10203201 
2164.366 10126545 10071910 10042001 10031184 10026640 10010975 9969679 
2167.741 9895708 9790807 9664418 9528175 9392619 9263637 9141766 9026357 
2171.599 8916661 8814228 8722840 8645870 8584763 8538331 8503053 8475381 
2175.456 8453961 8438420 8429028 8423150 8414738 8395347 8356467 8294996 
2179.314 8214860 8127277 8046127 7983956 7947205 7933134 7933471 7937554 
2183.171 7937115 7928781 7913967 7895746 7875771 7854414 7828909 7797332 
2187.029 7760530 7721841 7686462 7659279 7641204 7629604 7619184 7605022 
2190.886 7583880 7557885 7530677 7507179 7490829 7482199 7479098 7479772 
2194.743 7482570 7487290 7494369 7504111 7513584 7519855 7519686 7511292 
2198.601 7496964 7481896 7471884 7471615 7482267 7500605 7521406 7538633 
2202.458 7547770 7547534 7537689 7519990 7495144 7463861 7427222 7388024 
2206.316 7349605 7316379 7291713 7276888 7270115 7268531 7269542 7272945 
2210.173 7281369 7298890 7328206 7368578 7415223 7459850 7494301 7513315 
2214.031 7516922 7510078 7499324 7491605 7490391 7496223 7507550 7521878 
2217.888 7538633 7557581 7578586 7600335 7619083 7630144 7629503 7616520 
2221.745 7592917 7564459 7536644 7513247 7494436 7477446 7458030 7433255 
2225.603 7402854 7369522 7336597 7307348 7282447 7261288 7242724 7227259 
2229.460 7216512 7214087 7221936 7239658 7263343 7286356 7301923 7306809 
2233.318 7301653 7291410 7283290 7283222 7294544 7316244 7344550 7374543 
2237.175 7403191 7428334 7449704 7467705 7482098 7492346 7498482 7501179 
2241.032 7502763 7506168 7513786 7525889 7540960 7555761 7567831 7576294 
2244.890 7583408 7592917 7608832 7633381 7665383 7701133 7735299 7763970 
2248.747 7785222 7799491 7808835 7815178 7819664 7822026 7821959 7819496 
2252.605 7816156 7814469 7816595 7823477 7833665 7843855 7850365 7849826 
2256.462 7840886 7824050 7800841 7773213 7742180 7708451 7672601 7635438 
2260.320 7599323 7565875 7537116 7513416 7493830 7477211 7462547 7450715 
2264.177 7443805 7444412 7454322 7473232 7498212 7524339 7546320 7560616 
2268.034 7566179 7564223 7557379 7548647 7540218 7532733 7526463 7521068 
2271.892 7516450 7512202 7507853 7502493 7494976 7485031 7473098 7461536 
2275.749 7453243 7450951 7455738 7467064 7481660 7495919 7507550 7515877 
2279.607 7522518 7530104 7541061 7555727 7572956 7589713 7602729 7610181 
2283.464 7611698 7608360 7601717 7592782 7581554 7568202 7552086 7534149 
2287.322 7515776 7499021 7485672 7476132 7469154 7463390 7456850 7448828 
2291.179 7439727 7430761 7423413 7418425 7415190 7412830 7409999 7406089 
2295.036 7401135 7395978 7391361 7387654 7384822 7382126 7379329 7376566 
2298.894 7374274 7372960 7372825 7372926 7371477 7367028 7358502 7346471 
2302.751 7332486 7318367 7305764 7295251 7286052 7276955 7266948 7256099 
2306.609 7245419 7236625 7231100 7229483 7231302 7235177 7240331 7246328 
2310.466 7253505 7262467 7273754 7286322 7298722 7308831 7314963 7317255 
2314.323 7316648 7314929 7313885 7313885 7313817 7311796 7305091 7292791 
2318.181 7274765 7252629 7228944 7206776 7188719 7176087 7168845 7165577 
2322.038 7163219 7156785 7140954 7110269 7060930 6992369 6907591 6813238 
2325.896 6717458 6628764 6553812 6495724 6454222 6425705 6406436 6392650 
2329.753 6381957 6374122 6369449 6368474 6371197 6377014 6385689 6397256 
2333.611 6412355 6431758 6455500 6482640 6511061 6538306 6562794 6584088 
2337.468 6603297 6622641 6644072 6668600 6696225 6726005 6757234 6789678 
2341.325 6823907 6860563 6899646 6939776 6979034 7015367 7048537 7081170 
2345.183 7118084 7164735 7226080 7303776 7395944 7497167 7600874 7699514 
2349.040 7785964 7854786 7901921 7925035 7923989 7901111 7861398 7810927 
2352.898 7757156 7706596 7663259 7628795 7602594 7582532 7566313 7552591 
2356.755 7541600 7534385 7532599 7537319 7549658 7569517 7597030 7631324 
2360.613 7671555 7716276 7763262 7810455 7856135 7900031 7943021 7987466 
2364.470 8035865 8089604 8148749 8211585 8275948 8339950 8403522 8467508 
2368.327 8533363 8602135 8673012 8743530 8810847 8872865 8929141 8982178 
2372.185 9035897 9094766 9161969 9238760 9324197 9416625 9513544 9613466 
2376.042 9715375 9818970 9923912 10030134 10137127 10244961 10354315 
2379.417 10466140 10581492 10700745 10823121 10946655 11068591 11186414 
2382.793 11298420 11404128 11503737 11597958 11687196 11771312 11849552 
2386.168 11921542 11987207 12047227 12102554 12154003 12201642 12244889 
2389.543 12282414 12313910 12339612 12361191 12380623 12399817 12419763 
2392.918 12440050 12459076 12475580 12488982 12499860 12510193 12522368 
2396.294 12538839 12560496 12587544 12619948 12657233 12699229 12746041 
2399.669 12797907 12854661 12915689 12980104 13047740 13118698 13194279 
2403.044 13275988 13365299 13462760 13568040 13679875 13797040 13918549 
2406.419 14043719 14172210 14303583 14436604 14570148 14703388 14836807 
2409.795 14972153 15112516 15260475 15417409 15582026 15750621 15917391 
2413.170 16076662 16223950 16357012 16476037 16582118 16677035 16762156 
2416.545 16837618 16903512 16960668 17009734 17052738 17091646 17127870 
2419.920 17162062 17194464 17224870 17253864 17282618 17312858 17346444 
2423.296 17384584 17427594 17474986 17526318 17581690 17641868 17708886 
2426.671 17784856 17871888 17971162 18083652 18209614 18349508 18503690 
2430.046 18672144 18854400 19049094 19254192 19467708 19687950 19914720 
2433.421 20148552 20390634 20642302 20903678 21174014 21452280 21736820 
2436.797 22027228 22323762 22627164 22938324 23257468 23584122 23917008 
2440.172 24255162 24597330 24942960 25291746 25642676 25994980 26347360 
2443.547 26699180 27050190 27401732 27755468 28112776 28474592 28839684 
2446.922 29205966 29570112 29929204 30281380 30625984 30963496 31294360 
2450.298 31618710 31935670 32244258 32542996 32831110 33109010 33378072 
2453.673 33639996 33897060 34150768 34401936 34649980 34893568 35129824 
2457.048 35355244 35565388 35755992 35923284 36064608 36178500 36265152 
2460.423 36325276 36359896 36369984 36356328 36320016 36262956 36188368 
2463.799 36100612 36005244 35908236 35814888 35730052 35657568 35600884 
2467.174 35562976 35547660 35558232 35598152 35670516 35776932 35918388 
2470.549 36094528 36304416 36546236 36817976 37116340 37437448 37776716 
2473.924 38128336 38486864 38847248 39204668 39555812 39897176 40225944 
2477.300 40539248 40834792 41109776 41362192 41589740 41789900 41960664 
2480.675 42099700 42205216 42276536 42314304 42320364 42297756 42250168 
2484.050 42180712 42092360 41987308 41867684 41735512 41593312 41443764 
2487.425 41289272 41132032 40972628 40810660 40644240 40470392 40286072 
2490.801 40087944 39873204 39639840 39386388 39112564 38818808 38506052 
2494.176 38175908 37829852 37469340 37094508 36705356 36300708 35879696 
2497.551 35441516 34986360 34515788 34032748 33540796 33043932 32545924 
2500.926 32049626 31556886 31068514 30584494 30104598 29629242 29159084 
2504.302 28696088 28243026 27802728 27378194 26971702 26584362 26216376 
2507.677 25867094 25534994 25218878 24918256 24632886 24363546 24111324 
2511.052 23876504 23658818 23457676 23271590 23098968 22939406 22792650 
2514.427 22659348 22540256 22435816 22345912 22270186 22207586 22157268 
2517.802 22118460 22090814 22073730 22066514 22068328 22077742 22094232 
2521.178 22117312 22147296 22185094 22231614 22287242 22351528 22423220 
2524.553 22499740 22578472 22656032 22729906 22797436 22856698 22906468 
2527.928 22945798 22974234 22991318 22996662 22989188 22968052 22932282 
2531.303 22881670 22816816 22739612 22652994 22559766 22462648 22362936 
2534.679 22261014 22156536 22049328 21939814 21830150 21722780 21621150 
2538.054 21527932 21444516 21370966 21305954 21247982 21195130 21146078 
2541.429 21099674 21054876 21010498 20965674 20919534 20871798 20823094 
2544.804 20774710 20727580 20682610 20639522 20597170 20554158 20509520 
2548.180 20462732 20414666 20367020 20320908 20277474 20236578 20197666 
2551.555 20159450 20121584 20083966 20047528 20013768 19984068 19959298 
2554.930 19939974 19925926 19916454 19910420 19906776 19903550 19898972 
2558.305 19890924 19877328 19856934 19828874 19792842 19749286 19698280 
2561.681 19640246 19575632 19505342 19431012 19354962 19280102 19209100 
2565.056 19144030 19085964 19034828 18990312 18951614 18918250 18890354 
2568.431 18867896 18850560 18837964 18828794 18822012 18817204 18814710 
2571.806 18815958 18822462 18835576 18855854 18882638 18914616 18950092 
2575.182 18987924 19026902 19066750 19106702 19145900 19183508 19218382 
2578.557 19250522 19280864 19311692 19345816 19385658 19433230 19488846 
2581.932 19551438 19618754 19688712 19759620 19830364 19900846 19971684 
2585.307 20043434 20116934 20192666 20271120 20352192 20435746 20520948 
2588.683 20607244 20693730 20779748 20865434 20951208 21037554 21125380 
2592.058 21214544 21304390 21393590 21480582 21563692 21642148 21715850 
2595.433 21785346 21851440 21915314 21977734 22039360 22100820 22162288 
2598.808 22224150 22286614 22349540 22413034 22477582 22543852 22612958 
2602.184 22686788 22766740 22854078 22949398 23052074 23161382 23276064 
2605.559 23395254 23518428 23645906 23777902 23914664 24056372 24202642 
2608.934 24352962 24507258 24665116 24826468 24990934 25157746 25325534 
2612.309 25492826 25657650 25818460 25974086 26123822 26266886 26403306 
2615.685 26532830 26655560 26771734 26881664 26986156 27085420 27179698 
2619.060 27268950 27352856 27431626 27505256 27574732 27641044 27705174 
2622.435 27767652 27828340 27886704 27941930 27993664 28042296 28088810 
2625.810 28134766 28181290 28229588 28279518 28330694 28382086 28433024 
2629.186 28482836 28531522 28578868 28624802 28668832 28710706 28749824 
2632.561 28786218 28820348 28852536 28883308 28913374 28942238 28969724 
2635.936 28995228 29018464 29039328 29058778 29077660 29097076 29118334 
2639.311 29142430 29169608 29200474 29235064 29273446 29315344 29360792 
2642.687 29409612 29461910 29518012 29578164 29642650 29711974 29786490 
2646.062 29866198 29950858 30040254 30133612 30230436 30329378 30429410 
2649.437 30529462 30628508 30726510 30823572 30920942 31019862 31121866 
2652.812 31227422 31336848 31449650 31565082 31682468 31801850 31923578 
2656.188 32048412 32176956 32309644 32446120 32586244 32729526 32875638 
2659.563 33024736 33177208 33332810 33491440 33651988 33813100 33973876 
2662.938 34133168 34290692 34446588 34601212 34754888 34907752 35059880 
2666.313 35211348 35362864 35515332 35669796 35827124 35988072 36152356 
2669.688 36319620 36489220 36660864 36834424 37010464 37189464 37371792 
2673.064 37557624 37746716 37938568 38133040 38329512 38527812 38727472 
2676.439 38928096 39128808 39329000 39528412 39727548 39927288 40128972 
2679.814 40334464 40544812 40761124 40983588 41212760 41448904 41692472 
2683.189 41944136 42204560 42474092 42752712 43040328 43336192 43639984 
2686.565 43951176 44269048 44593284 44922836 45257272 45596344 45940060 
2689.940 46289288 46644988 47008368 47379740 47759124 48145980 48539592 
2693.315 48939200 49345000 49757128 50175784 50601468 51034056 51472784 
2696.690 51917292 52367268 52822868 53284760 53753364 54228784 54710060 
2700.066 55196232 55685364 56176668 56668944 57162344 57657292 58153520 
2703.441 58650432 59146356 59639312 60126816 60607400 61079248 61541036 
2706.816 61992040 62430924 62856244 63266644 63660964 64038604 64399356 
2710.191 64743252 65070556 65381244 65675460 65953484 66215828 66463656 
2713.567 66698252 66920072 67129088 67323768 67501736 67659768 67795152 
2716.942 67905712 67990328 68049072 68083336 68095240 68087760 68064928 
2720.317 68031328 67992344 67953360 67919272 67894280 67881496 67883272 
2723.692 67901288 67937208 67992888 68070240 68170632 68295080 68443544 
2727.068 68615264 68808784 69022984 69256408 69508472 69778568 70065736 
2730.443 70368832 70685944 71014448 71351992 71695920 72043656 72393072 
2733.818 72741792 73087728 73428888 73763560 74090432 74408736 74717712 
2737.193 75016712 75304608 75580504 75843640 76093832 76332392 76561352 
2740.569 76783760 77003232 77222984 77446120 77675520 77913248 78161528 
2743.944 78422072 78696424 78985056 79287600 79602824 79928864 80263432 
2747.319 80603816 80946936 81289728 81627400 81954760 82266080 82555048 
2750.694 82816392 83046280 83242696 83404824 83533520 83630320 83696848 
2754.070 83734816 83745784 83730840 83690416 83623488 83527696 83400120 
2757.445 83236592 83033880 82789248 82501632 82171784 81800728 81390912 
2760.820 80944544 80463904 79952320 79413184 78851376 78272536 77682328 
2764.195 77086800 76491048 75899560 75316632 74746680 74194464 73665280 
2767.571 73164192 72696272 72265560 71874136 71523104 71212400 70941256 
2770.946 70708480 70512632 70351728 70223416 70124728 70052232 70002512 
2774.321 69971528 69955760 69951280 69953848 69958720 69960392 69953344 
2777.696 69932136 69891616 69828024 69738496 69621008 69475104 69301264 
2781.072 69101488 68879176 68638976 68386488 68127288 67866736 67608896 
2784.447 67356424 67110640 66871800 66639184 66410832 66184340 65956144 
2787.822 65721520 65475620 65214224 64933708 64632804 64312400 63975408 
2791.197 63625900 63268596 62908092 62548308 62192616 61844580 61507704 
2794.573 61186124 60884332 60606828 60357560 60139680 59955416 59805528 
2797.948 59690248 59609092 59561548 59546688 59563712 59611788 59689640 
2801.323 59796288 59929852 60088228 60268588 60467572 60681808 60907852 
2804.698 61142296 61382852 61627440 61874228 62121272 62366316 62605716 
2808.073 62836020 63052616 63250920 63426620 63575924 63695072 63781528 
2811.449 63832612 63846924 63823588 63762532 63664460 63531004 63364468 
2814.824 63167832 62945320 62702292 62444968 62180840 61918016 61664900 
2818.199 61429568 61219772 61042180 60902288 60804708 60752532 60747960 
2821.574 60791024 60880636 61013884 61186124 61391708 61623812 61875336 
2824.950 62138592 62405752 62668904 62920808 63153848 63362092 63540360 
2828.325 63685024 63794420 63868152 63907496 63914524 63893056 63847312 
2831.700 63781908 63701944 63611904 63515700 63416304 63315900 63215932 
2835.075 63117944 63024072 62936016 62856472 62787732 62731804 62690692 
2838.451 62666500 62662168 62682152 62732108 62819480 62952636 63140168 
2841.826 63390308 63711496 64111224 64598352 65182464 65874160 66684232 
2845.201 67621552 68690008 69884528 71188240 72570944 73984768 75369912 
2848.576 76657680 77772768 78647496 79226440 79472616 79374312 78944040 
2851.952 78217664 77244824 76086960 74809536 73471504 72127680 70823288 
2855.327 69589744 68450024 67415512 66489368 65667288 64939828 64295068 
2858.702 63718752 63196956 62716676 62265728 61833960 61412468 60993712 
2862.077 60571820 60141884 59700248 59244856 58775032 58292188 57799736 
2865.453 57303416 56811556 56333228 55878828 55458668 55081080 54753320 
2868.828 54480004 54263548 54104052 53999096 53944204 53931900 53952684 
2872.203 53995868 54048964 54101164 54143536 54169812 54177392 54166432 
2875.578 54139108 54097900 54045548 53983976 53914080 53836732 53752804 
2878.954 53663524 53570180 53474756 53379016 53284684 53193892 53108100 
2882.329 53029288 52958948 52898388 52848504 52809888 52783056 52768616 
2885.704 52767456 52780964 52810072 52855352 52916580 52992076 53079456 
2889.079 53175768 53278168 53384672 53494172 53606168 53721228 53839996 
2892.455 53963376 54092120 54227392 54369620 54519408 54676988 54841920 
2895.830 55014096 55193488 55380520 55576560 55783648 56003992 56239048 
2899.205 56489392 56754044 57031252 57318652 57613928 57915688 58223568 
2902.580 58537660 58858460 59186904 59523964 59871356 60231932 60609872 
2905.956 61010300 61439532 61903500 62408700 62961100 63566828 64233372 
2909.331 64967916 65778732 66673300 67656712 68729944 69887720 71118528 
2912.706 72401608 73708192 75004312 76248576 77396976 78409840 79250424 
2916.081 79893016 80325464 80548928 80577568 80434312 80148576 79748912 
2919.457 79259928 78700872 78082632 77409456 76680848 75894112 75047000 
2922.832 74140848 73181408 72179784 71152016 70116080 69091472 68096472 
2926.207 67144984 66247588 65409824 64632304 63912176 63243644 62619528 
2929.582 62032360 61475832 60945748 60440456 59960968 59510964 59095596 
2932.958 58720864 58392128 58114276 57890132 57721088 57606628 57544584 
2936.333 57531080 57560284 57625580 57718896 57831908 57957680 58090528 
2939.708 58226748 58364912 58504976 58647472 58792864 58940540 59088764 
2943.083 59234036 59371220 59493864 59593888 59661812 59688652 59666224 
2946.458 59589024 59456284 59272732 59048408 58797264 58536444 58283020 
2949.834 58051744 57854284 57697892 57585328 57515568 57484704 57486824 
2953.209 57514628 57560888 57618924 57682492 57747052 57809164 57865980 
2956.584 57915952 57957528 57989976 58013644 58029476 58040152 58048904 
2959.959 58059432 58074544 58096060 58124088 58157460 58194624 58234024 
2963.335 58274756 58316856 58361084 58407968 58457852 58510512 58565220 
2966.710 58621080 58677396 58733644 58789636 58845676 58902060 58959512 
2970.085 59019292 59082724 59151404 59226704 59309080 59397816 59491432 
2973.460 59587316 59683332 59777884 59870216 59960552 60049000 60134804 
2976.836 60215260 60285568 60339172 60368484 60366736 60328888 60252640 
2980.211 60138760 59991056 59815756 59620116 59412064 59198640 58985400 
2983.586 58775600 58569812 58366164 58160528 57947268 57721088 57476652 
2986.961 57211028 56922636 56612168 56281588 55932868 55567448 55185100 
2990.337 54783916 54360608 53911640 53434620 52929904 52400496 51853404 
2993.712 51297756 50742956 50197356 49666364 49150864 48648280 48152752 
2997.087 47657684 47156488 46645100 46121896 45588320 45047528 44503852 
3000.462 43961444 43423916 42893424 42371688 41859476 41357672 40867116 
3003.838 40389152 39924964 39476080 39043324 38627216 38227428 37843300 
3007.213 37473636 37117096 36772392 36438624 36114580 35799920 35493648 
3010.588 35194780 34902184 34614308 34329920 34047980 33768044 33490438 
3013.963 33215870 32946088 32682330 32425948 32178062 31939272 31709700 
3017.339 31489190 31276916 31071468 30871346 30674732 30480268 30287242 
3020.714 30095968 29907940 29725386 29550710 29386318 29233788 29094100 
3024.089 28967740 28855404 28757790 28676054 28611566 28565102 28536014 
3027.464 28522676 28520800 28524408 28526638 28519208 28493980 28444308 
3030.840 28364542 28252078 28106520 27930658 27729190 27507692 27272406 
3034.215 27028364 26779382 26528112 26276038 26024320 25774190 25527402 
3037.590 25285670 25051060 24824924 24607954 24400240 24201032 24009060 
3040.965 23823088 23641918 23464566 23290502 23119726 22952822 22790800 
3044.341 22634878 22486168 22345564 22213060 22087572 21968044 21852730 
3047.716 21740826 21631806 21526120 21424326 21327078 21234308 21145312 
3051.091 21058840 20973638 20888486 20802968 20716668 20629898 20543146 
3054.466 20456550 20370388 20285182 20201794 20121272 20044926 19974078 
3057.842 19909448 19851278 19799048 19752060 19709308 19670096 19633554 
3061.217 19599098 19566620 19536396 19509016 19486004 19469060 19460154 
3064.592 19460776 19471624 19491584 19518374 19548526 19577954 19602460 
3067.967 19618996 19624854 19618682 19599964 19569150 19527490 19476476 
3071.343 19418574 19356140 19290840 19223992 19156010 19086794 19015756 
3074.718 18942788 18868346 18793190 18718774 18646202 18576306 18508842 
3078.093 18443532 18379408 18315774 18252324 18188780 18125004 18061132 
3081.468 17997028 17932728 17868678 17805362 17743436 17683624 17625960 
3084.844 17570234 17516036 17462602 17410210 17360170 17313548 17272448 
3088.219 17238316 17211046 17189672 17172058 17155652 17138416 17119116 
3091.594 17097884 17075208 17052426 17030512 17010318 16992540 16977620 
3094.969 16966008 16958462 16955156 16956224 16961392 16970108 16981512 
3098.344 16995330 17010974 17028512 17047914 17068660 17090370 17112118 
3101.720 17132970 17152238 17169508 17184916 17198566 17210840 17222008 
3105.095 17232558 17242764 17253588 17265518 17279274 17295030 17312686 
3108.470 17331410 17350514 17368962 17386484 17402898 17418730 17434388 
3111.845 17450736 17468226 17487094 17507964 17531148 17556814 17584588 
3115.221 17613676 17642420 17668956 17691218 17707850 17718206 17722692 
3118.596 17722278 17718240 17711614 17703192 17693424 17682520 17671234 
3121.971 17660572 17651356 17644180 17639072 17635174 17630962 17625064 
3125.346 17616402 17605016 17591834 17578722 17567578 17560506 17558264 
3128.722 17561162 17568304 17578310 17589420 17600322 17609984 17617954 
3132.097 17624614 17631310 17639210 17650080 17664918 17684246 17707576 
3135.472 17733668 17761074 17788310 17814440 17839124 17862496 17885388 
3138.847 17908280 17932070 17957210 17983940 18012190 18041720 18071598 
3142.223 18101132 18129458 18155992 18180626 18204154 18227514 18252186 
3145.598 18279348 18309346 18342076 18376952 18413214 18450342 18488754 
3148.973 18529036 18571844 18617702 18666126 18715868 18765304 18812774 
3152.348 18857134 18898004 18935694 18971204 19005510 19039780 19074504 
3155.724 19109992 19146662 19184374 19223194 19263268 19304452 19347166 
3159.099 19391408 19437492 19485694 19536118 19589046 19644302 19701540 
3162.474 19760766 19821834 19884890 19950210 20017794 20087748 20159346 
3165.849 20231372 20302852 20372402 20439254 20503336 20564858 20624236 
3169.225 20681776 20737764 20792400 20845760 20898358 20951034 21004240 
3172.600 21058492 21113728 21169212 21223592 21275958 21325722 21372950 
3175.975 21418270 21463350 21509200 21556972 21606906 21658762 21711878 
3179.350 21765942 21820188 21874472 21929184 21984600 22041136 22099808 
3182.726 22161104 22225476 22293170 22364052 22437350 22512512 22589048 
3186.101 22666716 22745860 22827572 22912092 23000016 23090652 23183016 
3189.476 23275086 23365566 23453444 23538786 23622464 23705950 23790606 
3192.851 23877660 23967496 24059662 24153600 24248260 24342904 24437184 
3196.227 24531202 24625592 24720846 24818434 24918748 25022312 25128886 
3199.602 25237980 25348226 25458708 25568342 25676948 25784774 25892520 
3202.977 26000926 26110134 26220002 26330004 26439504 26548366 26656758 
3206.352 26765602 26875600 26987284 27100586 27214724 27328614 27441296 
3209.728 27552208 27661454 27769596 27877234 27984546 28091746 28198260 
3213.103 28303922 28409004 28514290 28621300 28731380 28845596 28964340 
3216.478 29086944 29211742 29336826 29460564 29581534 29698954 29813352 
3219.853 29925156 30035640 30145758 30256548 30368856 30483148 30599530 
3223.229 30717904 30838086 30959262 31080436 31200790 31319182 31434830 
3226.604 31547264 31656702 31764164 31871196 31979286 32089684 32202576 
3229.979 32317140 32431550 32543674 32651432 32754034 32851658 32945768 
3233.354 33037570 33128928 33220522 33312384 33404016 33495020 33585400 
3236.729 33675516 33766720 33859808 33955676 34054464 34155964 34260000 
3240.105 34365964 34473776 34582984 34693080 34802988 34911560 35017712 
3243.480 35120988 35222020 35322032 35423072 35527092 35634944 35746960 
3246.855 35862460 35980440 36100000 36220960 36343504 36467920 36594460 
3250.230 36722484 36850904 36978424 37103924 37227116 37348356 37468688 
3253.606 37589492 37711840 37836648 37964280 38094876 38228188 38364188 
3256.981 38502684 38643076 38784964 38927552 39070256 39213080 39356204 
3260.356 39500176 39645356 39792184 39940440 40089656 40239576 40389732 
3263.731 40540300 40692016 40845312 41000700 41158440 41317912 41478688 
3267.107 41640028 41801540 41963404 42126532 42291620 42459364 42630500 
3270.482 42804888 42982048 43161004 43340436 43519612 43698204 43876352 
3273.857 44055420 44236908 44422476 44613040 44809236 45009928 45213988 
3277.232 45419764 45626372 45833340 46041728 46252464 46467028 46686424 
3280.608 46910760 47139424 47371724 47606660 47843680 48082864 48324408 
3283.983 48568456 48815496 49065792 49319760 49578220 49842036 50111816 
3287.358 50387904 50669676 50956140 51245812 51537692 51831188 52126940 
3290.733 52426256 52730528 53040780 53357364 53679948 54007576 54339580 
3294.109 54675748 55016352 55361928 55713164 56070492 56433812 56803020 
3297.484 57177688 57557672 57942720 58332812 58727880 59127296 59530688 
3300.859 59938032 60349908 60767356 61191844 61625380 62069284 62524660 
3304.234 62991628 63469952 63958472 64456388 64961992 65474040 65991320 
3307.610 66513316 67040032 67572888 68114072 68665520 69229016 69804792 
3310.985 70392176 70989088 71593544 72204632 72822264 73447680 74082608 
3314.360 74728424 75385400 76052736 76729080 77413136 78104416 78803272 
3317.735 79510456 80226448 80950968 81682576 82418992 83158336 83899424 
3321.111 84641624 85385448 86130872 86877752 87624768 88370640 89113848 
3324.486 89853888 90590384 91323336 92052696 92777176 93494272 94201448 
3327.861 94896120 95576592 96242376 96893152 97528568 98147800 98748656 
3331.236 99328768 99885432 100416208 100918920 101392032 101833280 102240520 
3334.612 102611336 102944704 103240632 103501144 103729032 103927704 
3337.505 104099016 104242792 104357176 104438800 104484184 104490672 
3340.398 104456408 104380552 104262632 104102296 103898576 103650864 
3343.291 103358608 103021768 102640960 102216120 101746920 101232672 
3346.184 100672392 100065952 99414328 98720704 97989200 97224488 96431080 
3349.559 95612224 94769736 93904952 93018640 92111600 91184912 90240048 
3352.934 89278272 88301768 87312464 86314016 85311280 84309088 83312728 
3356.310 82326224 81351664 80389256 79438248 78497368 77566456 76646656 
3359.685 75740200 74850280 73979032 73127176 72294360 71478376 70677720 
3363.060 69890680 69116992 68357168 67612648 66884748 66174768 65483444 
3366.435 64811372 64158768 63525712 62911732 62316136 61737468 61174104 
3369.811 60623968 60085872 59557668 59038956 58529092 58027732 57534180 
3373.186 57048708 56570988 56101784 55641560 55190892 54749788 54317728 
3376.561 53893448 53475396 53062720 52654964 52253008 51858144 51471552 
3379.936 51093644 50723260 50358732 49997000 49635792 49273440 48910048 
3383.312 48546520 48184480 47825480 47470432 47119592 46772396 46428568 
3386.687 46087780 45750088 45416160 45085904 44760124 44438184 44119600 
3390.062 43803524 43489176 43176232 42864348 42554004 42245460 41939320 
3393.437 41636236 41336028 41039044 40744344 40451408 40159612 39869100 
3396.813 39580672 39295880 39016568 38744244 38479336 38220988 37967248 
3400.188 37714984 37461680 37205060 36944944 36682244 36419380 36159340 
3403.563 35904424 35656452 35415636 35181416 34952604 34727608 34504916 
3406.938 34283484 34062672 33841936 33621344 33400684 33180140 32959600 
3410.313 32738850 32517854 32296792 32076094 31856682 31639666 31426530 
3413.689 31218058 31014738 30816174 30621290 30428628 30237222 30045296 
3417.064 29852748 29659220 29464712 29269654 29074614 28880262 28688158 
3420.439 28499924 28317184 28141270 27972568 27810076 27651954 27496150 
3423.814 27340506 27183964 27026848 26869892 26714964 26562770 26413940 
3427.190 26267730 26123012 25977990 25831646 25683066 25532532 25380436 
3430.565 25227656 25075000 24923520 24774198 24628154 24486084 24348792 
3433.940 24215886 24086876 23960248 23834602 23708646 23581812 23454354 
3437.315 23326966 23201086 23077582 22957048 22838956 22722468 22606290 
3440.691 22488818 22369216 22246750 22121914 21995056 21867052 21738700 
3444.066 21609936 21480234 21348796 21214336 21076960 20937474 20798276 
3447.441 20662770 20534426 20415500 20306672 20206066 20110270 20014982 
3450.816 19916212 19811638 19700674 19584642 19465524 19345504 19226520 
3454.192 19109196 18993670 18879592 18766548 18654088 18541932 18429600 
3457.567 18316706 18202844 18087832 17972302 17856972 17743608 17633240 
3460.942 17527076 17424834 17326340 17229904 17134556 17039024 16942890 
3464.317 16845642 16747279 16647805 16547250 16446441 16346347 16247855 
3467.693 16152242 16059985 15970979 15884191 15798174 15711214 15622417 
3471.068 15531061 15437219 15340857 15241942 15139585 15033171 14922015 
3474.443 14806603 14688479 14570867 14457021 14349985 14251775 14162386 
3477.818 14080407 14003029 13926863 13849307 13767763 13681755 13591355 
3481.194 13497829 13402784 13308137 13215559 13125426 13037770 12951429 
3484.569 12865241 12777979 12689165 12599823 12511318 12426036 12345339 
3487.944 12270076 12199631 12132128 12065385 11997493 11927433 11854933 
3491.319 11780231 11704249 11626988 11547936 11466756 11382971 11296754 
3494.695 11209126 11121992 11037390 10957154 10882437 10813338 10749174 
3498.070 10688485 10629263 10569473 10506907 10439835 10366905 10288014 
3501.445 10203574 10115590 10026743 9940014 9858219 9783589 9716867 9658353 
3505.302 9606861 9561199 9518827 9477443 9434029 9386287 9332186 9271998 
3509.160 9207521 9141902 9079508 9023922 8976867 8937834 8904180 8871647 
3513.017 8836275 8794887 8746606 8692280 8633533 8572732 8511400 8450751 
3516.875 8390719 8331843 8274530 8220195 8170290 8125927 8087038 8052607 
3520.732 8020576 7988108 7952774 7912786 7867506 7817404 7763835 7707945 
3524.590 7650950 7593996 7537554 7482975 7431098 7383205 7340641 7303776 
3528.447 7272474 7245823 7222172 7199803 7177435 7154293 7130411 7106295 
3532.304 7082180 7058033 7032372 7003480 6969102 6927690 6879078 6824917 
3536.162 6768105 6712949 6662577 6619310 6583213 6552669 6524986 6497977 
3540.019 6470230 6441813 6413901 6388312 6365851 6345913 6327051 6306073 
3543.877 6280120 6246807 6205800 6158176 6106794 6055115 6006701 5963768 
3547.734 5926953 5895380 5866698 5837816 5805611 5767567 5722610 5671145 
3551.592 5615624 5559540 5507088 5461319 5423975 5394384 5370768 5350170 
3555.449 5329876 5307403 5281946 5252734 5220137 5184089 5144657 5101641 
3559.306 5055278 5006138 4955763 4906365 4860224 4819247 4784170 4754187 
3563.164 4727054 4698717 4665124 4621754 4565463 4495051 4412333 4321566 
3567.021 4229914 4144603 4071383 4013459 3970054 3937887 3911808 3886833 
3570.879 3859086 3825925 3786884 3742532 3694810 3645389 3596207 3548300 
3574.736 3501869 3456644 3411892 3367111 3321968 3276562 3231528 3187600 
3578.594 3145812 3106599 3070292 3036123 3003358 2971063 2938103 2904479 
3582.451 2870290 2836004 2802220 2768339 2733061 2694185 2648844 2595342 
3586.308 2533281 2465197 2396058 2332294 2280463 2244424 2224675 2218546 
3590.166 2220844 2225274 2226107 2219113 2201828 2174222 2138225 2097371 
3594.023 2055722 2016440 1981955 1952265 1926404 1902343 1877583 1850796 
3597.881 1821348 1789806 1757634 1727394 1700849 1680059 1665757 1657940 
3601.738 1654814 1654382 1654182 1652153 1646998 1638217 1625147 1607620 
3605.595 1584474 1554345 1515508 1466933 1409487 1346000 1281691 1222709 
3609.453 1173036 1134432 1104833 1079455 1052219 1018607 976463 928015 
3613.310 879007 836080 805506 790236 788908 796510 805605 808892 799331 
3617.650 773805 732282 679779 623964 573730 536174 515175 509900 516535 
3621.990 529605 543871 555383 562814 566796 569284 571308 572867 570578 
3626.329 558634 529572 476795 398387 300165 196529 106174 44965 19218 24784 
3631.151 51062 85958 119133 143659 156884 160066 156652 150984 146742 145416 
3635.973 146676 148432 148963 146676 141140 132954 122845 111609 99479 86455 
3640.794 72370 57690 43971 33267 27767 28695 36183 48444 62064 73199 78004 
3646.098 73795 59247 34493 530 -41316 -89916 -143645 -198758 -249924 -289561 
3650.920 -310156 -307772 -282640 -239890 -187895 -136755 -95415 -70205 
3654.778 -63248 -71331 -86305 -96343 -91374 -65732 -19416 41518 107964 
3659.117 169414 217314 244697 248742 230641 195236 150255 104152 63986 35057 
3663.939 18986 15473 22366 37542 59313 86455 118370 154697 195833 245559 
3668.761 312135 410525 560791 783531 1090882 1484487 1955660 2491190 3076532 
3673.100 3697048 4334885 4957338 5510376 5924568 6125444 6068555 5756621 
3676.958 5234523 4566032 3814961 3040594 2292121 1612708 1037737 585409 
3680.815 255936 31544 -114463 -210449 -277938 -327969 -364520 -387230 
3684.673 -397592 -400836 -406364 -425001 -466045 -533196 -623201 -725294 
3688.530 -825511 -911124 -974173 -1013083 -1030438 -1030239 -1016686 -992720 
3692.387 -961412 -926036 -890094 -857060 -829612 -808446 -793233 -782814 
3696.245 -775405 -769220 -763531 -758041 -753344 -750830 -752616 -760952 
3700.102 -778349 -805602 -841550 -882291 -921704 -953279 -972223 -976422 
3703.960 -967198 -948518 -925110 -901337 -880307 -863773 -852166 -845453 
3707.817 -844196 -848958 -861094 -880736 -907685 -939591 -973149 -1004158 
3711.675 -1028256 -1041842 -1042833 -1030338 -1005744 -971760 -933012 
3715.050 -894690 -861987 -839434 -829281 -830670 -840261 -853191 -864467 
3718.907 -871478 -874057 -875049 -877992 -884903 -896278 -909305 -920779 
3722.765 -927391 -928582 -925937 -923655 -924812 -931524 -942468 -953841 
3726.622 -960288 -957412 -943129 -919324 -890557 -862450 -841187 -831166 
3730.479 -834804 -851537 -877992 -909504 -941179 -970504 -997943 -1026504 
3734.337 -1060120 -1100311 -1144762 -1186332 -1216434 -1227172 -1216236 
3737.712 -1186068 -1143341 -1094825 -1045577 -997579 -950733 -904147 -859342 
3741.570 -821675 -801633 -812481 -866220 -965776 -1097205 -1230840 -1329652 
3745.427 -1369323 -1348480 -1283866 -1200640 -1122091 -1067987 -1048188 
3748.802 -1064880 -1110226 -1171297 -1233021 -1283602 -1316802 -1330775 
3752.177 -1325259 -1301342 -1260641 -1206885 -1145753 -1084711 -1030735 
3755.553 -989017 -961842 -948518 -945675 -949014 -955230 -962735 -970669 
3759.410 -978636 -984422 -984554 -975331 -955329 -926499 -894426 -866584 
3763.268 -850148 -848793 -861623 -882952 -904015 -916679 -916579 -904875 
3767.125 -887614 -872833 -867179 -874520 -894161 -921142 -948551 -969181 
3770.982 -978537 -974868 -959296 -934930 -905470 -874586 -845353 -820187 
3774.840 -800013 -785394 -775637 -770610 -770444 -776034 -788271 -807421 
3778.697 -831596 -857391 -879083 -891748 -892607 -882423 -865228 -846312 
3782.555 -831067 -823130 -822601 -827363 -833514 -836954 -835102 -827462 
3786.412 -814631 -797797 -778018 -755792 -731744 -706902 -683414 -664226 
3790.270 -651886 -647751 -651357 -660885 -673192 -685962 -698566 -712162 
3794.127 -729330 -752583 -781822 -814631 -845287 -866683 -873462 -864037 
3797.984 -841352 -812481 -786485 -773156 -779341 -807355 -851802 -901502 
3801.842 -940517 -955858 -942898 -905668 -855208 -804940 -768327 -755891 
3805.699 -771073 -810265 -861293 -908181 -935558 -936054 -911157 -868601 
3809.557 -818103 -768096 -723078 -683778 -648776 -616518 -586970 -563443 
3813.414 -551596 -557751 -586242 -636237 -700054 -764061 -812845 -836590 
3817.271 -834275 -813308 -786155 -767467 -767931 -794092 -844196 -908313 
3821.129 -969545 -1009877 -1018703 -994703 -946138 -885432 -824982 -774016 
3824.986 -736805 -713055 -698301 -686425 -671339 -650033 -622870 -593455 
3828.844 -566586 -546268 -534950 -532568 -537532 -547095 -558413 -569730 
3832.701 -579359 -586705 -590874 -591702 -589650 -586639 -585415 -590113 
3836.559 -604275 -629487 -664458 -703991 -741105 -769220 -784269 -785592 
3840.416 -776034 -759761 -741370 -724401 -711268 -702072 -695787 -690130 
3844.273 -682422 -670611 -653640 -631473 -605930 -579260 -553648 -530847 
3848.131 -511222 -493681 -476868 -459789 -444034 -434236 -438539 -466674 
3851.988 -528001 -625054 -749375 -878885 -987265 -1053774 -1071821 -1048089 
3855.846 -996025 -929342 -858680 -790620 -728966 -675045 -629554 -592231 
3859.703 -563211 -541668 -526511 -516749 -511321 -510163 -514035 -524327 
3863.561 -541503 -563641 -586076 -602091 -605930 -594812 -571451 -543720 
3867.418 -522639 -518337 -538359 -582403 -642622 -703263 -747522 -764821 
3871.275 -754733 -725327 -688377 -655459 -633855 -624756 -623466 -622837 
3875.133 -615757 -597558 -568803 -533428 -497719 -467600 -448337 -442511 
3878.990 -450389 -469123 -493019 -515392 -529655 -531111 -519131 -497189 
3882.848 -471804 -451779 -445159 -457902 -490272 -535778 -581841 -614962 
3886.705 -624657 -608676 -572112 -526048 -482494 -452408 -443008 -455883 
3890.563 -486731 -526313 -563542 -589220 -598021 -589849 -567513 -535612 
3894.420 -498281 -459293 -421856 -388620 -362467 -346112 -341444 -349423 
3898.277 -368526 -395705 -425961 -454957 -479052 -497388 -511520 -524294 
3902.135 -538756 -556659 -576712 -595838 -609635 -613308 -604441 -582767 
3905.992 -551066 -513207 -473624 -436023 -402756 -375080 -352899 -335518 
3909.850 -322208 -312341 -304991 -299825 -295786 -291945 -287243 -281150 
3913.707 -273832 -267011 -263037 -264163 -272077 -287044 -307010 -328631 
3917.564 -347701 -360746 -365579 -361639 -349589 -331114 -308500 -283865 
3921.422 -259925 -239890 -226445 -222040 -228034 -243400 -264627 -287044 
3925.279 -305289 -315288 -315586 -307507 -294229 -279329 -265719 -254891 
3929.137 -246977 -240883 -236115 -232505 -230982 -232704 -238234 -246944 
3932.994 -256977 -265984 -272243 -274991 -275687 -276216 -278501 -283567 
3936.852 -291084 -298766 -304660 -306580 -304362 -299494 -294859 -293236 
3940.709 -297176 -307308 -322274 -338961 -353727 -362931 -364520 -357965 
3944.566 -344391 -326446 -307010 -288898 -274528 -265554 -262143 -263865 
3948.424 -269296 -276945 -285389 -293335 -300024 -304527 -306017 -303732 
3952.281 -297077 -285885 -271249 -254428 -237837 -223431 -212668 -206210 
3956.139 -203627 -203461 -204653 -206276 -207568 -208528 -209157 -209157 
3959.996 -208065 -205448 -201077 -195513 -190081 -186140 -185113 -187431 
3963.854 -192697 -199851 -207137 -212999 -216079 -216079 -213032 -207303 
3967.711 -199785 -191306 -183126 -176469 -172428 -171534 -173620 -177628 
3971.568 -181834 -184219 -183192 -178125 -169315 -158384 -146758 -136027 
3975.426 -126884 -119464 -113270 -107506 -101808 -96442 -91407 -87498 -84847 
3979.765 -83854 -84019 -85411 -87266 -89253 -90744 -91274 -90280 -88094 
3984.105 -84947 -81932 -80044 -80243 -82760 -87332 -92831 -97800 -101113 
3988.445 -102040 -100782 -97734 -93593 -88723 -82926 -76300 -68317 -59736 
3992.784 -51189 -43701 -38566 -36346 -36545 -38400 -40653 -42343 -43138 
3997.124 -43469 -44198 -46484 -50692 -56688 -63579 -70337 -75539 
##END=
