
##TITLE=1708_3_d
##JCAMP-DX=5.01  $$ Nicolet v. 1
##DATATYPE=INFRARED SPECTRUM
##ORIGIN=UniL
##OWNER=Nicolet
##LONGDATE=2011/09/08
##TIME=13:46:58
##SPECTROMETER/DATA SYSTEM=Nicolet iS5
##DATA PROCESSING=
Ratio against background
%Transmittance->Absorbance
Truncated
ElementMultiply or ElementDivide
##COMMENTS=
Number of sample scans: 32
Collection length: 51.16 sec
Sample gain: 2.0
Background collected on: Jeu Sep 08 13:38:27 2011 (GMT+02:00);
Number of background scans: 32
Background gain: 2.0
Sample spacing:  1.000
Number of scan points: 12415
Resolution points: 8192
Number of FFT points: 65536
Apodization: N-B fort;
Phase correction: Mertz;
Laser frequency: 15798.0 cm-1
Number of rejected sample scans: 0
Number of rejected background scans: 0
Bench serial number: ASB1000141;
##RESOLUTION=4.000
##XUNITS=1/CM
##YUNITS=ABSORBANCE
##FIRSTX=649.893372
##LASTX=4000.122314
##FIRSTY=0.101020
##MAXX=4000.122314
##MINX=649.893372
##MAXY=0.286583
##MINY=-0.000302
##XFACTOR=1.000000
##YFACTOR=1.000000E-009
##NPOINTS=6950
##DELTAX=0.482117
##ZPD=6100
##XYDATA=(X++(Y..Y))
649.893 101019664 100851616 100770712 100784712 100881424 101035352 
652.786 101218152 101414544 101628784 101879032 102184672 102555264 
655.679 102983552 103451568 103942016 104450680 104989432 105580096 
658.571 106240216 106970328 107750544 108549656 109342984 110127568 
661.464 110929016 111790016 112758256 113861240 115097488 116438152 
664.357 117841120 119265112 120665880 121994200 123173024 124077616 
667.250 124561480 124509000 123915040 122898112 121629096 120237680 
670.142 118769248 117204032 115496776 113615232 111564152 109392944 
673.035 107174896 104991456 102899344 100920712 99052352 97280152 95596048 
676.410 94003264 92513056 91135328 89870272 88707032 87628416 86618760 
679.785 85670128 84782208 83958160 83196616 82488776 81818528 81169008 
683.159 80529384 79900544 79293456 78725576 78211480 77755840 77351872 
686.534 76983888 76633408 76284712 75929784 75567896 75202864 74838352 
689.909 74475128 74109840 73737560 73353480 72954648 72541256 72115232 
693.284 71680408 71242032 70809056 70394904 70015824 69690104 69431136 
696.659 69241640 69109264 69005664 68891960 68722768 68459872 68080928 
700.034 67583496 66985248 66318804 65625472 64942524 64300216 63716596 
703.408 63196504 62734864 62320376 61940868 61586128 61250256 60931604 
706.783 60632584 60357712 60111972 59899996 59725720 59592748 59506368 
710.158 59475552 59513360 59640036 59875956 60237984 60729056 61330112 
713.533 61994600 62647284 63202784 63575656 63701248 63553980 63149444 
716.908 62543304 61813944 61057280 60372752 59850132 59577736 59631520 
720.282 60064676 60897216 62091724 63543968 65067672 66427672 67379216 
723.657 67702008 67271816 66082672 64258108 62009732 59596512 57268260 
727.032 55198644 53482328 52131720 51103116 50325132 49726252 49253840 
730.407 48871744 48558968 48302412 48090788 47915084 47770292 47656756 
733.782 47579408 47544660 47555488 47609612 47698692 47812016 47940980 
737.156 48081868 48235980 48407888 48601696 48818388 49055884 49310180 
740.531 49578144 49858724 50152276 50457864 50771040 51080564 51368792 
743.906 51615416 51797664 51894624 51889584 51767988 51518704 51134944 
747.281 50615952 49970752 49219960 48397260 47542108 46695904 45895904 
750.656 45166852 44523932 43972916 43513716 43144648 42864204 42671444 
754.031 42565228 42543192 42600204 42726972 42909408 43129424 43362952 
757.405 43584736 43771968 43906780 43982380 44004012 43987732 43955652 
760.780 43929948 43928444 43959648 44025864 44125616 44259292 44433084 
764.155 44662540 44971932 45398208 45989452 46799552 47887148 49296856 
767.530 51039012 53066616 55261068 57439508 59361120 60794988 61571544 
770.905 61631260 61057012 60058016 58927028 57933824 57268372 56979832 
774.279 56969972 57021844 56867756 56290796 55167640 53516432 51472896 
777.654 49257512 47105708 45203696 43676624 42564680 41842256 41440812 
781.029 41279544 41286356 41404324 41597980 41848092 42144748 42485088 
784.404 42869580 43301484 43785456 44326068 44926620 45588760 46313468 
787.779 47103452 47964924 48909640 49954544 51117016 52416124 53867752 
791.154 55485624 57283532 59277748 61487436 63935556 66642396 69619888 
794.528 72863680 76348904 80027728 83827800 87666976 91455752 95111376 
797.903 98578616 101839736 104930656 107935520 110987704 114239784 117818776 
801.278 121795560 126132328 130664896 135073952 138928944 141764160 
804.171 143126384 142718816 140466320 136553968 131383808 125488352 
807.063 119429008 113628232 108329128 103564512 99198304 94998376 90731072 
810.438 86253920 81539320 76681400 71842000 67212712 62954552 59164388 
813.813 55881880 53092336 50750856 48798552 47178908 45843280 44748040 
817.188 43856600 43137144 42561464 42109372 41766664 41524296 41376296 
820.563 41316860 41339524 41438624 41611108 41859148 42189368 42612448 
823.938 43139452 43777944 44530980 45395856 46364304 47421944 48548224 
827.312 49716964 50893920 52043932 53136112 54152244 55097520 56005464 
830.687 56941824 57992932 59261488 60853264 62850952 65301828 68190976 
834.062 71427912 74823552 78092672 80901344 82873368 83680896 83122944 
837.437 81156024 77926488 73724520 68949312 64003660 59230728 54897260 
840.812 51149672 48037604 45536876 43579356 42077392 40939748 40088236 
844.186 39454020 38979232 38622328 38353252 38155688 38024348 37960156 
847.561 37964244 38033964 38161148 38334216 38542512 38778808 39041508 
850.936 39332224 39653596 40005976 40387328 40794896 41228388 41692472 
854.311 42196964 42753552 43372400 44059492 44815592 45639292 46532048 
857.686 47501000 48563456 49745384 51077772 52597516 54343860 56355448 
861.060 58671100 61320152 64310016 67609160 71131912 74731256 78187672 
864.435 81249144 83654984 85169152 85641232 85019616 83369176 80849736 
867.810 77699488 74195328 70590200 67109288 63917512 61108536 58725376 
871.185 56766396 55203196 53993092 53090388 52453808 52044644 51830520 
874.560 51784788 51883464 52109044 52450592 52904152 53473108 54166284 
877.935 54993600 55959892 57058156 58263540 59533536 60804364 61997464 
881.309 63036068 63848152 64385176 64632268 64611272 64377756 64005696 
884.684 63580484 63175924 62844448 62617696 62505304 62503852 62604912 
888.059 62801748 63091160 63471796 63941160 64491980 65111048 65781928 
891.434 66486016 67206056 67927904 68638624 69325744 69976512 70576864 
894.809 71113808 71577792 71963912 72272248 72506840 72675512 72787784 
898.183 72855768 72895888 72926736 72968168 73038448 73149136 73302832 
901.558 73493240 73707952 73932480 74155472 74373584 74591048 74820120 
904.933 75076256 75378064 75744896 76195072 76748368 77423704 78236904 
908.308 79201032 80322880 81603680 83040176 84627928 86363736 88247288 
911.683 90281000 92469760 94819120 97336328 100032536 102926816 106046656 
915.058 109430112 113121736 117163152 121588056 126411320 131622400 
917.950 137175072 142979664 148902544 154740672 160233584 165083664 
920.843 168958384 171569888 172729904 172402768 170743648 168096352 
923.736 164979440 161968992 159658896 158580800 159087056 161334384 
926.628 165226640 170437360 176400784 182384480 187644720 191456976 
929.521 193282752 192852496 190151360 185395104 178929712 171177504 
932.414 162546608 153400272 144077856 134866000 126015424 117754112 
935.306 110255976 103651584 98027576 93418920 89828544 87234936 85602528 
938.681 84882624 85006400 85879728 87358656 89245592 91310208 93280520 
942.056 94892984 95936504 96261688 95819824 94657616 92909712 90762464 
945.431 88418768 86079040 83896288 81974208 80366808 79082040 78099176 
948.806 77381576 76891336 76593608 76459360 76466432 76593880 76822352 
952.181 77134400 77514360 77950744 78436832 78968288 79541656 80152008 
955.555 80791872 81452736 82127664 82812136 83506008 84211408 84930856 
958.930 85664400 86409624 87162600 87920496 88683584 89455904 90243144 
962.305 91050128 91878096 92723928 93581480 94444600 95310520 96180232 
965.680 97058272 97949640 98857480 99782064 100721280 101672960 102636840 
969.055 103615160 104610600 105624768 106655712 107697728 108744112 
971.947 109789920 110834576 111882136 112940216 114015920 115113424 
974.840 116232896 117372408 118530328 119707880 120908736 122137448 
977.733 123396064 124681608 125986192 127298176 128605944 129900856 
980.625 131176472 132427376 133646976 134824544 135947984 137006192 
983.518 137993328 138911664 139770640 140584560 141366400 142126832 
986.411 142872848 143610176 144346912 145094896 145867728 146678848 
989.304 147535808 148438416 149379920 150351024 151344864 152360080 
992.196 153400752 154472800 155580128 156720848 157888352 159073968 
995.089 160271696 161480304 162703344 163945008 165206560 166483872 
997.982 167768624 169052752 170332976 171613520 172904832 174219600 
1000.874 175566640 176948720 178363328 179807424 181281440 182792768 
1003.767 184353600 185977168 187670656 189433456 191258160 193135728 
1006.660 195061584 197038096 199073600 201176992 203350944 205588928 
1009.552 207874560 210186384 212504608 214811744 217091536 219325520 
1012.445 221485312 223534368 225434288 227151040 228668928 229993328 
1015.338 231150496 232177744 233113536 233993456 234844752 235691280 
1018.231 236558032 237469712 238449904 239515168 240670112 241908480 
1021.123 243219312 244596896 246048064 247594960 249268736 251100896 
1024.016 253112144 255307104 257676160 260202176 262867712 265655072 
1026.909 268542752 271495744 274452000 277325760 280008672 282377376 
1029.802 284318016 285725760 286506592 286583008 285883520 284350304 
1032.695 281954432 278704960 274661568 269926144 264639472 258956256 
1035.588 253022336 246980704 240958288 235067664 229421792 224121104 
1038.481 219251728 214886432 211072384 207835328 205181504 203097584 
1041.374 201547808 200461776 199731936 199194064 198627360 197791856 
1044.267 196433584 194339104 191384880 187546640 182911600 177648560 
1047.160 171989776 166181488 160442752 154966768 149888160 145284592 
1050.053 141188512 137588688 134445568 131699904 129289360 127154200 
1052.947 125242352 123515600 121944528 120504832 119175944 117936176 
1055.840 116763664 115639720 114548472 113479416 112426200 111383408 
1058.733 110345040 109304120 108253312 107188552 106111544 105031464 
1061.626 103962472 102921560 101925744 100988272 100119312 99326152 98613288 
1065.001 97981600 97425888 96931592 96471576 96005904 95490176 94878432 
1068.376 94134640 93241544 92201768 91038760 89789104 88499928 87218408 
1071.751 85985536 84835896 83791792 82863704 82051616 81346464 80732928 
1075.127 80192216 79707152 79263344 78850032 78459936 78085928 77719144 
1078.502 77349496 76965336 76557600 76123400 75667856 75204688 74752072 
1081.877 74331624 73963512 73663752 73446112 73322056 73301504 73395184 
1085.252 73613104 73963432 74452704 75084256 75859192 76776648 77833608 
1088.628 79022816 80329208 81729848 83191000 84671456 86132408 87540496 
1092.003 88876136 90136296 91330576 92474888 93582792 94660992 95705736 
1095.378 96707032 97654552 98546600 99396240 100235824 101110952 102073000 
1098.753 103166288 104408872 105778568 107200808 108557696 109689928 
1101.646 110419848 110596424 110107848 108913504 107048624 104619152 
1104.540 101780552 98700992 95555408 92492024 89618952 87011240 84703672 
1107.915 82699688 80979840 79509896 78248968 77152576 76180648 75297592 
1111.290 74472208 73680160 72900792 72116296 71314264 70486480 69631360 
1114.665 68754408 67868088 66989504 66136608 65326320 64571940 63881280 
1118.041 63258624 62704816 62218960 61798736 61440752 61140312 60891004 
1121.416 60685388 60515328 60371344 60242744 60115360 59968880 59778420 
1124.791 59513172 59140584 58635032 57980512 57177272 56241044 55203344 
1128.166 54104804 52986160 51886520 50835140 49849728 48937828 48097932 
1131.542 47322504 46600652 45920872 45272936 44648916 44044972 43461492 
1134.917 42902240 42373040 41880128 41428416 41019964 40654680 40331224 
1138.292 40047868 39804056 39600128 39436856 39314272 39231500 39186572 
1141.667 39177468 39203072 39263564 39360596 39495932 39670188 39881668 
1145.042 40127012 40400968 40698056 41013224 41342296 41680728 42023844 
1148.418 42366316 42702808 43029536 43344940 43650464 43949268 44245752 
1151.793 44543612 44845384 45151780 45463176 45779984 46103144 46433396 
1155.168 46770620 47112832 47455800 47794036 48120808 48430340 48717444 
1158.543 48977324 49204852 49394260 49538924 49632412 49669484 49646528 
1161.919 49562772 49418392 49214320 48951400 48630452 48252792 47821300 
1165.294 47341532 46821844 46272036 45703304 45126488 44550880 43985752 
1168.669 43439300 42919392 42434740 41992672 41599548 41259832 40975648 
1172.044 40748132 40577916 40466612 40417624 40435224 40523968 40688048 
1175.420 40930756 41254440 41662420 42159684 42752896 43451240 44264424 
1178.795 45202224 46274248 47489468 48857208 50388576 52094548 53986900 
1182.170 56076412 58371396 60877548 63596556 66524744 69648160 72936144 
1185.545 76339736 79779168 83147576 86322544 89162672 91532488 93318512 
1188.921 94431504 94824184 94491640 93472536 91840960 89697600 87163848 
1192.296 84358416 81394424 78374320 75377240 72466712 69689208 67073212 
1195.671 64635152 62379972 60303952 58397660 56648596 55044636 53574456 
1199.046 52229544 51004952 49897824 48906708 48029976 47264684 46605928 
1202.422 46046956 45579596 45195532 44886644 44644252 44459292 44320640 
1205.797 44215008 44128916 44049188 43965252 43871588 43766396 43651632 
1209.172 43531148 43408796 43288048 43172460 43066708 42977480 42914128 
1212.547 42888524 42912808 42997928 43153284 43384960 43696664 44090152 
1215.923 44565604 45121416 45754176 46458952 47229476 48059548 48944500 
1219.298 49881992 50871720 51915388 53015624 54175592 55399344 56692012 
1222.673 58060188 59511080 61050872 62682344 64402432 66201472 68063688 
1226.048 69968376 71889496 73799648 75668216 77460896 79145016 80689392 
1229.424 82069704 83273472 84301680 85169720 85903752 86541224 87127728 
1232.799 87712792 88355536 89120160 90071024 91276360 92797728 94685592 
1236.174 96980640 99708520 102882088 106502144 110558128 115026192 119862776 
1239.549 125008584 130382256 135883424 141410272 146857792 152126928 
1242.442 157133904 161798416 166043696 169797872 172986592 175539888 
1245.335 177397152 178503104 178812768 178293936 176927952 174718624 
1248.229 171696352 167920144 163467952 158424832 152872848 146876240 
1251.122 140485776 133745984 126705272 119429616 112010200 104552840 
1254.015 97182136 90027600 83202000 76807528 70919056 65576836 60793348 
1257.390 56552344 52817256 49537480 46658124 44126608 41892424 39912944 
1260.765 38153080 36582420 35177676 33919920 32792266 31780314 30869496 
1264.140 30045404 29295530 28609586 27980272 27404238 26879550 26405030 
1267.516 25977708 25593400 25246724 24933838 24653296 24407110 24199806 
1270.891 24037074 23923976 23864006 23859842 23914628 24033326 24223454 
1274.266 24493340 24850536 25298806 25835408 26449434 27119770 27817954 
1277.641 28505870 29138850 29673268 30067456 30291612 30333712 30201416 
1281.017 29920932 29529148 29069230 28578692 28083968 27601178 27135748 
1284.392 26687764 26256958 25844904 25455828 25094834 24765532 24469186 
1287.767 24204710 23970612 23766176 23591748 23448722 23336722 23253446 
1291.142 23194130 23153308 23126958 23115216 23121960 23153728 23217128 
1294.518 23317176 23455858 23633590 23851160 24111078 24418780 24781564 
1297.893 25206728 25700712 26268504 26913812 27639702 28447068 29332572 
1301.268 30283228 31272746 32263138 33202208 34033360 34706072 35179080 
1304.643 35430340 35458704 35282176 34934360 34458208 33904476 33322364 
1308.019 32756608 32245934 31815894 31479716 31237782 31080686 30992852 
1311.394 30956984 30958906 30987088 31032638 31088480 31146606 31198866 
1314.769 31238352 31260394 31263240 31248322 31217558 31172060 31110512 
1318.144 31030146 30928448 30805288 30664704 30513538 30359652 30209728 
1321.520 30066778 29931332 29803380 29684372 29579582 29497442 29447514 
1324.895 29439040 29478364 29568942 29713464 29914544 30175238 30497686 
1328.270 30880346 31315088 31786196 32273702 32757606 33221308 33656716 
1331.645 34062780 34443040 34801660 35139632 35453492 35737532 35985228 
1335.021 36193192 36362092 36496644 36604160 36692916 36772320 36853752 
1338.396 36950608 37080396 37261592 37509688 37835600 38242120 38725408 
1341.771 39277672 39890824 40558196 41274040 42032496 42826864 43648744 
1345.146 44490968 45348808 46221064 47107736 48004296 48894328 49747168 
1348.521 50512984 51129168 51534076 51671840 51507512 51033424 50270224 
1351.897 49264232 48077980 46788628 45472484 44199344 43031328 42012384 
1355.272 41169368 40512004 40034132 39719596 39547100 39497780 39555956 
1358.647 39709468 39948176 40260076 40631396 41049244 41504060 41994060 
1362.022 42526052 43112628 43764896 44484396 45259404 46063796 46861740 
1365.398 47608244 48256936 48761000 49073472 49156392 48984484 48551412 
1368.773 47872680 46983852 45934720 44775072 43552468 42304512 41056308 
1372.148 39828644 38642536 37523124 36504716 35623900 34909228 34373960 
1375.523 34010960 33799096 33711464 33729116 33847344 34078584 34449636 
1378.899 34997780 35770096 36816100 38190164 39944360 42110468 44680204 
1382.274 47576784 50653144 53678184 56366880 58437572 59617532 59703672 
1385.649 58600904 56354504 53171644 49384316 45407220 41610820 38249356 
1389.024 35448568 33211756 31471808 30130736 29095376 28286520 27642562 
1392.400 27122170 26697100 26351022 26078396 25880036 25759352 25717622 
1395.775 25750986 25850494 26004972 26202616 26433024 26688396 26962216 
1399.150 27250356 27551150 27864976 28193312 28537324 28896270 29266678 
1402.525 29642830 30017318 30384596 30740804 31085276 31417840 31737682 
1405.901 32041956 32327096 32591530 32839044 33079260 33327446 33599900 
1409.276 33909528 34263512 34662576 35103384 35582288 36097660 36649224 
1412.651 37234480 37845216 38466120 39076128 39658024 40203988 40722512 
1416.026 41238008 41788368 42417460 43163424 44051128 45080320 46220844 
1419.402 47416324 48598136 49704408 50686988 51518256 52191088 52718708 
1422.777 53139588 53515568 53930024 54463552 55173848 56083196 57176292 
1426.152 58416876 59764464 61191920 62683604 64231864 65829776 67465016 
1429.527 69122400 70792056 72479192 74206800 76006112 77909512 79935872 
1432.903 82090472 84368352 86769456 89311400 92030128 94974952 98183936 
1436.278 101659392 105345656 109148336 112973048 116751656 120445184 
1439.171 124018360 127421200 130557928 133286088 135448880 136877936 
1442.064 137433152 137028416 135630544 133270208 130034896 126075880 
1444.957 121587008 116776632 111870128 107069696 102547840 98450696 94872376 
1448.332 91846448 89336800 87254336 85482176 83910400 82474512 81165448 
1451.708 80029728 79138688 78561568 78329440 78424208 78779792 79300136 
1455.083 79886048 80441216 80903864 81266760 81588656 81969808 82507448 
1458.458 83277008 84314960 85633808 87232944 89098512 91199664 93479816 
1461.833 95863744 98242096 100468904 102385696 103826440 104666880 104870368 
1465.208 104506392 103728320 102709080 101608064 100537688 99562736 98721952 
1468.584 98031144 97486880 97063576 96709104 96346600 95879944 95227088 
1471.959 94351376 93289928 92145472 91048944 90112368 89396304 88923544 
1475.334 88696864 88716616 88988128 89515512 90288832 91276728 92425568 
1478.709 93672936 94952072 96210416 97419128 98574368 99699568 100835648 
1482.085 102036208 103355496 104848816 106578880 108613216 111024592 
1484.978 113876616 117201168 120969408 125061976 129275424 133302760 
1487.871 136759072 139246304 140370224 139835104 137529216 133565320 
1490.764 128277000 122113176 115541824 108923088 102468296 96284232 90389680 
1494.139 84776968 79468240 74527048 70067256 66229796 63131964 60830928 
1497.514 59309688 58502284 58318864 58672312 59491244 60710996 62267868 
1500.890 64097628 66125416 68270776 70454912 72580264 74532864 76172720 
1504.265 77296760 77648256 76937288 74921856 71560096 67117288 62113664 
1507.640 57079088 52355716 48053736 44134088 40515272 37137776 33978748 
1511.015 31056270 28405254 26050602 24000060 22238310 20735260 19456620 
1514.391 18369866 17445942 16654311 15965376 15354657 14807974 14327452 
1517.766 13926759 13620210 13410507 13282890 13205106 13139667 13058393 
1521.141 12959348 12870463 12834900 12884252 13021176 13223450 13457430 
1524.516 13696630 13928950 14162797 14419444 14722343 15082875 15495829 
1527.892 15944682 16412925 16893522 17390966 17918502 18490034 19113454 
1531.267 19788404 20507818 21262282 22046748 22861518 23709694 24588914 
1534.642 25489172 26391898 27278156 28129146 28931826 29681322 30375464 
1538.017 31014880 31596866 32110806 32535460 32846120 33030096 33094742 
1541.393 33065494 32972790 32835186 32653574 32413416 32095964 31691630 
1544.768 31210546 30682768 30148494 29640310 29168686 28722354 28275664 
1548.143 27803012 27292128 26752950 26213524 25709818 25265970 24884430 
1551.518 24547926 24231338 23915084 23594722 23283162 23003756 22778578 
1554.894 22615296 22503160 22416416 22322190 22183072 21960446 21621776 
1558.269 21153592 20582890 19980806 19434234 19002220 18697950 18501962 
1561.644 18380996 18301188 18233180 18157580 18067004 17968262 17878898 
1565.019 17819688 17805534 17838088 17905758 17988878 18069318 18134814 
1568.395 18183666 18223298 18266734 18326004 18406784 18509602 18631988 
1571.770 18771982 18928010 19097182 19273764 19445668 19597260 19713156 
1575.145 19785454 19820760 19840736 19873964 19939350 20038820 20159936 
1578.520 20284904 20398342 20491840 20564894 20621630 20667738 20706484 
1581.896 20737728 20759450 20769842 20769668 20761778 20748502 20728726 
1585.271 20696026 20641052 20554368 20432654 20281674 20117072 19959472 
1588.646 19831164 19750882 19731498 19781052 19905112 20106904 20385912 
1592.021 20732932 21127536 21535244 21911270 22212504 22402182 22460624 
1595.396 22388854 22206296 21944520 21637448 21319248 21017732 20755140 
1598.772 20552248 20426576 20392440 20459502 20631114 20904860 21275366 
1602.147 21736924 22283684 22907446 23595176 24323664 25058956 25761780 
1605.522 26387320 26892486 27243370 27413766 27390932 27175712 26781390 
1608.897 26231124 25554530 24788474 23972188 23146390 22352086 21620174 
1612.273 20969534 20404108 19913888 19480634 19082432 18700440 18321926 
1615.648 17944158 17576792 17240522 16960358 16757267 16640918 16608901 
1619.023 16648941 16742252 16868066 17008044 17148240 17284480 17423042 
1622.398 17579346 17770602 18007840 18291650 18612584 18958086 19319072 
1625.774 19693184 20082716 20490172 20913136 21342286 21762738 22161348 
1629.149 22531218 22875244 23203112 23526122 23850530 24175142 24490464 
1632.524 24782476 25036950 25241246 25387638 25475012 25509622 25504596 
1635.899 25478386 25451366 25437244 25442090 25462960 25489312 25505404 
1639.275 25493704 25440932 25341622 25201602 25035720 24863552 24700362 
1642.650 24550802 24407952 24255338 24072060 23838628 23543718 23189238 
1646.025 22792162 22381634 21992092 21654896 21389482 21203272 21091708 
1649.400 21042424 21035086 21040510 21021732 20930450 20718336 20362088 
1652.776 19895018 19412510 19018040 18764128 18635584 18584122 18558738 
1656.151 18524158 18462822 18369968 18249732 18109216 17954380 17786756 
1659.526 17603912 17401484 17175160 16922976 16645841 16347654 16035816 
1662.901 15720937 15415384 15131248 14877438 14656366 14463495 14286906 
1666.277 14110390 13914785 13683260 13405552 13081134 12720314 12340976 
1669.652 11964148 11607351 11281281 10990457 10733687 10505821 10296937 
1673.027 10093851 9880183 9641957 9375012 9090436 8814870 8579187 8405617 
1676.885 8298238 8245251 8226678 8223673 8225902 8232486 8251465 8293374 
1680.742 8364574 8463116 8578106 8692922 8793062 8872324 8940945 9021553 
1684.599 9141394 9315056 9538608 9798162 10078455 10369653 10665630 10962863 
1688.457 11258055 11545758 11819862 12075843 12312853 12534917 12748701 
1691.832 12960202 13171088 13376745 13565476 13722278 13833297 13893334 
1695.207 13912116 13914546 13931481 13979829 14056552 14138287 14192477 
1698.583 14181419 14075307 13865419 13577304 13268507 12997925 12798180 
1701.958 12664090 12569126 12480116 12369850 12220657 12024131 11782886 
1705.333 11508603 11218918 10929529 10651776 10389573 10141231 9901267 
1708.708 9663233 9422145 9175370 8924474 8673452 8428622 8195310 7976093 
1712.566 7770447 7575215 7386373 7201285 7019610 6842286 6670013 6500601 
1716.423 6329876 6153269 5972166 5796209 5641873 5525645 5456352 5433034 
1720.281 5445918 5480545 5522256 5561084 5592364 5617772 5643081 5675039 
1724.138 5718111 5772872 5836741 5906061 5977272 6047723 6114489 6174005 
1727.995 6220992 6250404 6259446 6249395 6225026 6192826 6155924 6110792 
1731.853 6044867 5938675 5773879 5543901 5266115 4980396 4734658 4559403 
1735.710 4457256 4409756 4390142 4374879 4346732 4298743 4232490 4157516 
1739.568 4085197 4025264 3982861 3958016 3948152 3950760 3964235 3986606 
1743.425 4015733 4048072 4079812 4107741 4130621 4148417 4162032 4171666 
1747.282 4176316 4173272 4159824 4132995 4091686 4036601 3970087 3896094 
1751.140 3819774 3747211 3684350 3635465 3602655 3584380 3575460 3567977 
1754.997 3553077 3523781 3477886 3419940 3360065 3309714 3275660 3258200 
1758.855 3250189 3241309 3220879 3182126 3124887 3054975 2982440 2916654 
1762.712 2863986 2825865 2800519 2784779 2775842 2770740 2766505 2759270 
1766.570 2745498 2722958 2692251 2658612 2628676 2607708 2596808 2591275 
1770.427 2582576 2560977 2521283 2466197 2407420 2359344 2332893 2330195 
1774.284 2345286 2368372 2390761 2408986 2424212 2441539 2465098 2495655 
1778.142 2529015 2558078 2575676 2578176 2567777 2551678 2538713 2534514 
1781.999 2539913 2550579 2560411 2563777 2558678 2546812 2532381 2519617 
1785.857 2511052 2506686 2506053 2508586 2515284 2527549 2545679 2567177 
1789.714 2586875 2597075 2590709 2564744 2521816 2470996 2422613 2385764 
1793.572 2363209 2352581 2348484 2345752 2341555 2335359 2327563 2318902 
1797.429 2308542 2294752 2275999 2252384 2226207 2201962 2184345 2176486 
1801.286 2178650 2188741 2203493 2220445 2238529 2257813 2278464 2300215 
1805.144 2321134 2339589 2354047 2365041 2374769 2385530 2398691 2413450 
1809.001 2426511 2433875 2432209 2421347 2403888 2384964 2369339 2360011 
1812.859 2356846 2358012 2361343 2366141 2373203 2385364 2405054 2433475 
1816.716 2469263 2509619 2551512 2592942 2633743 2675114 2718223 2763171 
1820.573 2808557 2851912 2890769 2923893 2951013 2972865 2990313 3004092 
1824.431 3015136 3024945 3036390 3052573 3075831 3106732 3142175 3176652 
1828.288 3203655 3218376 3220579 3215472 3211933 3219577 3244046 3285309 
1832.146 3338429 3397065 3456076 3513493 3570583 3630587 3696313 3768367 
1836.003 3844845 3922440 3999480 4076233 4156847 4246275 4349577 4468504 
1839.861 4601694 4744640 4891521 5037512 5178992 5314614 5445213 5573065 
1843.718 5701459 5834223 5974451 6122756 6277330 6432565 6580488 6711703 
1847.575 6816906 6889985 6928397 6933985 6910688 6863559 6795736 6708002 
1851.433 6599360 6469558 6320294 6156664 5985973 5815283 5649660 5490645 
1855.290 5337256 5187408 5040562 4897955 4762629 4636857 4521333 4413572 
1859.148 4310054 4207397 4104730 4004195 3909434 3823953 3748681 3681710 
1863.005 3619160 3558155 3498328 3442149 3394160 3357528 3332151 3313788 
1866.863 3295391 3269685 3233965 3190904 3147882 3113841 3095119 3092649 
1870.720 3102294 3117612 3132997 3145045 3152921 3156660 3156192 3149851 
1874.577 3134932 3109302 3073195 3028449 2979471 2930264 2882931 2836337 
1878.435 2788348 2735395 2676948 2614275 2551278 2491656 2438040 2389961 
1882.292 2345019 2301048 2257147 2214750 2177085 2147449 2126671 2113985 
1886.150 2105395 2097105 2086684 2073366 2057886 2041340 2024363 2006121 
1890.007 1986848 1967575 1951666 1943678 1947772 1965079 1993172 2025927 
1893.865 2056521 2080058 2095507 2105861 2116549 2131766 2152610 2176519 
1897.722 2198498 2214783 2223975 2228638 2232501 2239395 2250819 2264941 
1901.579 2278464 2288890 2296418 2304112 2316071 2335292 2361576 2391394 
1905.437 2419748 2442172 2457567 2467930 2477027 2488091 2501454 2514284 
1909.294 2522816 2523916 2517484 2507119 2498088 2495122 2499854 2511285 
1913.152 2526182 2541413 2555411 2567910 2579009 2587109 2588442 2578343 
1917.009 2554011 2515951 2471196 2430443 2402955 2393726 2400123 2413850 
1920.866 2424046 2421914 2403988 2373103 2336291 2301148 2272868 2252817 
1924.724 2238796 2229071 2223342 2223542 2232035 2249753 2273468 2297384 
1928.581 2316304 2326797 2331128 2334959 2345519 2366940 2398990 2435475 
1932.439 2468296 2491756 2503820 2507486 2508419 2511019 2516084 2521483 
1936.296 2522849 2517750 2507986 2498621 2494889 2499921 2510685 2520383 
1940.154 2520983 2507486 2480959 2449703 2425479 2417282 2429144 2457167 
1944.011 2493323 2529148 2560611 2587975 2614375 2643177 2674414 2704620 
1947.868 2729793 2746465 2755701 2761537 2769473 2782478 2799052 2814793 
1951.726 2823464 2822530 2813492 2802254 2795217 2795484 2799419 2799719 
1955.583 2786447 2753667 2702920 2642710 2585709 2543213 2521516 2518550 
1959.441 2528782 2544713 2562477 2582876 2608308 2640843 2678448 2716056 
1963.298 2746132 2764304 2770140 2765405 2755135 2742497 2727293 2707554 
1967.156 2682516 2653578 2627809 2612975 2614142 2629842 2652344 2668913 
1971.013 2669147 2649611 2614875 2577309 2549845 2540513 2550812 2577809 
1974.870 2616375 2667446 2737596 2836004 2967060 3125821 3294122 3445422 
1978.728 3557220 3614917 3618425 3580271 3518670 3450299 3386479 3331049 
1982.585 3283239 3242477 3209096 3185564 3173648 3171478 3172914 3171045 
1986.443 3160464 3141507 3121049 3109969 3116343 3142742 3182593 3223917 
1990.300 3254662 3268015 3266012 3258000 3256364 3269017 3297027 3334355 
1994.157 3371853 3401773 3422378 3436605 3450131 3467265 3488107 3507781 
1998.015 3520842 3522278 3511589 3491815 3467866 3442617 3416200 3385744 
2001.872 3347344 3300166 3246850 3193074 3144945 3107266 3080336 3063317 
2005.730 3054942 3057144 3074796 3113173 3173081 3249254 3329914 3399469 
2009.587 3446825 3468167 3467499 3455976 3445823 3444253 3452837 3468000 
2013.445 3484667 3500599 3517969 3541485 3574859 3618759 3667241 3713056 
2017.302 3749918 3777391 3800421 3828098 3866842 3917659 3975771 4031417 
2021.159 4075631 4104831 4121355 4131356 4142462 4157047 4173205 4186788 
2025.017 4193345 4193245 4191572 4195252 4209136 4233728 4263306 4289306 
2028.874 4306874 4316680 4325716 4345159 4383916 4444133 4521568 4606115 
2032.732 4688435 4764304 4835095 4905829 4982072 5064362 5147808 5224698 
2036.589 5288117 5334740 5366876 5390024 5408710 5424713 5436054 5437865 
2040.447 5427263 5405456 5377209 5350472 5331486 5323503 5324744 5331621 
2044.304 5340208 5350271 5364830 5389353 5428001 5482089 5547962 5619216 
2048.161 5688400 5749570 5798056 5831805 5849637 5850510 5836237 5811051 
2052.019 5782308 5759609 5752928 5767668 5803429 5852659 5903206 5943849 
2055.876 5967833 5974820 5971494 5967396 5969882 5982614 6003946 6029043 
2059.734 6053872 6075645 6095100 6113750 6132871 6149976 6161201 6162310 
2063.591 6150850 6128737 6101417 6075073 6054140 6040096 6029244 6016410 
2067.448 5997563 5970856 5937534 5901560 5865657 5831435 5798996 5767231 
2071.306 5736140 5708375 5686822 5674535 5672689 5678060 5685513 5690313 
2075.163 5689239 5683129 5676146 5673092 5677389 5689910 5707536 5726773 
2079.021 5744701 5760953 5776767 5794228 5814107 5834458 5852424 5864918 
2082.878 5870997 5873180 5875732 5882852 5896589 5915129 5933772 5946737 
2086.736 5950331 5943647 5928867 5909587 5888260 5864918 5838185 5805645 
2090.593 5766795 5724255 5683230 5649627 5628077 5619685 5622639 5633313 
2094.450 5648251 5665740 5685747 5709348 5735670 5762799 5786975 5804705 
2098.308 5815249 5820790 5825794 5835264 5852794 5878050 5908882 5942001 
2102.165 5974921 6008247 6044498 6086733 6137037 6195145 6258169 6322950 
2106.023 6386934 6449447 6511195 6573121 6634214 6692153 6743941 6787288 
2109.880 6823032 6855346 6889547 6930955 6982267 7041330 7102893 7160895 
2113.738 7210651 7250910 7283795 7313009 7342057 7373364 7406325 7439963 
2117.595 7473705 7508022 7544635 7585802 7632065 7681976 7733174 7782624 
2121.452 7828875 7872802 7916363 7961683 8009775 8059156 8106854 8150235 
2125.310 8188320 8222221 8255787 8292497 8334242 8380922 8430108 8479063 
2129.167 8526335 8572665 8620487 8672709 8730717 8793265 8857241 8919232 
2133.025 8977205 9031229 9083196 9135303 9188196 9241095 9291495 9337840 
2136.882 9380295 9421535 9464879 9512968 9564687 9615532 9660081 9692675 
2140.740 9711039 9717443 9716799 9713952 9712157 9709819 9702839 9686203 
2144.597 9656185 9612416 9556795 9493291 9423702 9349451 9270035 9185049 
2148.454 9096052 9006466 8919130 8835903 8754112 8667063 8567224 8447845 
2152.312 8306917 8147163 7975925 7799187 7622624 7449468 7281706 7125729 
2156.169 6994187 6904090 6874937 6920047 7037424 7210246 7409123 7603201 
2160.027 7767782 7893418 7981088 8039308 8076776 8097165 8100101 8084506 
2163.884 8050312 8001067 7944742 7887750 7833665 7781174 7724202 7656312 
2167.741 7574372 7479132 7375521 7270486 7168642 7071033 6975735 6879784 
2171.599 6781836 6685154 6596030 6521387 6466666 6433372 6417634 6413532 
2175.456 6414406 6414675 6410539 6398299 6373887 6333305 6274237 6197599 
2179.314 6110154 6023264 5950197 5902668 5886580 5899646 5932864 5974014 
2183.171 6011606 6036972 6046547 6039458 6016847 5980934 5934242 5881442 
2187.029 5828178 5782778 5751887 5739900 5746481 5766795 5793657 5820118 
2190.886 5841745 5857730 5870191 5880837 5890610 5898033 5900720 5896555 
2194.743 5886278 5872239 5858638 5848797 5843626 5842316 5842853 5843827 
2198.601 5846581 5854036 5868444 5890812 5917917 5943479 5960006 5962592 
2202.458 5950096 5926079 5898235 5873146 5856051 5847991 5846984 5848831 
2206.316 5851350 5852760 5852693 5852223 5849939 5844767 5834928 5819279 
2210.173 5799131 5777775 5758434 5743728 5735133 5731675 5732783 5739363 
2214.031 5753062 5777103 5813704 5861928 5916473 5970218 6014529 6044162 
2217.888 6058173 6060323 6056492 6052628 6052628 6055888 6060827 6064019 
2221.745 6064288 6061700 6058206 6054947 6052360 6049537 6045002 6038349 
2225.603 6030488 6023735 6020778 6022827 6028909 6036602 6043490 6048765 
2229.460 6054040 6063448 6079912 6105080 6136668 6169065 6195583 6211447 
2233.318 6215077 6208691 6197767 6188188 6184088 6187684 6198608 6215413 
2237.175 6236992 6262774 6291920 6324160 6357412 6389623 6419114 6445714 
2241.032 6470836 6497338 6527879 6562626 6600673 6638150 6671292 6697773 
2244.890 6717592 6732264 6744783 6757201 6769720 6781028 6789442 6793952 
2248.747 6795029 6795534 6797082 6801626 6808727 6816603 6823302 6828451 
2252.605 6833164 6840737 6854942 6877125 6906346 6939036 6969338 6991729 
2256.462 7003245 7002335 6990449 6969540 6942200 6910183 6875644 6840300 
2260.320 6806540 6777225 6754306 6738557 6729606 6725332 6723616 6723212 
2264.177 6724255 6727553 6734923 6747341 6763864 6783317 6803140 6821214 
2268.034 6836126 6846830 6852956 6853898 6849219 6839054 6824480 6808054 
2271.892 6792909 6782172 6777999 6779985 6786009 6793077 6798765 6802198 
2275.749 6804621 6808559 6816772 6830437 6849590 6872513 6896987 6921428 
2279.607 6944759 6966846 6987351 7005231 7019475 7028769 7032945 7033551 
2283.464 7033214 7035033 7041128 7051669 7064230 7075647 7082248 7081777 
2287.322 7074333 7061570 7045809 7029914 7015232 7002436 6992066 6984826 
2291.179 6981425 6983143 6990752 7004019 7021395 7040994 7060627 7079116 
2295.036 7096427 7112425 7127717 7141628 7153013 7160491 7163287 7161535 
2298.894 7156853 7151564 7147051 7144053 7141897 7138495 7132062 7121957 
2302.751 7108249 7092688 7077196 7063152 7051366 7042071 7035235 7031295 
2306.609 7031160 7035706 7045237 7059280 7075916 7093093 7109091 7123540 
2310.466 7137181 7151564 7167902 7186126 7205025 7222341 7236356 7246598 
2314.323 7254077 7261119 7269947 7281976 7296599 7311695 7324466 7332722 
2318.181 7335620 7334205 7330599 7327667 7327971 7332823 7342259 7354930 
2322.038 7368039 7377172 7377644 7364501 7333699 7284132 7217860 7140651 
2325.896 7060324 6985937 6924727 6880861 6854370 6841545 6837034 6835486 
2329.753 6833231 6829293 6824681 6821013 6819767 6821585 6826163 6832995 
2333.611 6842386 6854639 6871099 6892408 6918600 6948867 6982099 7016714 
2337.468 7052005 7087839 7123810 7159884 7195457 7229314 7260647 7289085 
2341.325 7314222 7336362 7355873 7372218 7385059 7394664 7402146 7410976 
2345.183 7426143 7452873 7495751 7556671 7634460 7724809 7822600 7921188 
2349.040 8014601 8097874 8166880 8218844 8252511 8268079 8267674 8254842 
2352.898 8233770 8209254 8184538 8161849 8142301 8126029 8113774 8106212 
2356.755 8105368 8112794 8129641 8155671 8189367 8228164 8269734 8312051 
2360.613 8354102 8395921 8437440 8478455 8518597 8557119 8593888 8629308 
2364.470 8664663 8701306 8740386 8782614 8827449 8874454 8923459 8974195 
2368.327 9027102 9082248 9139059 9196149 9251893 9304867 9354225 9400745 
2372.185 9446119 9492581 9542028 9595444 9652933 9713919 9778167 9845169 
2376.042 9915437 9989920 10069062 10153170 10241942 10334566 10430400 
2379.417 10528768 10629025 10730835 10833653 10936699 11039056 11140111 
2382.793 11238946 11335353 11428960 11519184 11605479 11686651 11761677 
2386.168 11829668 11890824 11945177 11993678 12036735 12074719 12107460 
2389.543 12135092 12157240 12174925 12188931 12200518 12210536 12219192 
2392.918 12226349 12231631 12235517 12238754 12242947 12250240 12261556 
2396.294 12277506 12297821 12321443 12347998 12378304 12414137 12458087 
2399.669 12512136 12577175 12652184 12735190 12822956 12912855 13003116 
2403.044 13093257 13183246 13273665 13364922 13457293 13551460 13648623 
2406.419 13750389 13858817 13975517 14100806 14234314 14374096 14518274 
2409.795 14665414 14815036 14967077 15121985 15279419 15438215 15596039 
2413.170 15750038 15897354 16035711 16163660 16280329 16385328 16478481 
2416.545 16559847 16629763 16689224 16739566 16782476 16819224 16850946 
2419.920 16878022 16900378 16918464 16932794 16944922 16956672 16969972 
2423.296 16986336 17007010 17032682 17064420 17103710 17152238 17212322 
2426.671 17285688 17373032 17474572 17589764 17717516 17857352 18009012 
2430.046 18172438 18347502 18533634 18729808 18934724 19147840 19368542 
2433.421 19597400 19835048 20081536 20336706 20599600 20868946 21144164 
2436.797 21425684 21714420 22011996 22319576 22637252 22963684 23296726 
2440.172 23633590 23971486 24309052 24645406 24980932 25316544 25653434 
2443.547 25992942 26336482 26684768 27038342 27396862 27759140 28123100 
2446.922 28486974 28848782 29207208 29561882 29912342 30258040 30597860 
2450.298 30930120 31252950 31565260 31866488 32157582 32439764 32714520 
2453.673 32982550 33243448 33495772 33737640 33966996 34182456 34382892 
2457.048 34567092 34733708 34880716 35005828 35106508 35180948 35228056 
2460.423 35247816 35240956 35209044 35153860 35077808 34983268 34873496 
2463.799 34751800 34621700 34487268 34352228 34220960 34097756 33988028 
2467.174 33897208 33831224 33795444 33793580 33827748 33897492 34000464 
2470.549 34133816 34294244 34479192 34687696 34918524 35170852 35443316 
2473.924 35732820 36035372 36346064 36659532 36970704 37275024 37568500 
2477.300 37848072 38110864 38354412 38576480 38774604 38946144 39088420 
2480.675 39199192 39277020 39321488 39334368 39318732 39278508 39218480 
2484.050 39143568 39057096 38961764 38859568 38750732 38635436 38513368 
2487.425 38383692 38245520 38098276 37940776 37772088 37592416 37401004 
2490.801 37197948 36983220 36756848 36518556 36268072 36004952 35728756 
2494.176 35439004 35135212 34816524 34482316 34131484 33763392 33377678 
2497.551 32974720 32555494 32121722 31675984 31221190 30760686 30298042 
2500.926 29836458 29379226 28928958 28487222 28055126 27632250 27217936 
2504.302 26810924 26410454 26016298 25629532 25252202 24886816 24536356 
2507.677 24202888 23887882 23591818 23314242 23054590 22811612 22584266 
2511.052 22371658 22172540 21985680 21810118 21645214 21490538 21346706 
2514.427 21214266 21093796 20986050 20890780 20808424 20738528 20681498 
2517.802 20637750 20607558 20591158 20587580 20595604 20613010 20637924 
2521.178 20668746 20704504 20744992 20790906 20842144 20898498 20959380 
2524.553 21023296 21089134 21155226 21220146 21282466 21340198 21391120 
2527.928 21433030 21464186 21482810 21488416 21481452 21462236 21431880 
2531.303 21391188 21340964 21281666 21214336 21139294 21058040 20971690 
2534.679 20881428 20788786 20695468 20602972 20513480 20429008 20350874 
2538.054 20280320 20217000 20160282 20108466 20060472 20015330 19972448 
2541.429 19931684 19892972 19855856 19819580 19782818 19744814 19705320 
2544.804 19664548 19623918 19584748 19548388 19515358 19485416 19457382 
2548.180 19429730 19400972 19369998 19336116 19299604 19261364 19222468 
2551.555 19184754 19149778 19118650 19092092 19069866 19051102 19034622 
2554.930 19019252 19004020 18988928 18973906 18959090 18944486 18929532 
2558.305 18913266 18894682 18873018 18847826 18818794 18785682 18748108 
2561.681 18705282 18656752 18602382 18542936 18480352 18417294 18356420 
2565.056 18299980 18249144 18203636 18163110 18126454 18093292 18064068 
2568.431 18039716 18021412 18009704 18004972 18006630 18014192 18026972 
2571.806 18044620 18066694 18092912 18122066 18153402 18185810 18218390 
2575.182 18250770 18283564 18316916 18351234 18386562 18422444 18458604 
2578.557 18495150 18532804 18573194 18617980 18667854 18723028 18782464 
2581.932 18843916 18905584 18966048 19025172 19083956 19144134 19207508 
2585.307 19275426 19348552 19426924 19509780 19596776 19686874 19779350 
2588.683 19873616 19968838 20064464 20160526 20257026 20354172 20452244 
2592.058 20550718 20648626 20744504 20836476 20923392 21004308 21079708 
2595.433 21150288 21217468 21282222 21345246 21407026 21467632 21527654 
2598.808 21587438 21648000 21710380 21775592 21844298 21917092 21994464 
2602.184 22076730 22164206 22257038 22354948 22457624 22564128 22674046 
2605.559 22787344 22904268 23025486 23152050 23284456 23422984 23567262 
2608.934 23716028 23868452 24023312 24179978 24337716 24495968 24653858 
2612.309 24810400 24964192 25114002 25258910 25398246 25531934 25659970 
2615.685 25782770 25900258 26012782 26120442 26223134 26320780 26413342 
2619.060 26500360 26581650 26657110 26726698 26790728 26849906 26905104 
2622.435 26957246 27007524 27056644 27105310 27154230 27203684 27253850 
2625.810 27304584 27355256 27405050 27453086 27498656 27541440 27581618 
2629.186 27620174 27658240 27696944 27737066 27778990 27822724 27868014 
2632.561 27914086 27960870 28007590 28053500 28097612 28139256 28177366 
2635.936 28211592 28242142 28269724 28295610 28321108 28347634 28376072 
2639.311 28406952 28440594 28477246 28517190 28560536 28607816 28658992 
2642.687 28714282 28773296 28835788 28901228 28969794 29041100 29115606 
2646.062 29193386 29274616 29359336 29447550 29539044 29633782 29731666 
2649.437 29832482 29935876 30041426 30148672 30256724 30365124 30473230 
2652.812 30581008 30688280 30795614 30903862 31013706 31126176 31241698 
2656.188 31360920 31484060 31611406 31743136 31879574 32021232 32168142 
2659.563 32320280 32476752 32635964 32795948 32954738 33110586 33262942 
2662.938 33411816 33558408 33704444 33851388 34000320 34151844 34306040 
2666.313 34462588 34620804 34780372 34940788 35101692 35262624 35423436 
2669.688 35584268 35745628 35908344 36073680 36242680 36416068 36594176 
2673.064 36776684 36962660 37151316 37341964 37533924 37726804 37920092 
2676.439 38113180 38305592 38496856 38687160 38877252 39068440 39262188 
2679.814 39460040 39663252 39872372 40087908 40309884 40538772 40774700 
2683.189 41018144 41269268 41528048 41794496 42068340 42349400 42638072 
2686.565 42934752 43239988 43553820 43875988 44205656 44541520 44882308 
2689.940 45226900 45574740 45925400 46279372 46636840 46998920 47366324 
2693.315 47740148 48121400 48510732 48908196 49313560 49725728 50143648 
2696.690 50566736 50994892 51428580 51868600 52315756 52769436 53228536 
2700.066 53691384 54155584 54619568 55082696 55544852 56006744 56469052 
2703.441 56931552 57393448 57853148 58308444 58757620 59198564 59629468 
2706.816 60048884 60455380 60847240 61223052 61581888 61923212 62246988 
2710.191 62553444 62842840 63115568 63371940 63612400 63837596 64048588 
2713.567 64246080 64430328 64601392 64758136 64898932 65021984 65125332 
2716.942 65207756 65268672 65307952 65326124 65324472 65304720 65269596 
2720.317 65222620 65167792 65109820 65053240 65002360 64961144 64932944 
2723.692 64920700 64926976 64953992 65002932 65075100 65170796 65289504 
2727.068 65431124 65594948 65780348 65986768 66213088 66457944 66718964 
2730.443 66994064 67280632 67576600 67880608 68191448 68508256 68829792 
2733.818 69154064 69478560 69800360 70116392 70424632 70723456 71011912 
2737.193 71289552 71556152 71811624 72056368 72291112 72517336 72736848 
2740.569 72951896 73164664 73377368 73591792 73810216 74034744 74267776 
2743.944 74511816 74768600 75038928 75322936 75619552 75926944 76243248 
2747.319 76566216 76892792 77219376 77541216 77852152 78146304 78417656 
2750.694 78661592 78875736 79059504 79213680 79339904 79439680 79513960 
2754.070 79563424 79588336 79588696 79563936 79513248 79434936 79326824 
2757.445 79186200 79010576 78798312 78548584 78261904 77938696 77580512 
2760.820 77187832 76761896 76304264 75817480 75305360 74773128 74226064 
2764.195 73670304 73111336 72554336 72004624 71467400 70947808 70451520 
2767.571 69983400 69547008 69144928 68778048 68446184 68148760 67885016 
2770.946 67654544 67457000 67292432 67159640 67057164 66982464 66932520 
2774.321 66903108 66890388 66889420 66894836 66901520 66903376 66895180 
2777.696 66871948 66829712 66765100 66676116 66561320 66419908 66252032 
2781.072 66058940 65843388 65609208 65361752 65106280 64848296 64592624 
2784.447 64342292 64098968 63863120 63633612 63408256 63183740 62956468 
2787.822 62722312 62477180 62218272 61943544 61652528 61346484 61027460 
2791.197 60698456 60362468 60023012 59683368 59347368 59018612 58700912 
2794.573 58398456 58114620 57852620 57614988 57403996 57221500 57069036 
2797.948 56947984 56859332 56803624 56780400 56788824 56827532 56894308 
2801.323 56987008 57103500 57240812 57396436 57567132 57749852 57941624 
2804.698 58140112 58343272 58549412 58757468 58965628 59171984 59373844 
2808.073 59568540 59752488 59922360 60074872 60206240 60313092 60391980 
2811.449 60439848 60454620 60434972 60381392 60294932 60177620 60032376 
2814.824 59861808 59669228 59458336 59233656 59000392 58765396 58535912 
2818.199 58319736 58125300 57959988 57830816 57743380 57701524 57707088 
2821.574 57760184 57858408 57997440 58171516 58374840 58600412 58841996 
2824.950 59093620 59349380 59603088 59848804 60079856 60290136 60474272 
2828.325 60627592 60747500 60832836 60884332 60904192 60895656 60863020 
2831.700 60810768 60743272 60664700 60578220 60486612 60392244 60297480 
2835.075 60205212 60118252 60039984 59973216 59920688 59884024 59864740 
2838.451 59864356 59885352 59931640 60008368 60122664 60282600 60496440 
2841.826 60773072 61121504 61550656 62070696 62692604 63427156 64285308 
2845.201 65274716 66397788 67648272 69007680 70444392 71908856 73339392 
2848.576 74664664 75806360 76694128 77270680 77498792 77368432 76895248 
2851.952 76119368 75094304 73884952 72558920 71176104 69791720 68450992 
2855.327 67185784 66019208 64963648 64021900 63189484 62456520 61809780 
2858.702 61233924 60714348 60237264 59790316 59362864 58946116 58532460 
2862.077 58116056 57692556 57259148 56814616 56358992 55893748 55421928 
2865.453 54948248 54479668 54024572 53592932 53195240 52840420 52536184 
2868.828 52287468 52096044 51960572 51877188 51839664 51839404 51866360 
2872.203 51910120 51959452 52004904 52039080 52057380 52058764 52044348 
2875.578 52016968 51979508 51934620 51883612 51827384 51766308 51700988 
2878.954 51632504 51562396 51491996 51422572 51355068 51290220 51229188 
2882.329 51173712 51126076 51088652 51063720 51052764 51056080 51073260 
2885.704 51103076 51144936 51198164 51262516 51337948 51424252 51520908 
2889.079 51626088 51738128 51854972 51974872 52096380 52219188 52343716 
2892.455 52470896 52602264 52739584 52884356 53038044 53201196 53373920 
2895.830 53555860 53746352 53944840 54151308 54365680 54588612 54820340 
2899.205 55061372 55311604 55571172 55840468 56119616 56409320 56710020 
2902.580 57021920 57344820 57678744 58023796 58381324 58754204 59146164 
2905.956 59562424 60008480 60489964 61012968 61583532 62208864 62897792 
2909.331 63659744 64504744 65442024 66477172 67610984 68837248 70142680 
2912.706 71504552 72891624 74267696 75588592 76808352 77884936 78779880 
2916.081 79466488 79932008 80177984 80219480 80080840 79792864 79385688 
2919.457 78885080 78310824 77673656 76977480 76220616 75399112 74510488 
2922.832 73556000 72542512 71483256 70397200 69304368 68226608 67182848 
2926.207 66186844 65248108 64370608 63554092 62795012 62087596 61425716 
2929.582 60802420 60212100 59650680 59116096 58608828 58131816 57689720 
2932.958 57288144 56932496 56627380 56375820 56179308 56037580 55948740 
2936.333 55909164 55913348 55954580 56024236 56113132 56213284 56317916 
2939.708 56422868 56526864 56630852 56736676 56846604 56961732 57081468 
2943.083 57203504 57323344 57434668 57529604 57598228 57630920 57618240 
2946.458 57553400 57433948 57263004 57049880 56807968 56554948 56308672 
2949.834 56084328 55894276 55745708 55640732 55577840 55552344 55558072 
2953.209 55588008 55635120 55692820 55754828 55815940 55871744 55918776 
2956.584 55954728 55978248 55989708 55990424 55982808 55970068 55955596 
2959.959 55942068 55931548 55924840 55921864 55922240 55925444 55931364 
2963.335 55940144 55952092 55967056 55984768 56004292 56024612 56045196 
2966.710 56065816 56087192 56109964 56135040 56162676 56192580 56224372 
2970.085 56257824 56293056 56331004 56373104 56420188 56473204 56531696 
2973.460 56595180 56662412 56732372 56804608 56878144 56952140 57024492 
2976.836 57091560 57148396 57189256 57207508 57197836 57155768 57078788 
2980.211 56966612 56820964 56646028 56447056 56231124 56005464 55776604 
2983.586 55549560 55327000 55108916 54892936 54674548 54449092 54211928 
2986.961 53960000 53692056 53408168 53109372 52796676 52469960 52127460 
2990.337 51765784 51380056 50965528 50519240 50040832 49533764 49005324 
2993.712 48466048 47926144 47395484 46880452 46382704 45900028 45426460 
2997.087 44955140 44479296 43994184 43498040 42991928 42478916 41963148 
3000.462 41449016 40940548 40440388 39950936 39473468 39008848 38557468 
3003.838 38119400 37694348 37282028 36881672 36493004 36115808 35750200 
3007.213 35396400 35055176 34726568 34410832 34107364 33815072 33532028 
3010.588 33256148 32985158 32717090 32450582 32185056 31921010 31659302 
3013.963 31401168 31148032 30900982 30660864 30428486 30204436 29989162 
3017.339 29782692 29584798 29394542 29210078 29030154 28853174 28678956 
3020.714 28507956 28341762 28182352 28031092 27888788 27754972 27628932 
3024.089 27509810 27397602 27293576 27200438 27121006 27058230 27013518 
3027.464 26986156 26973358 26969692 26968318 26960948 26939020 26895060 
3030.840 26822906 26718910 26582568 26416158 26224542 26013590 25789942 
3034.215 25559276 25325920 25093114 24862782 24636288 24414646 24198124 
3037.590 23986964 23780596 23578246 23378784 23181618 22986810 22795200 
3040.965 22608490 22428104 22255330 22090640 21933540 21783430 21639572 
3044.341 21501750 21369888 21244016 21124058 21008968 20897664 20788648 
3047.716 20681116 20575004 20470826 20369866 20272994 20180760 20092538 
3051.091 20007522 19924260 19841880 19759620 19677272 19594730 19511998 
3054.466 19429070 19346300 19264412 19184684 19109058 19038880 18975462 
3057.842 18919046 18868934 18823776 18782222 18743542 18707220 18673804 
3061.217 18643712 18616802 18593216 18572676 18555246 18541172 18531696 
3064.592 18527998 18530832 18540030 18554450 18571810 18589380 18604388 
3067.967 18614694 18618844 18615420 18603626 18582496 18551304 18509602 
3071.343 18457740 18397002 18329598 18257990 18184530 18111288 18039336 
3074.718 17969090 17900614 17833910 17768806 17705608 17644214 17584932 
3078.093 17527488 17471708 17416866 17362686 17308374 17253140 17196568 
3081.468 17138452 17078860 17018450 16958324 16899484 16842646 16788020 
3084.844 16735468 16684473 16634962 16587317 16542809 16502641 16468398 
3088.219 16440798 16419325 16402705 16389493 16377794 16367024 16357115 
3091.594 16348410 16341254 16335921 16331689 16327733 16323399 16318513 
3094.969 16313594 16309947 16308744 16310843 16316587 16325429 16336713 
3098.344 16349958 16364615 16380787 16398473 16417537 16437426 16457627 
3101.720 16477173 16495999 16514137 16532069 16550450 16569933 16590139 
3105.095 16610863 16631553 16651625 16670940 16689602 16707852 16725998 
3108.470 16744077 16761847 16779514 16797010 16814712 16833140 16852946 
3111.845 16874370 16897760 16922598 16948678 16975312 17001738 17026996 
3115.221 17049946 17069244 17083822 17093058 17096850 17095816 17091060 
3118.596 17083582 17074070 17062662 17048706 17031614 17011042 16987370 
3121.971 16961736 16936000 16911850 16890802 16873750 16860798 16851704 
3125.346 16846330 16844298 16845298 16848950 16854254 16859764 16863966 
3128.722 16865450 16863416 16858044 16850258 16841544 16833932 16828800 
3132.097 16827250 16830040 16837030 16847950 16862520 16879880 16899414 
3135.472 16920428 16942442 16965010 16987956 17011214 17034578 17058080 
3138.847 17081548 17104846 17128178 17151996 17177126 17204324 17233936 
3142.223 17265898 17299616 17333962 17367720 17400208 17430974 17460464 
3145.598 17489268 17518002 17547188 17577204 17607984 17639486 17672166 
3148.973 17706022 17741608 17779058 17818550 17859596 17901960 17945054 
3152.348 17988532 18032084 18075122 18117368 18158550 18198524 18237568 
3155.724 18276376 18315774 18356766 18399834 18444742 18491310 18538682 
3159.099 18586232 18634200 18682900 18733060 18785544 18840420 18897276 
3162.474 18955388 19014232 19073812 19134682 19198122 19265104 19335906 
3165.849 19410050 19486214 19562494 19637022 19708476 19776300 19840112 
3169.225 19900048 19956106 20008424 20056864 20102566 20146328 20190306 
3172.600 20236128 20285146 20337782 20393064 20449292 20504622 20557284 
3175.975 20606480 20652100 20695296 20737310 20779366 20822988 20868668 
3179.350 20917134 20968420 21022670 21079674 21139190 21200662 21263744 
3182.726 21328088 21393348 21459102 21525216 21591444 21657822 21724524 
3186.101 21791792 21860222 21930508 22002968 22078194 22156046 22236356 
3189.476 22318704 22402742 22487910 22573970 22660746 22747920 22835080 
3192.851 22922256 23009556 23097394 23186790 23278232 23372386 23469112 
3196.227 23567716 23666936 23765722 23863412 23960004 24056440 24153846 
3199.602 24253374 24355800 24460810 24568016 24676374 24784686 24892360 
3202.977 24998656 25103680 25207256 25309906 25412088 25514788 25618706 
3206.352 25724442 25832208 25941058 26050178 26158484 26264738 26368872 
3209.728 26471762 26574748 26678990 26785442 26894248 27004702 27115890 
3213.103 27227002 27337964 27449378 27561528 27675402 27790542 27906278 
3216.478 28021408 28134836 28245962 28354566 28461394 28567118 28672336 
3219.853 28777650 28883096 28989098 29096190 29205150 29316692 29431132 
3223.229 29548228 29667200 29786702 29905634 30023318 30139616 30254734 
3226.604 30368962 30482082 30593986 30703926 30811798 30917420 31021676 
3229.979 31125782 31230624 31336740 31444054 31551078 31656594 31759176 
3233.354 31858000 31953000 32044988 32135244 32224950 32315604 32407272 
3236.729 32500106 32593674 32687262 32780368 32872922 32965068 33057198 
3240.105 33150420 33245202 33341612 33439406 33537324 33634376 33729584 
3243.480 33823020 33915652 34009528 34106644 34208840 34316944 34430664 
3246.855 34548616 34669144 34790888 34912960 35035388 35158600 35283072 
3250.230 35408984 35536332 35664580 35793228 35921916 36050388 36178572 
3253.606 36306508 36434372 36562060 36690104 36818984 36949744 37082744 
3256.981 37218596 37356732 37496212 37635664 37773680 37910008 38044708 
3260.356 38178584 38313084 38449212 38587596 38728308 38870944 39015480 
3263.731 39161584 39309736 39460076 39612976 39768396 39925364 40083512 
3267.107 40242412 40401732 40561872 40723200 40886192 41050956 41217168 
3270.482 41384204 41551600 41719244 41887280 42056040 42226248 42397880 
3273.857 42571076 42745584 42920928 43096892 43273700 43451896 43632512 
3277.232 43816644 44005112 44198392 44396528 44598608 44803284 45008788 
3280.608 45213952 45418148 45621808 45826340 46034248 46247672 46468208 
3283.983 46696236 46931100 47170672 47412848 47656424 47900576 48146128 
3287.358 48394372 48646428 48903004 49164332 49429496 49697644 49968300 
3290.733 50241136 50516484 50795624 51079188 51368084 51662700 51963224 
3294.109 52269828 52582332 52900708 53224716 53554172 53888532 54227508 
3297.484 54570840 54918468 55270324 55626084 55985600 56348280 56713756 
3300.859 57082340 57454372 57831496 58215080 58607200 59008856 59421104 
3304.234 59843788 60276544 60718424 61168804 61626372 62090692 62560596 
3307.610 63036068 63516660 64003512 64497860 65001512 65515652 66041276 
3310.985 66577620 67123904 67678352 68240064 68809136 69386000 69971992 
3314.360 70568328 71175200 71791960 72417376 73049664 73688008 74332056 
3317.735 74982296 75639384 76303952 76975776 77654160 78338240 79026472 
3321.111 79717776 80411072 81104944 81798288 82490016 83179680 83867264 
3324.486 84554256 85241280 85929392 86618192 87305952 87989472 88665616 
3327.861 89331016 89983336 90621520 91244344 91850824 92439464 93008328 
3331.236 93555544 94080496 94582800 95062960 95521640 95957456 96367704 
3334.612 96749008 97097008 97408848 97683928 97923560 98130640 98308240 
3337.987 98458016 98579864 98672048 98731856 98756640 98744832 98695464 
3341.362 98608216 98483080 98319336 98116232 97872920 97588304 97261704 
3344.737 96892488 96480144 96024288 95524784 94982576 94399304 93778400 
3348.113 93123896 92439632 91729176 90994760 90237520 89458144 88656840 
3351.488 87834704 86993144 86134272 85260112 84372736 83473800 82565272 
3354.863 81648952 80727304 79803136 78879360 77958800 77044696 76139472 
3358.238 75245856 74366624 73504184 72660392 71836288 71031344 70244368 
3361.614 69473080 68715272 67969720 67235568 66513084 65803328 65107436 
3364.989 64426176 63760192 63109784 62475188 61856808 61255136 60669996 
3368.364 60101244 59547944 59008972 58482836 57968772 57466060 56974428 
3371.739 56493924 56024048 55564320 55113696 54671012 54235652 53807744 
3375.115 53387332 52975268 52571932 52177192 51790200 51410080 51035324 
3378.490 50664724 50297752 49933804 49572652 49214132 48858320 48504984 
3381.865 48154604 47807092 47462672 47121624 46783500 46448000 46114600 
3385.240 45782856 45453132 45126192 44803212 44485392 44173740 43868068 
3388.615 43567560 43270624 42975320 42680216 42384216 42087540 41790812 
3391.991 41495344 41202632 40914044 40630340 40351296 40076244 39803728 
3395.366 39532508 39261424 38990108 38719720 38451748 38188392 37931192 
3398.741 37680580 37435784 37194592 36954580 36713400 36469904 36224816 
3402.116 35979720 35736564 35497568 35262912 35032152 34804172 34576992 
3405.492 34349968 34122740 33896204 33671828 33450820 33233364 33019696 
3408.867 32808918 32599852 32392066 32185376 31979892 31776536 31576018 
3412.242 31378586 31184342 30992568 30802692 30613896 30425464 30236830 
3415.617 30047960 29858994 29670146 29481910 29294962 29109726 28926478 
3418.993 28745716 28567544 28392626 28221562 28054984 27893452 27737312 
3422.368 27585960 27437980 27292270 27146506 26999556 26850750 26700026 
3425.743 26548224 26396476 26246046 26097994 25952804 25810582 25671114 
3429.118 25534044 25398528 25263932 25129520 24994796 24859448 24723582 
3432.494 24587688 24452956 24320476 24191538 24066736 23946348 23829702 
3435.869 23715748 23602838 23489642 23374622 23257188 23137476 23015598 
3439.244 22892916 22770094 22648178 22527658 22408708 22290940 22173832 
3442.619 22056998 21940022 21822590 21704356 21584828 21463838 21340478 
3445.995 21214998 21087326 20958544 20830428 20704886 20583722 20468116 
3449.370 20358096 20253032 20151536 20051554 19951630 19849788 19745056 
3452.745 19636572 19524266 19407798 19288138 19166676 19044904 18924964 
3456.120 18808414 18696218 18588238 18483808 18381306 18279246 18176618 
3459.496 18072634 17967364 17861428 17754930 17648424 17542220 17436354 
3462.871 17331132 17226974 17123974 17022620 16923288 16825664 16729925 
3466.246 16635822 16543427 16452705 16363997 16276337 16189281 16102105 
3469.621 16013674 15923440 15831988 15739318 15646597 15554036 15461390 
3472.997 15367666 15271869 15172421 15068777 14961590 14852407 14743355 
3476.372 14637003 14534754 14437872 14346321 14258966 14174572 14091496 
3479.747 14008367 13923817 13837710 13749739 13660830 13572210 13485524 
3483.122 13401827 13321632 13244253 13168185 13091413 13011685 12927670 
3486.498 12838825 12746279 12651365 12556029 12462009 12370600 12282141 
3489.873 12197075 12115296 12036905 11961491 11889360 11819215 11750545 
3493.248 11681988 11612659 11542049 11470327 11398039 11326001 11255097 
3496.623 11185395 11116791 11049048 10981349 10913831 10846630 10779948 
3499.999 10713989 10648414 10582340 10514239 10443060 10368092 10290083 
3503.374 10211071 10133803 10061228 9995616 9937066 9884386 9834798 9785080 
3507.231 9732725 9676648 9617226 9556491 9497085 9440599 9387879 9337840 
3511.089 9288652 9237744 9184237 9128029 9070609 9014517 8961240 8911689 
3514.946 8865661 8820788 8775176 8727201 8676223 8623190 8570536 8520523 
3518.803 8475314 8435953 8401597 8370282 8340119 8308134 8272571 8232385 
3522.661 8187847 8139971 8090481 8041232 7993271 7947475 7903305 7859475 
3526.518 7814975 7768490 7719716 7669295 7618678 7569078 7522248 7478761 
3530.376 7438851 7402247 7368376 7336530 7306304 7277258 7248384 7218736 
3534.233 7186968 7151901 7113065 7070831 7026277 6981122 6936544 6893856 
3538.091 6853259 6814416 6777091 6740913 6706690 6674926 6646528 6621598 
3541.948 6599966 6579748 6559161 6536254 6508773 6475611 6436600 6392212 
3545.805 6343929 6294273 6245967 6201599 6163318 6131459 6105080 6081726 
3549.663 6057467 6029379 5995144 5954295 5908345 5860753 5814410 5772134 
3553.520 5735099 5702567 5673159 5645330 5617638 5589410 5560715 5530645 
3557.378 5498396 5463063 5423438 5378819 5330279 5279095 5228118 5180199 
3561.235 5137214 5100267 5069860 5045054 5024439 5005769 4985960 4960824 
3565.093 4926338 4877782 4812379 4730940 4637226 4538543 4443129 4357442 
3568.950 4285123 4226066 4177320 4134802 4095532 4057203 4018910 3981556 
3572.807 3945443 3911072 3877941 3845179 3810950 3774884 3736282 3695545 
3576.665 3653174 3609604 3564903 3519138 3472375 3424883 3377997 3332953 
3580.522 3291752 3256030 3227355 3206326 3193374 3187500 3187533 3190470 
3584.380 3192707 3189569 3175984 3147682 3101793 3038358 2961222 2877027 
3588.237 2794417 2721024 2662346 2620275 2593542 2578443 2570110 2563544 
3592.094 2554145 2538447 2514518 2482126 2442472 2397991 2352049 2307677 
3595.952 2267839 2234333 2208089 2188907 2175420 2165397 2156506 2146916 
3599.809 2134929 2120711 2105329 2090646 2078494 2070770 2067440 2068040 
3603.667 2071269 2074965 2076962 2075231 2067207 2050562 2023364 1984018 
3607.524 1932928 1873391 1810468 1751147 1701647 1665324 1641510 1626942 
3611.382 1615602 1601135 1580483 1552683 1520795 1489574 1463874 1446387 
3615.239 1437544 1433954 1431128 1424911 1410783 1386318 1351418 1307247 
3619.096 1256602 1203337 1151176 1103737 1063645 1032324 1010171 996920 
3622.954 991739 994031 1003629 1020467 1044114 1073045 1103272 1129615 
3626.811 1143668 1137522 1105265 1046672 969689 888735 819481 772544 749641 
3631.151 745857 752960 762785 769158 768959 763051 754056 744895 738257 
3635.490 734672 732913 731154 727702 721960 714725 707192 700521 695277 
3639.830 690498 685155 678120 668894 659138 651074 648320 653596 668463 
3644.170 692324 722657 755715 786585 811083 825822 828212 817755 794452 
3648.509 758636 711639 656284 596324 538364 489765 456163 441768 446644 
3652.849 467308 497693 530899 559430 577910 584181 579835 570644 564473 
3657.188 567592 582721 609497 642513 675531 702313 717646 719206 707689 
3661.528 686483 660266 634449 613180 599377 595097 600704 617328 645732 
3665.868 686582 739319 802883 873927 949366 1028006 1113105 1214867 1350753 
3670.207 1541643 1803880 2146650 2569377 3066020 3626611 4237776 4880228 
3674.065 5515813 6083574 6506251 6703897 6631052 6294307 5744701 5052429 
3677.922 4284756 3501869 2751467 2074099 1502408 1052883 725910 505090 
3681.780 364793 277155 219369 178629 149692 132324 127087 132357 142831 
3686.119 151548 151150 136069 105080 61335 11033 -38566 -81435 -114463 
3690.459 -136722 -148878 -152456 -149342 -141260 -131224 -121319 -113767 
3694.316 -109957 -110256 -114098 -120922 -129402 -138213 -146162 -152489 
3698.174 -156265 -158119 -159312 -162127 -169613 -184318 -206773 -235254 
3702.031 -264594 -288567 -302077 -301779 -287408 -262143 -230054 -195148 
3705.888 -160372 -127712 -97204 -69642 -45855 -27765 -18521 -21337 -38003 
3710.228 -68548 -110421 -158451 -205746 -246248 -274759 -288832 -288567 
3714.085 -276018 -254328 -227074 -196937 -166367 -136557 -107771 -79978 
3717.943 -52845 -27500 -5433 10603 18290 15904 3909 -15274 -37804 -59736 
3722.765 -78156 -92102 -103100 -113999 -128077 -146891 -170904 -197500 
3726.622 -222934 -241612 -249725 -244228 -225153 -194916 -157722 -119630 
3730.479 -86073 -61856 -48803 -45457 -47478 -49863 -49996 -48803 -51089 
3734.819 -62883 -88458 -127712 -174283 -217636 -248699 -261613 -255587 
3738.677 -233995 -201507 -162492 -119829 -74810 -28560 16037 52885 73431 
3743.016 67797 29921 -36379 -116682 -187630 -229922 -236744 -213297 -171732 
3747.356 -125327 -85742 -59570 -49333 -53210 -66660 -86438 -110057 -136722 
3751.695 -165241 -191505 -210250 -215947 -205382 -179648 -143579 -103730 
3755.553 -66196 -36081 -15440 -4075 -397 -3213 -11530 -25247 -43800 -64407 
3760.375 -82992 -94587 -95813 -86073 -68449 -48141 -31310 -22166 -22199 
3764.714 -29455 -39825 -48704 -53541 -54203 -53839 -55694 -62585 -74942 
3769.054 -91175 -108036 -121949 -130793 -133807 -131621 -125626 -117212 
3772.911 -106910 -95150 -81733 -66826 -50062 -31310 -10867 10834 32373 51891 
3777.733 66438 73895 73099 64483 50996 35951 22829 13220 6096 -629 -9774 
3783.037 -23557 -42177 -63712 -85013 -102438 -113005 -115754 -111150 -100517 
3787.376 -85974 -69410 -52646 -37373 -25148 -16632 -12126 -10337 -8846 -5135 
3792.198 3147 16931 34626 52951 67797 75121 72635 61799 45727 30915 22863 
3797.502 25016 37310 56265 74823 84798 78998 52288 5897 -52017 -108202 
3802.324 -148514 -163982 -153317 -122181 -79978 -38102 -6162 9973 9542 -2054 
3807.146 -15440 -21238 -13816 6626 35653 67731 98154 125430 150620 177004 
3811.968 207302 242244 279078 311505 331864 332561 309913 266379 211910 
3816.307 160829 126225 115620 127883 156188 188871 213999 221955 207004 
3820.647 171336 124568 81881 56364 55403 78137 117807 164574 208794 243470 
3825.469 264987 273408 272447 266976 261904 259517 259815 261008 260379 
3829.808 256201 247515 235646 222983 212507 207369 209689 220529 239359 
3834.148 264755 293401 321452 344697 358923 361344 352457 334020 310742 
3838.487 287798 268899 255306 246355 239625 232563 223878 212407 199148 
3842.827 185722 174154 166431 164475 168917 179325 194672 212540 230674 
3847.167 247614 263097 279078 298806 325962 363334 410061 460940 505621 
3851.506 531231 522971 471421 378356 259848 141604 48113 -6792 -22629 -7653 
3856.328 27734 74557 126888 180717 233889 284449 329908 368109 396862 415500 
3861.150 424687 426379 422498 414339 402002 384790 362670 338231 315815 
3865.489 301690 300497 313693 337999 365953 388537 396762 385320 355541 
3869.829 315484 278050 253748 248278 259185 279675 300298 313561 315484 
3874.168 306697 291710 276923 268302 268634 277519 292837 310676 327620 
3878.508 340884 348942 351694 350865 348676 348643 354148 366584 385884 
3882.848 409796 433543 451122 456827 447241 423195 391124 359586 338496 
3887.187 333555 344432 366186 390991 410061 416197 405783 379583 342973 
3891.527 304044 270855 249471 242575 249703 269463 300032 339723 387078 
3895.866 440408 496897 552861 604387 647225 678352 696671 702479 697965 
3900.206 685885 668496 647225 622272 593073 559264 521046 479847 438253 
3904.546 399614 367413 344299 331798 330206 338695 355574 378522 405318 
3908.885 433742 462067 489367 515175 539492 563047 586138 608900 631264 
3913.225 652302 670852 685321 693950 695443 689635 676958 659702 640522 
3917.564 622305 607407 596822 590783 588129 588594 590916 595561 602396 
3921.904 611090 621011 630667 637867 640953 639195 633189 624395 615868 
3926.244 609331 606312 607042 610658 615702 621309 625922 629273 630866 
3930.583 630036 626220 619285 608900 595727 581361 566895 554188 544003 
3934.923 536705 532458 531132 532790 537269 545032 555416 567492 579635 
3939.262 589888 596988 599974 599012 595064 589423 583385 577910 574095 
3943.602 572403 573531 578706 588328 602164 619418 637867 655056 668430 
3947.942 676461 678385 675531 669392 662058 654824 648287 642513 637237 
3952.281 632226 627680 623964 621177 619484 618754 618688 619086 620214 
3956.621 622504 626287 631363 637370 643177 647723 650411 651174 650941 
3960.960 651174 652999 657147 663551 671416 679281 686118 691029 694049 
3965.300 695377 696074 696306 696671 697534 698330 698662 698297 696704 
3969.640 693917 690266 686350 682965 681505 682434 686018 692224 700288 
3973.979 709316 718675 728266 737925 748247 759134 770154 781074 790369 
3978.319 797306 801755 803647 803879 803481 802817 802186 801356 799663 
3982.658 796609 792161 786385 779780 773274 766934 761159 756279 751931 
3986.998 748413 746123 745393 746455 749475 754122 759997 767133 774900 
3991.338 783498 792460 802020 811614 820975 829274 835914 840230 841723 
3995.677 840097 835416 828245 819514 810684 802784 797406 794950 795049 
4000.017 797240 799929 
##END=
