
##TITLE=1708_2_d
##JCAMP-DX=5.01  $$ Nicolet v. 1
##DATATYPE=INFRARED SPECTRUM
##ORIGIN=UniL
##OWNER=Nicolet
##LONGDATE=2011/09/08
##TIME=13:29:50
##SPECTROMETER/DATA SYSTEM=Nicolet iS5
##DATA PROCESSING=
Ratio against background
%Transmittance->Absorbance
Truncated
ElementMultiply or ElementDivide
##COMMENTS=
Number of sample scans: 32
Collection length: 51.17 sec
Sample gain: 2.0
Background collected on: Jeu Sep 08 13:21:44 2011 (GMT+02:00);
Number of background scans: 32
Background gain: 2.0
Sample spacing:  1.000
Number of scan points: 12415
Resolution points: 8192
Number of FFT points: 65536
Apodization: N-B fort;
Phase correction: Mertz;
Laser frequency: 15798.0 cm-1
Number of rejected sample scans: 0
Number of rejected background scans: 0
Bench serial number: ASB1000141;
##RESOLUTION=4.000
##XUNITS=1/CM
##YUNITS=ABSORBANCE
##FIRSTX=649.893372
##LASTX=4000.122314
##FIRSTY=0.094879
##MAXX=4000.122314
##MINX=649.893372
##MAXY=0.278709
##MINY=-0.000590
##XFACTOR=1.000000
##YFACTOR=1.000000E-009
##NPOINTS=6950
##DELTAX=0.482117
##ZPD=6100
##XYDATA=(X++(Y..Y))
649.893 94878680 94596184 94380032 94255280 94220168 94253472 94323128 
653.268 94406184 94497776 94611224 94767104 94982496 95261664 95596376 
656.643 95972792 96381432 96823048 97307592 97847104 98446584 99102632 
660.018 99805912 100551680 101347088 102211920 103171792 104248944 105450064 
663.393 106765256 108176072 109667872 111235576 112874816 114563400 
666.285 116227704 117703624 118757312 119152192 118775480 117711920 
669.178 116181976 114413352 112544128 110626176 108653728 106604880 
672.071 104478288 102303920 100131920 98021752 96015200 94127448 92353304 
675.446 90678800 89095544 87606360 86221952 84952648 83799432 82751040 
678.820 81786048 80879960 80013552 79176296 78366424 77588080 76846560 
682.195 76146144 75488920 74875512 74306544 73781464 73297504 72848992 
685.570 72427552 72023080 71627496 71237432 70853680 70480440 70120328 
688.945 69770392 69422040 69061360 68674216 68252232 67795696 67314328 
692.320 66822948 66337368 65869568 65425692 65008744 64621844 64271288 
695.694 63967152 63719520 63532040 63395216 63282816 63155992 62966160 
699.069 62670784 62244884 61686252 61017316 60278676 59520844 58788348 
702.444 58114428 57516440 56995092 56540796 56138884 55775736 55441316 
705.819 55129644 54838312 54566932 54316072 54087652 53885684 53715452 
709.194 53582736 53495744 53464076 53499564 53619476 53842696 54185952 
712.569 54656244 55240260 55897968 56558684 57138004 57547724 57718480 
715.943 57619908 57264704 56708432 56030684 55329896 54707240 54253336 
719.318 54057856 54199280 54734828 55689356 57028684 58647552 60352420 
722.693 61895092 63013808 63470604 63128940 61978548 60146412 57854776 
726.068 55375776 52973248 50831304 49052068 47652724 46592128 45800052 
729.443 45204468 44751128 44399868 44124404 43905716 43726600 43573752 
732.817 43439664 43324148 43233512 43176596 43160016 43185272 43248736 
736.192 43343624 43464424 43607852 43772812 43958256 44161344 44375868 
739.567 44595124 44814120 45032384 45254696 45488676 45740520 46010600 
742.942 46291240 46566788 46818340 47024616 47165720 47224712 47184412 
746.317 47028676 46743428 46319404 45757416 45072892 44297116 43470868 
749.692 42640152 41847836 41124676 40490288 39952680 39512476 39166300 
753.066 38910264 38741024 38656516 38654560 38731316 38880260 39089688 
756.441 39342532 39614572 39878436 40107932 40282400 40392460 40443444 
759.816 40453372 40447552 40452536 40489960 40571256 40700568 40876692 
763.191 41098632 41370756 41706332 42127992 42672832 43391804 44343940 
766.566 45595348 47197304 49164036 51444956 53908080 56348544 58494776 
769.940 60083208 60918032 60924400 60185764 58927716 57471772 56118900 
773.315 55090148 54460060 54147816 53948296 53601632 52894796 51705728 
776.690 50050276 48057772 45937188 43908904 42143032 40748640 39753512 
780.065 39125436 38794672 38684184 38729140 38879784 39106764 39393828 
783.440 39731436 40114292 40540116 41009076 41524036 42089952 42712608 
786.815 43397224 44149528 44976564 45887140 46893668 48010512 49251760 
790.189 50631660 52162660 53856840 55729400 57799812 60091884 62632964 
793.564 65446460 68545960 71927896 75568168 79421016 83419112 87486944 
796.939 91543824 95516856 99359920 103062896 106666640 110257216 113964912 
800.314 117932608 122269808 127018736 132102088 137309552 142268144 
803.206 146499104 149501984 150809744 150138928 147453008 142995648 
806.099 137230608 130744728 124137056 117844248 112103528 106926664 
808.992 102151048 97519816 92783576 87798240 82548272 77150512 71791720 
812.367 66688828 62021352 57896152 54354564 51375616 48903408 46864028 
815.742 45186416 43810008 42681748 41759808 41010716 40407328 39931504 
819.116 39572036 39322288 39177868 39133304 39181492 39315032 39528664 
822.491 39821668 40198540 40667452 41238152 41917788 42709752 43612360 
825.866 44618660 45715672 46884368 48100524 49332900 50550544 51728084 
829.241 52854640 53942064 55030040 56189148 57507588 59087852 61032988 
832.616 63421100 66292284 69619816 73298088 77114736 80754320 83849904 
835.990 85990296 86820800 86128248 83876712 80238568 75542616 70233272 
839.365 64753672 59477752 54692696 50553592 47110580 44334912 42151616 
842.740 40466208 39180624 38211724 37485376 36938668 36524864 36208284 
846.115 35967408 35792904 35683000 35637964 35655696 35730448 35853788 
849.490 36018092 36219340 36457904 36736656 37058344 37422060 37823672 
852.865 38257208 38719000 39210176 39737900 40312756 40945792 41646520 
856.239 42420784 43273700 44212588 45248996 46401392 47694364 49155280 
859.614 50817524 52717736 54894668 57390232 60238248 63449776 66993216 
862.989 70776880 74641104 78345624 81614480 84163024 85734464 86166952 
866.364 85408560 83535128 80725944 77245264 73397816 69460720 65678388 
869.739 62228100 59207904 56659432 54574820 52918300 51639184 50685204 
873.113 50011316 49576620 49348008 49297968 49401908 49641104 50003468 
876.488 50484960 51090368 51830668 52718180 53758688 54943772 56243608 
879.863 57607572 58961108 60213852 61278904 62076816 62555396 62701524 
883.238 62542768 62143676 61588912 60974652 60384288 59877212 59489952 
886.613 59234072 59106640 59098520 59201640 59411608 59726212 60142344 
889.987 60651820 61240180 61889204 62578200 63287876 64002700 64709596 
893.362 65397264 66054932 66671216 67235496 67739928 68180472 68557064 
896.737 68873120 69135176 69351944 69534168 69696832 69856856 70032176 
900.112 70239152 70487144 70777192 71100688 71443576 71789880 72127368 
903.487 72452072 72768704 73090712 73435632 73824776 74280312 74823000 
906.862 75474688 76255760 77182928 78270152 79525736 80952368 82549680 
910.236 84315680 86249024 88350248 90621200 93064200 95681856 98478008 
913.611 101461968 104653640 108083256 111793872 115835608 120254328 
916.504 125084640 130337744 135995024 141996144 148232944 154550640 
919.397 160721248 166458528 171441072 175315888 177784704 178662704 
922.289 177934624 175792176 172627728 169017248 165589936 162985504 
925.182 161768640 162305024 164744640 168961616 174581792 180971312 
928.075 187319152 192809584 196659232 198302576 197479552 194218560 
930.967 188798304 181628784 173188912 163922720 154209104 144387536 
933.860 134734608 125487296 116860448 109019280 102090352 96160176 91266752 
937.235 87417248 84595240 82768480 81891224 81895264 82685584 84115160 
940.610 85980928 88045424 90027200 91652280 92699272 93009232 92525680 
943.985 91291408 89440400 87161504 84663200 82153320 79792472 77691096 
947.359 75909304 74458992 73321744 72461416 71839728 71420056 71171336 
950.734 71069472 71091560 71215920 71423688 71697720 72025664 72400312 
954.109 72817792 73275024 73767912 74289360 74831584 75387216 75951808 
957.484 76525552 77110816 77711216 78328600 78961456 79606408 80259968 
960.859 80920512 81589288 82269440 82963968 83673992 84397728 85131464 
964.233 85871568 86616984 87368904 88130408 88903704 89689008 90483736 
967.608 91284736 92089728 92899776 93718736 94551816 95401976 96268592 
970.983 97146944 98030640 98915016 99798912 100685976 101582312 102493384 
974.358 103421544 104365304 105321592 106288792 107268672 108266920 
977.251 109290272 110343720 111426576 112533096 113653416 114777104 
980.143 115896520 117006344 118102584 119180048 120229424 121239904 
983.036 122200792 123106280 123957400 124762408 125533656 126282128 
985.929 127015952 127739000 128453952 129165544 129883024 130618616 
988.821 131385688 132193088 133042784 133930088 134847152 135787744 
991.714 136750176 137737952 138756208 139808448 140892672 142002352 
994.607 143128000 144263248 145406416 146561312 147733728 148927616 
997.500 150141872 151371568 152610496 153855904 155111088 156384960 
1000.392 157688176 159028368 160407312 161822080 163268384 164745760 
1003.285 166260192 167822800 169446352 171138976 172901520 174728080 
1006.178 176611104 178545632 180533536 182582192 184700016 186890384 
1009.070 189148128 191458976 193803616 196163376 198520928 200859424 
1011.963 203159200 205390160 207513488 209488144 211277520 212862448 
1014.856 214246320 215454288 216523968 217495984 218409040 219293504 
1017.748 220176128 221084848 222046880 223089152 224232192 225484592 
1020.641 226843360 228298960 229845056 231486176 233242240 235142400 
1023.534 237220000 239499072 241988864 244683616 247567104 250619744 
1026.427 253818000 257133328 260523712 263920640 267233168 270347968 
1029.320 273135648 275474592 277250272 278357888 278709248 278223104 
1032.213 276833280 274504896 271244832 267114496 262221280 256716848 
1035.106 250770864 244545408 238201920 231884160 225718096 219828192 
1037.999 214323200 209295680 204825200 200965184 197747360 195182720 
1040.892 193258864 191935120 191129040 190715040 190503584 190242608 
1043.785 189661136 188473904 186442224 183428144 179404416 174469184 
1046.678 168811184 162691152 156384864 150138320 144167376 138622288 
1049.571 133589792 129106656 125162872 121718016 118711456 116078896 
1052.464 113757936 111693032 109842528 108173480 106659056 105277592 
1055.357 104007224 102826368 101716512 100661200 99648464 98670304 97719864 
1058.733 96790048 95873160 94961096 94048720 93136296 92230576 91344440 
1062.108 90493896 89696136 88965632 88313424 87747176 87270784 86883008 
1065.483 86574672 86327272 86108576 85872576 85569368 85147264 84564928 
1068.858 83802120 82860856 81766568 80560536 79296272 78028152 76802864 
1072.234 75659976 74624688 73709488 72915376 72233864 71650280 71146120 
1075.609 70703608 70307432 69945168 69607944 69287576 68974824 68659544 
1078.984 68330952 67980448 67604944 67208992 66805012 66409872 66044128 
1082.359 65727068 65474620 65300516 65216304 65231980 65358056 65604156 
1085.735 65978208 66485860 67129856 67910664 68827424 69877720 71056360 
1089.110 72351776 73745256 75208704 76706704 78205920 79677696 81106264 
1092.485 82489856 83837128 85160408 86466144 87750384 88996496 90181648 
1095.860 91283272 92291912 93218256 94098808 94989136 95954400 97054664 
1099.236 98321248 99741368 101243040 102703496 103950984 104789856 105049096 
1102.611 104597912 103381816 101430616 98853320 95816400 92503456 89107872 
1105.986 85794776 82685336 79864784 77373776 75218632 73381024 71826360 
1109.361 70512784 69392960 68423528 67565104 66782020 66047104 65337488 
1112.737 64635076 63927604 63207268 62472168 61726316 60979604 60246168 
1116.112 59540872 58878608 58271080 57725668 57245992 56832704 56484148 
1119.487 56197336 55967920 55790580 55658360 55563792 55499256 55456596 
1122.862 55427196 55399796 55357148 55276872 55129568 54882148 54506564 
1126.238 53982364 53304540 52484580 51550680 50542204 49500640 48467496 
1129.613 47474536 46541708 45678048 44882528 44147552 43462188 42815528 
1132.988 42198496 41605236 41033876 40485740 39964920 39476228 39023784 
1136.363 38609688 38233796 37894132 37588152 37313940 37070544 36858012 
1139.739 36676300 36524792 36401728 36305352 36234716 36190744 36176592 
1143.114 36196832 36255432 36353952 36490624 36660688 36857504 37074260 
1146.489 37305856 37548628 37799596 38056356 38315472 38573256 38826740 
1149.864 39074496 39317280 39557624 39798824 40043980 40294284 40550340 
1153.240 40811968 41079436 41353484 41635068 41923916 42218180 42513736 
1156.615 42805436 43087600 43355852 43606868 43838196 44046876 44228508 
1159.990 44376896 44485936 44549596 44564024 44528008 44442296 44308640 
1163.365 44128696 43903740 43635444 43326452 42982088 42610036 42219420 
1166.740 41820620 41422840 41033692 40659884 40306828 39980364 39686884 
1170.116 39432684 39223524 39063912 38956364 38902220 38903052 38960892 
1173.491 39079356 39262840 39515960 39842480 40245392 40727132 41291752 
1176.866 41945596 42697144 43557376 44537332 45647020 46895772 48291748 
1180.241 49843860 51563588 53463476 55558032 57861436 60384820 63135804 
1183.617 66116156 69320384 72730312 76308968 79999288 83710824 87324056 
1186.992 90703584 93693904 96146824 97939920 98978472 99215712 98653120 
1190.367 97341176 95369240 92854968 89936584 86746592 83408592 80032464 
1193.742 76701560 73481784 70421240 67549392 64883232 62427596 60178416 
1197.118 58124692 56251904 54545480 52991476 51579408 50302624 49157172 
1200.493 48140944 47251568 46485060 45834884 45292536 44847664 44489832 
1203.868 44209248 43996092 43841056 43733964 43662956 43616720 43584044 
1207.243 43555948 43526864 43494308 43457752 43417988 43376064 43333372 
1210.619 43292588 43259096 43240792 43248372 43294092 43389536 43544444 
1213.994 43766768 44061620 44432864 44883376 45414396 46025256 46712212 
1217.369 47469324 48288560 49161996 50084264 51053136 52069524 53136296 
1220.744 54256604 55433708 56670416 57971156 59342012 60790528 62325084 
1224.120 63950568 65666252 67463504 69326216 71231384 73149992 75050776 
1227.495 76900032 78661352 80301832 81791848 83111192 84252920 85225352 
1230.870 86052384 86767920 87416800 88050336 88721584 89491248 90423584 
1234.245 91581704 93032216 94834248 97035688 99672968 102767088 106324936 
1237.621 110340256 114795832 119660616 124883864 130398768 136116944 
1240.514 141930384 147731584 153411456 158870224 164026368 168804992 
1243.407 173136080 176954336 180190064 182774896 184645664 185741136 
1246.300 186007552 185403072 183899008 181491888 178208064 174105984 
1249.193 169267232 163783136 157744864 151227552 144293888 137002800 
1252.086 129415568 121611736 113694304 105777384 97991200 90467160 83317264 
1255.461 76640288 70506360 64950564 59980636 55575768 51696808 48291336 
1258.836 45303056 42678788 40366896 38322924 36509760 34894684 33452428 
1262.212 32163184 31009472 29977164 29051976 28219052 27464980 26777690 
1265.587 26148172 25571154 25043900 24564650 24131076 23739580 23385882 
1268.962 23066680 22780952 22530556 22319680 22153466 22036536 21972086 
1272.337 21963164 22013738 22130142 22321702 22598926 22971230 23443548 
1275.713 24013192 24667850 25383564 26128254 26858928 27526190 28081954 
1279.088 28481244 28692194 28702918 28522782 28181326 27719830 27186294 
1282.463 26622690 26059468 25515174 24996796 24504942 24038650 23598570 
1285.838 23187698 22809866 22467986 22162776 21893116 21657716 21455830 
1289.214 21287962 21154740 21055152 20985320 20939420 20910944 20895752 
1292.589 20893942 20909938 20951034 21023784 21132998 21280098 21464916 
1295.964 21687672 21951106 22261398 22626816 23055640 23555052 24131008 
1299.339 24787528 25528596 26355808 27265952 28245784 29266500 30286068 
1302.715 31246576 32084584 32743674 33178102 33364154 33301364 33011972 
1306.090 32535032 31919512 31222436 30498182 29795326 29155150 28604630 
1309.465 28157036 27812372 27559976 27383628 27265844 27192854 27154688 
1312.840 27144284 27155676 27181390 27212044 27238748 27254060 27254344 
1316.216 27239454 27211516 27172572 27122450 27059218 26980444 26885224 
1319.591 26776174 26658204 26538008 26421018 26310042 26205466 26107284 
1322.966 26017108 25940002 25884360 25859110 25872404 25929310 26031990 
1326.341 26181744 26380700 26631956 26938772 27301304 27713968 28163542 
1329.717 28632694 29103030 29559650 29995164 30409542 30806710 31190644 
1333.092 31561982 31915982 32244936 32540138 32795270 33008538 33182714 
1336.467 33323974 33440228 33541944 33642392 33757228 33905984 34108616 
1339.842 34381276 34734140 35168768 35680372 36260508 36901908 37599640 
1343.218 38350468 39151908 39999544 40887104 41808912 42761196 43743092 
1346.593 44754544 45790260 46831552 47843272 48768488 49534844 50070468 
1349.968 50308464 50205128 49747764 48955852 47878712 46585676 45163508 
1353.343 43698572 42270368 40949760 39787136 38813984 38042428 37467676 
1356.719 37073212 36837196 36739864 36764636 36898444 37130272 37447992 
1360.094 37837300 38285252 38782392 39327476 39926816 40592068 41332164 
1363.469 42145076 43014136 43908284 44786240 45597076 46288880 46809148 
1366.844 47105340 47136212 46876100 46322460 45498900 44452356 43245920 
1370.219 41941360 40595924 39253808 37942800 36683580 35494444 34397236 
1373.595 33421296 32598604 31953216 31494074 31210866 31080260 31074278 
1376.970 31173696 31374600 31690632 32149338 32789730 33660476 34813936 
1380.345 36308272 38200076 40525244 43277580 46378536 49674760 52923804 
1383.720 55825356 58081700 59403552 59574240 58490228 56195372 52904300 
1387.096 48963936 44810304 40834428 37306468 34362088 32007072 30172576 
1390.471 28756338 27660040 26800384 26112492 25552916 25092270 24713478 
1393.846 24410650 24184392 24037880 23973062 23986370 24069152 24210596 
1397.221 24398276 24620858 24869518 25136716 25418060 25712454 26021752 
1400.597 26349084 26696924 27064754 27448568 27841094 28233018 28616522 
1403.972 28986620 29341612 29681428 30005532 30311506 30595976 30857472 
1407.347 31099976 31333286 31573206 31837038 32138244 32484968 32878104 
1410.722 33314888 33791788 34307368 34861684 35452556 36071592 36703304 
1414.098 37326364 37923384 38487008 39027008 39569928 40156376 40833300 
1417.473 41640904 42604296 43719896 44950396 46228836 47476052 48622188 
1420.848 49614320 50424112 51046836 51500796 51831712 52110988 52432688 
1424.223 52886640 53536220 54404848 55474784 56705564 58053596 59490484 
1427.599 61002596 62585512 64236208 65945580 67700848 69493848 71331728 
1430.974 73239176 75248968 77392424 79685456 82128144 84709632 87425592 
1434.349 90291968 93345008 96633848 100193296 104016992 108035448 112140496 
1437.724 116229088 120231256 124111176 127838520 131365864 134597136 
1440.617 137385824 139569456 140973024 141450480 140911968 139323744 
1443.510 136720080 133196664 128917936 124094112 118950872 113730344 
1446.404 108647896 103883928 99587192 95848200 92692264 90071024 87883944 
1449.779 86004192 84316088 82753640 81311632 80043392 79027896 78341304 
1453.154 78018232 78039368 78334160 78798464 79324832 79808520 80183008 
1456.529 80441968 80652768 80929448 81382560 82097760 83116368 84452456 
1459.905 86105016 88056872 90273008 92690040 95225560 97762480 100146104 
1463.280 102209528 103777040 104715248 104980992 104642216 103856912 
1466.173 102806680 101662864 100549456 99540736 98682904 97995512 97476848 
1469.548 97100536 96813272 96536960 96174640 95644192 94908000 94001088 
1472.923 93022944 92100952 91344688 90813680 90530744 90498792 90717064 
1476.299 91189080 91915720 92884136 94059712 95385832 96797416 98224360 
1479.674 99610320 100923640 102159392 103342256 104517648 105746272 
1482.567 107089832 108610752 110377976 112464104 114945624 117888928 
1485.460 121326248 125225816 129459712 133811488 137954944 141482496 
1488.353 143974304 145017440 144306912 141734624 137430672 131755992 
1491.246 125189128 118224064 111238784 104453288 97978032 91831880 86006456 
1494.621 80524160 75449336 70897056 67008636 63900120 61625456 60162928 
1497.997 59442192 59369284 59853292 60819912 62201256 63929988 65937908 
1501.372 68145552 70466912 72818192 75095088 77176152 78911856 80086416 
1504.747 80426416 79624672 77427232 73795792 69021312 63665264 58295600 
1508.122 53277752 48728228 44604156 40816884 37300188 34026764 31010930 
1511.498 28284824 25870222 23771602 21970378 20433976 19126198 18013710 
1514.873 17067108 16256008 15550739 14926851 14369747 13881736 13476227 
1518.248 13167433 12957812 12832068 12756652 12692884 12610601 12507498 
1521.623 12411444 12367259 12407693 12536350 12730720 12956105 13184545 
1524.999 13402887 13619082 13855361 14137123 14477609 14872946 15306910 
1528.374 15762303 16230727 16715599 17229422 17786202 18393958 19052832 
1531.749 19755910 20493472 21259916 22054942 22881390 23737654 24614828 
1535.124 25495708 26362148 27195816 27983486 28719308 29399222 30020834 
1538.500 30578164 31057232 31435434 31690414 31814792 31822350 31743456 
1541.875 31610158 31439994 31230982 30964956 30620970 30188274 29677632 
1545.250 29120638 28559226 28027202 27535016 27070714 26606978 26117522 
1548.625 25589428 25033088 24477846 23961998 23511502 23130838 22804278 
1552.000 22507522 22221432 21940476 21675376 21446188 21271052 21154810 
1555.376 21085344 21036964 20977498 20870024 20674444 20355666 19895990 
1558.751 19321152 18705316 18143140 17701122 17395864 17208186 17102572 
1562.126 17042194 16994710 16938032 16863174 16775485 16691530 16631691 
1565.501 16610347 16628833 16675485 16731061 16777928 16805620 16814162 
1568.877 16813540 16819292 16845092 16897484 16976378 17078826 17202084 
1572.252 17343754 17500272 17664436 17822518 17956762 18050700 18096502 
1575.627 18103308 18097160 18111426 18167668 18267840 18396482 18533080 
1579.002 18659034 18763610 18845300 18907900 18956772 18995400 19023614 
1582.378 19039086 19040264 19028356 19007030 18980170 18948466 18907486 
1585.753 18849208 18765374 18652876 18516968 18372008 18236636 18130254 
1589.128 18068904 18062582 18117472 18238260 18428320 18688470 19011878 
1592.503 19380772 19763712 20119364 20407824 20595258 20665098 20619510 
1595.879 20478362 20271642 20031290 19787882 19566342 19387112 19269814 
1599.254 19231508 19286510 19444560 19708684 20076018 20540818 21097170 
1602.629 21739328 22459018 23242050 24063410 24885308 25663486 26347396 
1606.004 26888748 27249580 27402932 27338670 27063486 26599512 25979116 
1609.380 25238930 24420534 23565022 22711994 21899842 21156932 20500212 
1612.755 19932412 19443554 19015478 18625760 18254156 17884628 17509860 
1616.130 17135142 16778308 16465439 16221097 16061738 15989954 15996967 
1619.505 16064867 16171776 16297013 16423833 16545286 16666912 16804862 
1622.881 16979066 17203874 17482300 17805568 18159342 18531386 18916624 
1626.256 19315504 19730008 20159240 20595676 21026600 21439712 21827400 
1629.631 22190778 22536662 22873916 23206748 23533226 23843284 24122916 
1633.006 24358044 24536146 24649580 24697240 24685772 24629064 24546594 
1636.382 24459196 24380788 24317848 24267180 24219390 24159872 24073006 
1639.757 23947400 23778568 23572788 23344100 23110884 22886734 22675860 
1643.132 22471720 22258432 22016772 21728632 21384088 20985878 20552492 
1646.507 20113740 19704870 19356936 19087868 18902294 18793190 18745896 
1649.883 18738906 18743162 18721954 18628356 18414320 18055224 17580448 
1653.258 17081100 16658889 16369157 16201697 16113179 16055688 15995970 
1656.633 15916703 15812607 15686721 15545175 15392794 15230927 15057491 
1660.008 14868420 14660410 14431946 14184226 13921217 13649648 13378693 
1663.384 13118801 12879849 12668661 12486151 12327101 12180207 12030263 
1666.759 11860109 11654997 11406747 11116485 10795470 10461830 10135770 
1670.134 9833477 9564213 9330121 9128400 8952412 8791202 8631472 8457677 
1673.991 8256767 8025233 7774461 7530542 7322781 7172617 7083865 7045708 
1677.849 7039512 7048234 7062176 7080934 7111617 7163489 7241679 7343236 
1681.706 7457120 7566887 7657425 7722415 7771358 7826445 7915115 8053552 
1685.564 8239612 8460042 8700089 8948995 9200244 9449471 9693318 9927167 
1689.421 10146284 10348309 10534539 10710728 10884272 11061453 11243399 
1692.796 11424742 11593228 11733592 11832255 11883979 11898656 11900802 
1696.172 11919737 11971845 12053563 12142350 12207128 12212275 12129300 
1699.547 11949332 11695501 11420830 11180124 11004288 10888859 10809024 
1702.922 10733551 10636462 10500728 10318720 10094530 9841137 9577729 
1706.297 9321454 9083263 8866337 8667199 8478963 8293611 8105368 7911132 
1710.155 7712161 7511933 7315873 7128188 6950584 6781970 6619546 6460141 
1714.012 6302207 6146246 5993767 5845641 5700250 5553935 5404013 5253203 
1717.870 5111397 4993367 4912398 4874230 4875168 4904992 4950099 4998093 
1721.727 5041937 5079347 5113744 5151262 5197434 5255182 5323537 5399182 
1725.584 5478062 5557291 5634555 5707267 5771697 5822570 5854607 5865455 
1729.442 5856992 5834793 5806182 5774854 5737315 5680980 5586087 5433571 
1733.299 5215677 4948356 4670047 4427731 4251997 4146744 4094462 4069979 
1737.157 4050246 4018976 3969151 3902647 3828499 3757973 3700591 3660892 
1741.014 3638706 3631756 3637269 3653842 3679605 3712220 3748548 3784444 
1744.872 3816799 3843876 3865605 3882855 3896228 3904687 3906091 3897298 
1748.729 3875600 3839597 3789691 3728763 3661260 3593033 3531097 3480892 
1752.586 3446324 3428022 3423447 3426486 3428724 3421610 3398434 3357762 
1756.444 3304306 3248085 3200384 3167841 3150785 3143042 3135266 3117211 
1760.301 3083039 3031819 2968728 2902411 2841506 2791816 2754968 2729727 
1764.159 2712855 2701753 2693284 2684516 2672281 2654111 2629176 2600175 
1768.016 2572143 2551112 2540480 2538880 2539080 2531648 2506753 2460199 
1771.874 2396891 2330195 2276899 2248055 2245990 2263809 2291155 2318403 
1775.731 2341122 2359977 2379067 2402056 2430044 2459699 2484892 2499788 
1779.588 2501254 2491257 2475761 2462198 2455134 2455134 2459033 2462065 
1783.446 2460599 2454168 2444771 2436674 2433142 2435441 2442938 2454401 
1787.303 2469030 2487558 2510452 2537280 2564644 2586509 2595075 2583442 
1791.161 2549845 2498655 2440506 2387629 2349716 2329928 2325232 2329362 
1795.018 2335592 2340122 2341188 2338923 2334459 2327897 2319269 2308043 
1798.875 2294852 2281162 2269571 2261910 2259079 2259745 2262010 2264375 
1802.733 2266540 2270337 2278331 2292221 2312640 2338023 2365208 2391494 
1806.590 2414883 2435241 2453168 2469296 2483559 2495022 2502620 2506320 
1810.448 2507719 2509852 2515584 2526715 2542080 2558444 2572310 2580909 
1814.305 2584242 2584809 2586742 2593975 2608942 2631843 2660645 2692984 
1818.163 2727493 2764071 2803754 2847877 2896373 2948078 3000856 3052039 
1822.020 3099390 3141073 3175751 3202053 3219778 3229825 3235734 3242978 
1825.877 3257633 3284174 3323270 3371552 3421577 3464827 3494721 3509651 
1829.735 3514194 3517334 3529593 3557554 3601586 3657183 3717400 3776054 
1833.592 3829836 3878509 3924981 3972628 4024361 4081518 4144837 4214857 
1837.450 4293623 4384083 4489193 4610770 4748124 4898692 5058195 5222317 
1841.307 5388279 5553701 5717540 5879090 6038047 6195011 6351225 6508605 
1845.165 6668398 6829394 6987150 7134487 7262164 7361400 7426042 7454053 
1849.022 7447581 7411313 7349942 7266813 7162242 7035302 6885642 6715607 
1852.879 6530939 6339861 6149976 5966758 5792112 5625291 5464741 5310455 
1856.737 5164037 5028629 4906298 4796733 4696640 4600991 4505262 4407245 
1860.594 4308046 4210675 4118378 4032554 3952198 3875099 3799752 3727125 
1864.452 3660391 3604025 3560894 3530161 3507113 3484633 3455809 3418504 
1868.309 3375426 3333787 3301768 3284841 3283005 3292286 3306142 3319497 
1872.167 3329480 3335390 3337727 3336459 3330215 3317160 3295492 3265345 
1876.024 3228624 3188568 3148049 3108301 3068623 3027448 2983807 2938570 
1879.881 2894505 2854380 2819595 2788681 2757035 2719090 2671047 2612642 
1883.739 2548212 2484425 2428844 2386097 2357212 2339389 2328163 2319702 
1887.596 2311507 2302680 2293187 2282594 2270803 2257813 2244990 2235498 
1891.454 2233167 2240894 2258913 2284227 2311407 2335359 2353414 2366540 
1895.311 2378601 2394892 2417715 2446137 2474994 2498321 2511685 2514684 
1899.168 2510819 2505520 2503687 2507186 2515084 2524016 2531748 2538147 
1903.026 2545279 2556211 2572743 2593175 2614209 2630943 2640910 2644344 
1906.883 2645444 2648677 2657345 2671380 2686750 2698519 2702853 2699319 
1910.741 2690717 2681882 2676348 2675348 2677481 2680082 2681782 2683016 
1914.598 2685716 2691684 2699986 2706887 2707054 2695418 2671814 2641043 
1918.456 2611642 2591775 2585076 2588542 2594442 2593575 2579676 2552578 
1922.313 2518250 2486124 2464331 2457233 2463331 2477727 2495356 2513918 
1926.170 2533747 2556878 2584609 2615042 2644477 2669147 2687216 2701053 
1930.028 2715223 2734861 2761437 2791916 2818561 2833802 2833469 2819095 
1933.885 2797518 2777143 2764405 2760603 2762137 2762937 2759436 2752334 
1937.743 2746532 2748733 2762604 2786547 2814093 2836237 2845742 2840973 
1941.600 2825832 2808290 2795484 2791215 2794450 2801953 2811258 2823630 
1945.458 2843107 2873859 2917421 2970363 3024178 3070358 3102861 3121116 
1949.315 3130394 3137569 3148549 3164636 3182727 3197513 3205825 3208095 
1953.172 3208362 3211833 3220879 3232930 3242711 3243879 3234365 3217775 
1957.030 3202787 3198348 3209764 3234966 3264644 3287278 3294390 3284007 
1960.887 3261372 3236201 3216473 3206626 3205257 3209196 3216172 3226554 
1964.745 3243812 3270519 3305207 3340198 3364573 3367746 3345941 3304105 
1968.602 3254395 3209730 3180724 3170077 3173481 3184095 3196579 3210331 
1972.459 3229358 3257733 3295959 3340098 3382472 3417302 3444688 3472442 
1976.317 3512825 3576195 3664267 3765961 3861426 3931200 3960323 3946313 
1980.174 3896529 3824655 3744704 3665804 3592164 3524850 3465161 3414530 
1984.032 3377864 3357160 3351618 3356326 3363538 3366577 3363271 3356593 
1987.889 3352285 3356626 3369816 3387347 3401273 3403911 3393358 3375526 
1991.747 3361167 3362403 3386846 3433800 3496424 3564836 3629116 3684050 
1995.604 3728061 3760312 3779530 3783073 3766462 3729097 3674459 3611876 
1999.461 3553712 3510754 3487406 3481460 3483464 3482930 3473077 3454406 
2003.319 3433232 3419807 3423714 3449330 3495288 3556819 3626477 3698619 
2007.176 3768100 3829669 3877907 3905890 3908598 3885396 3841369 3786917 
2011.034 3735447 3698252 3681009 3683481 3700190 3725655 3756636 3793067 
2014.891 3836622 3887937 3943672 3997541 4043490 4078440 4105767 4134100 
2018.749 4173005 4228107 4297605 4373072 4442292 4495286 4529536 4549592 
2022.606 4565865 4587831 4619912 4659966 4701731 4737438 4763266 4780083 
2026.463 4791373 4801021 4808928 4810704 4800921 4776197 4737941 4694765 
2030.321 4657019 4635819 4637661 4663449 4710541 4776599 4860090 4961360 
2034.178 5081828 5216549 5356544 5489471 5602668 5689608 5751014 5794161 
2038.036 5828782 5862768 5897261 5928128 5947812 5950331 5934645 5905490 
2041.893 5871500 5841207 5819547 5806988 5801179 5799298 5801045 5810111 
2045.750 5831368 5868646 5922821 5990408 6064153 6136970 6202338 6254539 
2049.608 6290172 6306644 6301703 6276389 6235412 6187852 6146246 6124335 
2053.465 6132031 6171955 6237967 6317369 6395575 6459737 6504132 6529358 
2057.323 6541097 6544528 6543923 6539954 6531444 6517653 6500197 6482472 
2061.180 6469053 6462899 6463000 6465051 6463168 6452339 6430614 6399845 
2065.038 6364472 6329809 6299249 6273767 6252858 6234875 6218875 6204388 
2068.895 6191347 6178307 6163453 6144229 6120370 6093689 6068622 6050747 
2072.752 6044733 6052057 6069361 6090866 6110759 6124738 6132938 6138315 
2076.610 6145473 6158008 6176257 6198271 6220724 6241026 6258034 6273161 
2080.467 6287516 6301501 6314007 6322345 6324597 6320361 6312393 6305031 
2084.325 6302812 6307787 6319185 6333473 6345947 6352637 6352402 6345409 
2088.182 6333607 6318041 6298341 6273296 6241429 6203044 6160898 6119496 
2092.040 6084112 6058676 6045270 6043792 6053065 6072251 6099972 6135592 
2095.897 6176559 6218371 6255513 6282641 6296929 6299618 6296223 6294408 
2099.754 6300829 6318613 6346552 6379872 6412556 6440972 6464950 6487753 
2103.612 6513583 6546244 6586644 6633373 6683775 6735932 6789846 6846830 
2107.469 6909072 6977284 7050389 7125494 7199331 7269374 7335047 7396551 
2111.327 7454828 7509708 7559739 7603133 7638843 7667946 7694016 7721436 
2115.184 7753851 7792980 7837444 7883970 7929051 7970930 8010045 8049198 
2119.042 8091055 8136798 8185483 8234580 8280474 8321711 8358528 8393928 
2122.899 8431696 8475043 8525761 8583716 8648000 8717364 8792284 8872256 
2126.756 8957113 9044862 9131953 9213985 9287501 9350772 9404266 9451401 
2130.614 9495832 9542163 9593615 9652797 9722186 9803414 9897234 10002262 
2134.471 10114335 10225725 10328051 10414279 10480498 10529141 10565941 
2137.846 10598433 10632590 10670045 10709167 10745337 10774682 10794927 
2141.222 10807088 10813576 10816191 10815071 10808481 10793841 10770097 
2144.597 10738951 10703767 10668755 10634832 10599791 10558065 10503037 
2147.972 10430536 10341081 10240517 10135838 10033422 9935913 9841238 
2151.347 9745398 9644429 9537117 9426140 9315463 9207182 9100824 8993206 
2155.205 8880710 8766385 8660709 8581756 8552152 8588447 8694511 8855989 
2159.062 9044964 9228572 9377823 9477713 9524822 9526516 9494342 9438939 
2162.920 9369664 9292884 9213105 9134728 9060426 8990567 8922580 8852236 
2166.777 8773722 8684438 8584155 8477239 8369134 8263858 8162693 8063678 
2170.635 7963607 7859948 7755166 7654693 7567089 7500268 7458165 7439458 
2174.492 7438918 7447446 7455637 7456648 7443805 7412864 7361333 7288748 
2178.349 7198388 7098145 6999507 6915772 6857803 6830437 6830774 6849691 
2182.207 6873759 6891499 6896717 6887056 6864603 6831514 6788971 6736235 
2186.064 6672974 6600673 6524952 6454020 6396516 6356941 6335658 6326715 
2189.922 6322379 6315621 6303787 6288995 6275784 6268859 6269800 6276221 
2193.779 6283247 6287348 6287079 6284557 6284692 6291886 6307855 6331389 
2197.636 6358320 6384311 6406571 6425200 6441006 6455668 6469524 6481094 
2201.494 6488257 6489804 6486441 6480723 6475208 6471643 6468683 6463538 
2205.351 6452070 6432430 6405595 6374896 6344904 6320025 6301568 6289096 
2209.209 6280692 6275246 6273666 6278372 6291516 6313839 6343391 6375333 
2213.066 6404318 6426613 6441510 6451195 6458325 6465656 6473762 6480387 
2216.924 6482943 6480891 6474838 6468414 6465656 6468818 6477697 6489434 
2220.781 6500230 6506016 6506621 6502887 6497674 6492899 6488997 6484322 
2224.638 6477058 6465522 6450287 6433338 6417230 6403343 6391338 6379200 
2228.496 6365380 6349174 6332935 6320596 6315789 6320832 6334347 6352906 
2232.353 6371197 6385320 6394197 6399106 6403074 6409732 6420896 6436600 
2236.211 6456005 6477663 6501239 6526802 6554182 6582910 6610765 6634685 
2240.068 6652685 6664461 6671325 6676978 6685423 6699253 6719746 6745893 
2243.926 6776552 6810511 6848176 6890254 6937520 6989136 7042475 7093194 
2247.783 7136811 7169552 7190067 7198590 7196670 7186867 7171843 7154360 
2251.640 7138428 7128828 7129670 7144457 7173662 7213750 7258390 7299935 
2255.498 7331441 7349234 7353514 7346842 7332924 7315065 7293634 7268734 
2259.355 7239725 7207349 7174470 7144558 7121721 7108013 7103163 7104982 
2263.213 7110775 7118858 7128862 7141459 7157291 7175380 7192627 7205092 
2267.070 7208629 7202026 7186800 7167564 7149745 7138057 7134588 7138158 
2270.927 7145333 7152003 7155034 7152743 7145400 7134218 7120812 7106935 
2274.785 7093564 7082079 7074030 7070258 7071538 7077567 7087131 7097774 
2278.642 7108046 7116534 7122900 7127616 7131220 7134352 7137013 7139506 
2282.500 7142066 7146444 7153619 7165476 7181982 7201791 7222509 7241072 
2286.357 7255290 7264286 7269340 7272575 7276281 7281942 7289591 7298284 
2290.215 7306539 7313380 7319108 7324432 7331037 7339630 7350683 7364062 
2294.072 7378958 7395641 7414279 7435345 7459176 7485335 7512472 7539341 
2297.929 7564763 7588230 7610484 7632909 7656514 7682246 7709834 7738267 
2301.787 7766601 7794330 7821318 7848544 7877324 7908872 7944101 7983754 
2305.644 8028338 8078598 8134671 8196829 8264534 8336437 8410717 8485956 
2309.502 8561039 8635595 8710332 8785825 8862516 8939965 9017291 9092940 
2313.359 9166131 9236965 9306526 9376536 9448659 9524348 9603981 9687050 
2317.217 9772745 9860015 9948015 10036067 10123866 10211275 10298667 
2320.592 10386078 10472759 10556945 10634900 10700846 10748462 10772102 
2323.967 10768501 10739087 10689469 10630044 10572121 10526799 10502188 
2327.342 10501339 10522657 10560068 10606106 10652964 10694631 10727948 
2330.718 10751993 10768025 10778317 10786197 10794927 10807835 10827911 
2334.093 10856821 10895518 10942848 10996948 11055710 11117131 11180396 
2337.468 11245338 11311921 11379978 11448248 11514454 11576077 11630663 
2340.843 11676645 11713168 11739652 11755073 11756571 11739311 11697101 
2344.219 11623414 11513944 11369161 11196002 11008978 10827707 10673645 
2347.594 10568522 10528293 10562241 10672253 10852438 11089665 11364535 
2350.969 11657040 11946607 12217352 12460371 12673438 12859883 13024590 
2354.344 13172762 13307897 13432003 13546675 13653819 13755383 13852591 
2357.719 13945441 14031637 14107720 14170944 14219865 14255679 14281257 
2361.095 14299405 14311802 14317691 14314541 14299713 14271943 14232465 
2364.470 14184535 14132262 14079073 14026367 13973430 13918104 13858303 
2367.845 13792628 13721013 13643767 13561578 13474073 13380675 13281215 
2371.220 13176040 13066178 12954057 12841658 12730140 12619675 12509340 
2374.596 12398521 12286982 12176254 12068723 11967350 11874717 11792045 
2377.971 11719533 11656052 11600510 11551747 11509623 11474342 11446513 
2381.346 11426817 11415455 11412802 11418517 11432498 11454304 11482983 
2384.721 11517006 11554537 11593398 11631752 11668169 11701867 11732605 
2388.097 11760690 11785985 11809001 11830145 11850200 11870256 11891301 
2391.472 11913811 11937276 11960401 11981416 11998856 12012754 12024336 
2394.847 12036428 12052474 12074958 12105041 12142282 12185012 12231461 
2398.222 12280472 12331669 12385600 12442778 12502860 12565613 12629874 
2401.598 12695374 12762965 12834286 12911831 12997755 13092984 13196875 
2404.973 13307965 13424074 13543393 13665240 13789516 13916736 14047072 
2408.348 14180563 14316870 14456404 14599719 14747639 14900892 15058932 
2411.723 15219809 15380333 15536316 15684385 15822537 15950389 16068855 
2415.099 16179170 16281910 16376657 16462065 16536819 16600225 16652727 
2418.474 16696075 16732162 16763190 16790742 16815986 16840028 16863966 
2421.849 16889492 16918430 16951848 16990160 17032992 17079548 17129420 
2425.224 17183054 17242278 17309480 17387310 17477884 17582208 17700534 
2428.600 17832910 17979312 18139720 18314358 18502514 18703104 18913958 
2431.975 19133192 19359258 19591610 19831198 20079246 20336638 20603458 
2435.350 20878472 21159576 21444376 21730934 22018792 22308168 22600216 
2438.725 22896234 23197242 23504506 23818466 24139378 24467188 24801068 
2442.101 25139278 25479720 25819866 26157674 26492188 26823680 27153030 
2445.476 27481324 27808946 28135898 28461184 28783422 29102214 29416880 
2448.851 29727798 30034644 30337160 30633876 30923326 31204314 31476472 
2452.226 31740780 31998724 32252002 32501784 32748212 32990378 33226922 
2455.602 33456654 33678164 33890580 34092272 34281264 34455092 34611152 
2458.977 34746812 34860644 34952388 35022204 35070872 35098964 35107224 
2462.352 35096052 35067284 35023388 34968656 34908076 34846928 34789888 
2465.727 34740888 34703344 34679908 34673664 34688304 34727500 34795092 
2469.103 34893712 35024932 35188784 35384324 35609620 35862784 36141336 
2472.478 36442876 36764132 37101468 37450956 37808164 38169140 38529332 
2475.853 38884716 39230560 39561656 39873748 40162808 40426204 40663160 
2479.228 40873448 41057400 41214468 41343348 41441908 41507816 41539496 
2482.604 41537564 41503660 41441612 41355924 41250392 41128972 40994912 
2485.979 40850700 40698712 40541536 40380532 40216564 40049032 39876328 
2489.354 39695888 39505436 39302952 39087368 38858152 38614756 38356768 
2492.729 38083228 37792948 37484800 37158748 36814584 36453180 36075012 
2496.104 35679760 35267012 34835620 34385256 33916084 33430350 32931502 
2499.480 32423552 31911098 31398498 30888850 30384702 29888028 29400356 
2502.855 28922690 28455946 28000096 27554680 27119064 26692978 26277022 
2506.230 25872790 25482918 25109928 24755886 24421830 24107226 23810906 
2509.605 23531544 23268410 23021118 22790032 22575156 22376086 22191858 
2512.981 22021198 21863184 21717592 21585072 21466796 21363412 21274880 
2516.356 21200454 21138494 21087640 21047154 21017314 20998848 20992764 
2519.731 20999648 21018602 21048370 21087048 21132580 21183824 21240014 
2523.106 21300666 21365328 21433516 21504046 21575530 21646294 21714316 
2526.482 21777614 21834124 21881686 21918800 21944276 21958040 21960550 
2529.857 21952918 21935388 21908206 21870396 21820954 21758732 21684222 
2533.232 21598478 21504290 21404450 21301744 21198158 21094004 20989912 
2536.607 20885564 20781590 20679692 20581986 20490588 20407546 20333580 
2539.983 20268308 20210370 20157680 20108222 20059570 20009812 19957702 
2543.358 19902720 19845348 19786980 19729694 19675606 19626380 19582286 
2546.733 19542808 19506244 19470584 19434580 19397506 19359638 19322188 
2550.108 19285816 19251110 19217792 19185410 19153032 19120692 19088422 
2553.484 19056848 19026624 18998482 18972556 18948950 18927456 18907900 
2556.859 18890010 18873052 18856304 18838380 18818136 18794436 18766894 
2560.234 18735344 18699746 18660384 18617218 18569736 18517520 18460610 
2563.609 18400076 18337616 18275788 18216732 18162418 18113706 18070424 
2566.985 18032326 17999030 17970818 17948302 17932174 17923024 17920710 
2570.360 17924786 17933728 17946886 17963116 17982006 18003004 18025936 
2573.735 18050216 18075570 18101790 18129046 18158272 18190196 18225544 
2577.110 18264696 18306754 18350716 18395516 18440626 18486194 18533046 
2580.486 18582530 18635584 18692518 18753090 18816546 18881980 18949088 
2583.861 19017692 19088526 19161864 19237948 19316680 19397644 19480114 
2587.236 19564088 19649086 19735658 19824054 19915034 20008876 20105726 
2590.611 20205266 20306672 20408588 20509416 20607384 20700682 20788576 
2593.987 20870824 20948182 21021904 21093064 21162812 21231140 21297778 
2597.362 21362022 21423422 21482218 21539142 21595448 21652598 21711844 
2600.737 21774234 21840396 21910922 21986342 22067422 22154758 22248842 
2604.112 22349366 22455774 22567200 22682598 22801312 22923164 23048546 
2607.488 23178298 23313332 23454600 23602454 23756902 23917114 24081552 
2610.863 24247944 24414118 24577588 24736734 24890712 25039898 25184854 
2614.238 25326518 25465280 25601096 25732984 25859884 25981120 26096446 
2617.613 26206450 26312120 26414362 26513494 26609164 26700448 26786252 
2620.989 26865836 26939020 27006182 27068282 27126576 27181956 27235434 
2624.364 27287930 27340012 27392450 27445604 27499644 27554116 27608028 
2627.739 27660500 27710366 27757480 27801986 27844698 27886598 27928574 
2631.114 27970836 28013422 28055762 28097082 28136710 28173760 28207808 
2634.490 28238358 28265304 28288502 28308448 28326166 28342542 28358670 
2637.865 28375400 28393262 28412294 28432670 28454604 28478802 28506504 
2641.240 28538952 28577346 28622290 28673646 28730530 28791884 28856610 
2644.615 28923964 28993632 29065582 29140338 29218334 29300316 29386812 
2647.990 29478472 29575502 29677346 29783508 29892250 30001874 30110388 
2651.366 30216370 30319288 30419352 30517732 30615992 30715734 30818378 
2654.741 30924820 31035664 31151556 31272714 31399104 31530588 31666752 
2658.116 31806588 31949364 32093930 32239690 32386068 32532782 32679866 
2661.491 32827284 32975006 33123098 33271636 33420618 33570224 33720592 
2664.867 33871272 34022180 34172744 34322856 34472560 34622276 34772584 
2668.242 34924128 35077160 35231828 35387596 35544496 35702496 35861956 
2671.617 36023564 36188224 36356544 36528972 36705032 36884812 37067620 
2674.992 37253756 37442716 37634836 37829852 38027132 38225876 38425324 
2678.368 38624968 38824604 39024832 39226716 39431304 39639512 39852396 
2681.743 40070504 40294612 40525388 40763704 41010240 41265224 41528704 
2685.118 41800152 42078928 42364344 42656052 42954320 43259096 43570820 
2688.493 43889148 44213836 44543832 44878488 45217264 45559796 45906512 
2691.869 46257808 46614332 46976544 47344748 47719324 48100336 48487904 
2695.244 48882276 49283424 49691288 50105868 50526796 50953832 51386620 
2698.619 51824620 52267244 52713956 53164196 53617452 54073056 54531052 
2701.994 54990816 55451708 55912936 56372764 56829496 57281380 57726236 
2705.370 58162684 58589224 59004756 59408152 59798648 60175376 60537764 
2708.745 60885780 61219732 61540348 61848860 62145856 62432416 62709064 
2712.120 62976116 63233636 63481724 63719436 63946040 64160152 64359812 
2715.495 64543372 64709364 64856568 64984352 65092264 65180264 65248608 
2718.871 65298132 65330288 65347500 65353356 65351896 65348192 65346500 
2722.246 65351472 65366648 65394916 65439024 65501204 65583312 65686984 
2725.621 65813080 65962164 66133984 66327868 66543208 66779204 67034772 
2728.996 67309224 67600680 67907336 68226880 68556552 68893664 69235816 
2732.372 69580840 69927072 70272960 70616472 70955768 71289312 71615032 
2735.747 71932000 72238832 72534872 72819640 73092472 73353360 73602584 
2739.122 73841272 74070784 74293176 74510448 74724600 74937488 75150944 
2742.497 75367112 75588864 75819416 76062440 76320696 76595976 76888872 
2745.873 77198008 77521176 77855448 78197312 78543144 78888536 79228584 
2749.248 79557496 79869048 80157344 80416808 80643712 80835608 80992016 
2752.623 81113536 81201600 81258088 81284816 81283304 81254656 81198808 
2755.998 81114688 81000200 80852448 80668048 80444280 80179104 79871512 
2759.374 79521240 79128912 78695584 78222504 77711736 77166896 76591752 
2762.749 75992096 75374520 74745152 74110744 73477352 72850360 72235936 
2766.124 71639616 71067096 70523848 70014464 69542032 69108296 68714272 
2769.499 68359768 68044696 67769208 67532824 67335616 67176584 67053564 
2772.875 66963488 66902408 66865264 66847100 66842808 66847100 66855216 
2776.250 66862212 66863724 66855600 66834040 66795700 66737204 66655912 
2779.625 66548692 66413960 66251220 66061840 65849400 65619232 65378048 
2783.000 65132148 64887196 64646952 64413072 64185500 63963308 63744420 
2786.375 63526592 63307112 63083416 62852220 62610620 62355756 62085532 
2789.751 61798660 61495032 61175632 60842248 60497160 60143328 59784804 
2793.126 59425852 59072208 58729208 58402928 58099088 57821920 57574888 
2796.501 57360400 57179656 57033064 56921164 56843656 56800684 56791884 
2799.876 56817296 56876180 56967212 57088988 57239228 57414964 57612908 
2803.252 57829488 58061212 58305340 58558852 58819648 59085496 59354204 
2806.627 59623344 59889688 60149992 60400812 60638488 60858752 61057700 
2810.002 61231060 61373580 61481328 61550276 61577880 61563368 61507440 
2813.377 61412432 61280700 61115708 60921004 60700060 60457976 60200304 
2816.753 59933696 59666680 59407160 59163668 58944220 58755456 58603672 
2820.128 58493944 58430104 58414452 58447844 58528860 58653844 58817940 
2823.503 59014780 59236804 59476692 59727124 59980292 60228808 60465324 
2826.878 60683100 60876096 61039816 61170980 61268148 61331220 61361216 
2830.254 61360184 61331028 61277532 61203668 61114184 61013768 60905984 
2833.629 60794300 60681044 60567744 60456184 60348004 60245296 60150524 
2837.004 60066276 59995052 59939516 59902276 59886608 59896648 59937272 
2840.379 60014532 60135112 60305856 60534260 60828072 61195776 61647032 
2843.755 62192768 62844180 63612900 64507700 65532336 66682264 67941232 
2847.130 69280504 70653664 72002120 73258120 74345816 75197232 75756096 
2850.505 75985432 75873984 75435936 74708904 73743808 72602544 71350272 
2853.880 70044048 68736736 67471088 66277580 65177536 64182660 63295192 
2857.256 62510772 61819368 61208328 60662716 60168488 59712948 59284088 
2860.631 58872008 58468204 58064432 57654376 57232348 56794336 56338432 
2864.006 55864472 55375100 54874852 54370260 53870568 53384864 52924024 
2867.381 52498044 52115580 51783704 51507248 51288244 51126744 51020268 
2870.757 50963964 50950176 50969516 51011024 51062416 51113104 51153992 
2874.132 51178636 51184116 51170284 51138560 51090964 51029736 50956624 
2877.507 50872912 50780240 50680696 50576752 50470816 50365244 50261332 
2880.882 50160052 50061580 49966624 49876080 49791832 49715776 49650092 
2884.258 49596864 49556936 49530940 49518948 49520840 49536512 49565260 
2887.633 49606668 49659268 49721456 49791388 49867608 49949116 50035924 
2891.008 50128512 50227704 50334024 50447816 50568820 50696672 50830820 
2894.383 50971080 51117764 51271352 51432684 51602764 51782884 51974204 
2897.759 52178124 52395264 52626088 52870320 53126896 53394304 53671248 
2901.134 53956100 54248644 54548448 54855980 55171780 55496508 55830860 
2904.509 56176480 56535624 56911340 57307956 57730400 58183940 58674552 
2907.884 59208552 59792944 60436304 61147364 61935516 62809140 63773544 
2911.260 64829252 65970420 67184432 68449872 69737136 71012024 72233584 
2914.635 73359288 74350576 75172768 75802096 76227448 76450904 76486432 
2918.010 76356640 76089640 75713184 75250856 74721024 74133776 73492688 
2921.385 72796056 72040528 71223488 70346080 69414488 68441296 67444264 
2924.760 66442764 65457628 64507240 63605072 62760212 61976448 61253076 
2928.136 60585948 59968880 59394852 58856412 58347440 57863144 57401316 
2931.511 56962000 56548568 56166072 55820912 55519588 55267540 55068068 
2934.886 54922152 54828764 54784892 54786136 54827108 54901888 55003604 
2938.261 55125208 55260352 55402956 55548768 55694932 55840580 55985940 
2941.637 56131572 56278232 56425360 56570908 56711076 56839884 56950024 
2945.012 57032008 57076860 57075952 57022824 56915308 56756124 56553552 
2948.387 56319988 56071924 55827016 55601076 55407812 55256060 55149660 
2951.762 55087700 55065700 55076680 55112452 55165236 55228176 55296100 
2955.138 55365276 55433524 55499180 55561384 55618928 55670712 55716404 
2958.513 55755848 55790132 55820836 55850228 55880600 55913724 55951072 
2961.888 55993288 56040744 56093604 56151708 56215020 56282832 56353936 
2965.263 56426832 56499508 56570268 56638064 56702092 56762808 56820920 
2968.639 56877576 56933896 56991088 57050596 57113704 57181920 57256388 
2972.014 57337748 57425744 57519200 57616656 57716248 57816428 57916560 
2975.389 58016108 58114428 58210348 58301016 58381968 58447580 58491064 
2978.764 58506264 58488484 58435144 58346116 58224212 58074504 57903156 
2982.140 57717192 57523252 57326444 57130032 56934688 56738864 56538492 
2985.515 56328248 56102388 55855916 55585448 55290420 54972312 54634564 
2988.890 54280592 53913144 53532848 53137268 52722148 52282532 51814540 
2992.265 51317480 50794056 50251920 49700692 49150532 48610032 48084124 
2995.641 47573236 47073836 46579956 46085128 45583792 45072632 44551064 
2999.016 44020584 43484196 42944960 42406028 41869876 41338504 40813896 
3002.391 40297996 39792544 39299836 38821484 38358684 37912136 37481764 
3005.766 37066860 36666672 36280172 35906836 35545788 35196544 34858384 
3009.142 34530604 34211928 33901328 33597464 33299540 33006466 32717984 
3012.517 32433872 32154154 31878970 31608232 31341870 31079654 30821900 
3015.892 30568744 30320886 30079244 29844796 29618318 29399896 29189524 
3019.267 28986620 28790218 28599852 28415264 28236908 28065092 27901084 
3022.643 27745648 27599166 27462156 27335140 27218536 27113668 27022402 
3026.018 26946492 26887690 26846556 26822238 26811418 26808632 26806764 
3029.393 26796932 26770148 26718770 26636748 26520784 26370912 26189946 
3032.768 25982668 25755134 25513874 25264458 25011502 24758798 24508694 
3036.144 24262798 24021982 23786336 23555788 23329694 23107564 22889318 
3039.519 22674710 22464358 22258920 22059160 21865552 21678580 21498128 
3042.894 21324192 21156478 20994954 20839432 20689840 20545750 20406538 
3046.269 20271434 20140222 20012380 19888704 19769640 19656020 19548320 
3049.645 19446398 19349522 19256412 19165880 19076788 18988408 18900392 
3053.020 18812636 18725102 18637590 18549990 18462546 18375812 18290890 
3056.395 18209096 18132016 18060786 17996200 17938702 17888046 17843958 
3059.770 17805844 17772742 17743746 17717654 17693736 17671130 17650186 
3063.146 17631792 17617368 17608534 17606498 17611538 17622888 17638762 
3066.521 17656880 17674788 17690216 17701364 17706368 17703642 17691838 
3069.896 17669580 17635932 17590730 17534528 17468468 17394138 17313720 
3073.271 17229284 17143138 17057562 16974554 16895660 16821462 16751653 
3076.646 16684748 16618678 16551586 16482130 16410207 16336575 16262751 
3080.022 16189901 16118405 16047884 15977029 15905017 15831403 15757047 
3083.397 15683422 15612387 15545519 15483400 15425684 15372060 15321704 
3086.772 15274923 15232265 15194518 15162162 15134473 15110286 15087507 
3090.147 15064523 15040271 15014889 14989267 14964711 14942557 14923078 
3093.523 14906481 14892525 14880729 14871128 14864374 14860842 14860945 
3096.898 14864990 14872294 14882032 14893416 14905315 14916940 14927434 
3100.273 14936281 14943140 14948387 14952810 14957680 14964608 14974862 
3103.648 14989302 15007651 15028848 15051796 15075157 15097901 15119618 
3107.024 15139895 15158422 15174686 15187930 15197676 15204058 15207970 
3110.399 15211161 15215931 15224304 15237619 15256082 15278699 15303719 
3113.774 15329221 15353146 15373708 15390014 15401308 15407247 15408243 
3117.149 15404604 15397086 15386513 15373433 15357986 15340342 15320091 
3120.525 15297198 15272109 15245924 15220255 15196612 15176469 15160344 
3123.900 15147957 15138625 15131832 15127028 15124147 15123289 15124661 
3127.275 15127509 15130769 15133067 15132758 15128984 15121779 15111899 
3130.650 15100886 15090766 15082979 15078451 15077387 15079514 15084111 
3134.026 15090561 15098210 15107130 15117560 15130013 15145178 15163397 
3137.401 15184465 15207901 15232643 15257523 15281787 15304988 15327401 
3140.776 15349919 15373124 15397155 15422044 15446627 15469871 15490885 
3144.151 15509428 15526254 15542462 15559874 15579244 15601499 15626607 
3147.527 15654396 15684487 15716849 15751652 15788656 15828036 15868552 
3150.902 15909314 15949151 15987135 16023027 16057028 16089933 16122600 
3154.277 16155614 16189350 16224192 16260307 16297873 16337264 16378345 
3157.652 16420702 16463615 16506014 16546974 16586421 16624669 16662816 
3161.028 16702274 16744353 16789916 16839304 16892386 16948678 17007596 
3164.403 17068486 17130488 17192534 17253554 17312376 17368170 17420798 
3167.778 17471054 17519934 17568822 17618818 17670200 17723004 17776744 
3171.153 17830840 17885042 17939220 17993368 18047142 18099752 18150050 
3174.529 18197038 18239746 18278414 18313908 18348124 18383104 18420646 
3177.904 18462028 18507598 18557252 18610440 18666574 18725034 18785406 
3181.279 18847376 18910498 18974216 19038222 19101820 19164878 19227282 
3184.654 19288970 19350422 19412266 19475054 19539724 19607244 19678346 
3188.030 19753552 19832932 19916176 20002388 20090594 20179650 20268830 
3191.405 20357540 20445400 20532724 20619334 20705824 20792470 20879550 
3194.780 20967168 21055292 21143816 21232568 21321442 21410926 21501402 
3198.155 21593846 21688646 21786218 21886704 21989270 22093360 22197996 
3201.531 22302624 22406822 22510418 22613448 22715800 22817514 22918694 
3204.906 23019512 23120460 23222058 23324450 23427810 23531162 23633732 
3208.281 23734822 23834252 23932728 24031542 24132268 24236206 24343814 
3211.656 24454148 24566158 24677846 24788228 24896992 25004764 25112422 
3215.031 25220914 25330416 25440792 25551122 25660638 25768776 25875426 
3218.407 25981086 26086524 26192304 26299094 26407390 26517334 26629208 
3221.782 26742978 26858434 26974768 27091204 27206894 27321134 27433638 
3225.157 27544866 27655238 27765532 27875858 27986244 28096306 28205616 
3228.532 28314106 28421632 28528266 28633968 28738106 28840038 28938804 
3231.908 29033768 29125244 29214188 29301874 29389826 29478614 29568126 
3235.283 29657552 29745966 29832730 29918128 30003224 30089116 30176978 
3238.658 30267240 30359616 30453398 30547840 30642588 30737676 30833640 
3242.033 30930370 31027870 31125498 31222010 31317118 31410750 31503656 
3245.409 31597328 31693198 31792152 31894804 32000758 32109200 32219884 
3248.784 32332488 32447082 32564138 32683798 32805986 32930218 33055626 
3252.159 33181570 33307660 33433930 33560304 33687508 33815716 33944820 
3255.534 34074680 34204824 34334764 34464128 34592672 34720536 34848008 
3258.910 34975836 35104964 35235780 35368936 35504260 35641600 35780420 
3262.285 35920296 36060972 36202880 36346172 36491668 36639452 36789628 
3265.660 36942240 37096888 37253540 37412636 37574568 37740068 37909280 
3269.035 38082108 38257824 38435276 38613452 38791776 38969812 39147808 
3272.411 39326132 39505112 39685180 39866268 40048776 40232708 40418240 
3275.786 40606256 40797264 40991924 41190824 41394340 41602796 41816024 
3279.161 42033224 42253932 42476356 42699444 42922172 43144208 43366288 
3282.536 43589868 43817048 44049296 44287948 44533404 44784700 45040952 
3285.912 45301292 45564840 45831496 46101852 46375952 46654584 46938112 
3289.287 47226852 47521516 47822484 48130212 48444448 48764780 49090204 
3292.662 49419580 49752112 50087720 50427088 50771264 51120928 51476736 
3296.037 51838096 52204096 52573992 52947044 53323120 53703304 54088440 
3299.413 54478912 54875416 55277852 55685740 56099484 56519544 56947192 
3302.788 57383732 57830280 58287376 58754928 59232628 59719748 60216060 
3306.163 60721208 61235144 61757600 62288328 62826788 63372636 63925960 
3309.538 64487064 65056280 65633604 66218840 66811548 67411336 68017680 
3312.914 68631680 69254112 69886248 70529152 71183360 71848336 72523480 
3316.289 73207880 73901168 74603328 75314264 76033864 76761184 77494872 
3319.664 78233136 78974368 79717096 80460592 81204840 81949200 82693672 
3323.039 83438072 84182448 84927504 85674120 86423080 87174464 87926704 
3326.415 88677328 89421912 90156768 90878496 91584736 92274656 92947344 
3329.790 93601456 94235240 94845872 95430864 95988456 96518088 97020112 
3333.165 97495432 97943736 98363840 98753440 99110168 99432528 99720320 
3336.540 99974928 100197936 100390528 100552344 100681464 100774808 
3339.433 100829304 100842552 100813384 100741424 100627152 100470576 
3342.326 100271848 100030952 99747792 99422200 99054392 98643888 98188968 
3345.702 97688536 97141312 96546888 95907000 95225272 94506384 93755128 
3349.077 92975744 92170920 91341976 90489648 89614792 88718536 87802936 
3352.452 86870016 85921800 84960104 83986856 83004400 82015992 81025592 
3355.827 80037568 79055488 78081768 77117624 76163432 75219536 74287120 
3359.203 73368264 72465768 71582128 70718696 69874992 69049056 68238280 
3362.578 67440280 66654296 65880560 65120748 64377332 63651876 62945628 
3365.953 62258768 61590936 60941328 60309472 59694584 59096620 58514988 
3369.328 57948856 57397908 56861672 56339528 55830932 55334676 54849328 
3372.704 54372664 53902828 53438144 52978300 52524216 52076992 51638364 
3376.079 51209088 50789028 50376924 49971460 49571680 49176688 48787428 
3379.454 48404372 48028312 47659088 47295532 46935788 46578076 46220804 
3382.829 45863128 45504972 45146856 44789068 44432092 44076324 43722532 
3386.205 43371520 43024596 42682996 42347392 42017820 41693420 41373416 
3389.580 41056088 40740888 40427588 40116436 39808268 39503844 39203504 
3392.955 38907364 38614940 38325028 38037040 37749356 37460848 37170516 
3396.330 36878424 36585632 36294620 36008804 35731600 35465752 35211780 
3399.706 34968440 34732380 34499320 34265128 34027408 33785376 33540010 
3403.081 33293602 33048116 32805022 32564924 32327488 32091896 31857826 
3406.456 31625088 31394188 31165830 30940760 30719290 30501488 30287384 
3409.831 30076438 29868044 29661772 29456486 29251720 29046768 28841312 
3413.207 28636164 28431962 28230332 28032400 27838726 27649342 27463532 
3416.582 27279852 27097376 26914906 26732124 26548682 26364858 26181076 
3419.957 25998252 25817334 25639724 25466684 25299754 25139420 24985776 
3423.332 24838080 24694856 24554342 24415136 24275694 24135352 23993442 
3426.708 23849726 23704270 23557326 23409450 23261838 23115634 22971998 
3430.083 22831866 22694956 22560848 22428384 22296380 22164102 22031760 
3433.458 21900014 21769912 21642184 21517452 21395260 21274776 21155296 
3436.833 21035850 20916230 20796676 20677468 20559022 20441652 20325352 
3440.208 20209954 20095278 19981224 19867616 19754662 19642292 19530574 
3443.584 19419404 19308298 19196978 19084994 18971898 18857514 18742054 
3446.959 18625726 18509534 18393752 18279002 18165458 18052774 17940462 
3450.334 17828320 17716032 17603774 17491958 17381276 17271930 17163924 
3453.709 17057116 16950814 16845024 16739566 16634928 16531760 16430613 
3457.085 16331758 16234923 16139485 16044755 15950320 15855664 15760962 
3460.460 15666177 15571104 15475262 15377861 15278355 15176642 15072893 
3463.835 14967695 14862179 14757512 14654377 14553324 14454829 14358958 
3467.210 14265746 14175702 14088348 14003440 13920191 13837916 13755349 
3470.586 13672318 13588141 13502955 13416932 13329593 13240837 13150390 
3473.961 13058256 12964708 12871180 12779207 12690461 12605724 12525164 
3477.336 12447551 12371521 12294651 12215273 12131924 12044468 11952840 
3480.711 11858099 11761439 11664766 11570190 11479887 11395794 11319097 
3484.087 11249690 11186482 11126751 11066824 11003438 10933912 10856516 
3487.462 10771490 10680742 10587059 10493532 10403249 10318007 10238922 
3490.837 10165414 10096259 10029659 9963746 9897234 9829511 9760511 9691319 
3494.695 9622782 9555746 9491056 9428713 9368681 9310893 9255175 9200955 
3498.552 9147959 9094665 9039551 8980825 8916931 8847096 8771659 8692754 
3502.409 8612849 8534918 8461731 8394672 8334445 8280710 8232216 8188320 
3506.267 8147433 8107899 8067864 8025435 7978421 7926014 7868416 7807250 
3510.124 7745283 7686023 7631796 7584487 7544196 7509404 7478154 7448053 
3513.982 7416841 7382666 7344550 7301721 7253943 7201959 7147017 7091341 
3517.839 7037289 6987150 6943009 6905369 6873624 6846325 6821383 6796476 
3521.697 6769485 6739432 6705074 6666009 6622136 6573356 6520579 6464816 
3525.554 6408488 6353814 6303216 6258371 6219783 6186508 6156530 6127427 
3529.411 6097250 6064960 6030958 5996723 5964608 5936425 5913249 5894675 
3533.269 5878990 5863474 5845372 5822704 5794900 5762564 5727310 5691522 
3537.126 5657045 5624721 5594646 5566152 5538431 5511249 5484874 5460245 
3540.984 5438301 5419647 5403912 5389856 5375934 5359563 5338564 5311361 
3544.841 5277116 5236267 5189555 5140131 5091014 5045356 5006205 4974699 
3548.698 4950468 4930963 4912129 4889711 4860559 4822966 4777972 4728763 
3552.556 4679123 4632939 4592620 4558365 4529302 4503555 4479484 4456084 
3556.413 4432718 4409321 4385590 4360789 4333982 4304399 4271806 4237040 
3560.271 4201375 4166582 4134033 4104262 4077605 4052855 4028808 4003995 
3564.128 3976106 3942601 3901042 3849124 3786048 3712989 3634396 3556151 
3567.986 3484400 3423815 3376094 3339397 3309614 3281736 3251424 3216306 
3571.843 3175484 3130460 3083272 3036457 2991814 2950013 2911617 2875893 
3575.700 2842374 2810257 2778810 2746932 2713889 2679148 2642710 2605375 
3579.558 2568510 2534147 2503953 2478993 2459766 2445471 2434942 2426511 
3583.415 2418682 2409852 2398324 2382165 2359044 2326930 2284360 2231868 
3587.273 2171724 2108558 2048664 1996967 1957291 1930598 1914823 1906503 
3591.130 1900679 1892858 1879780 1859315 1831729 1798956 1764221 1730322 
3594.988 1700416 1675236 1654814 1638184 1623949 1611078 1598740 1586402 
3598.845 1573932 1561295 1547662 1533430 1518833 1504635 1492400 1483755 
3602.702 1479899 1481162 1486814 1494760 1502308 1505899 1502075 1487878 
3606.560 1461247 1421354 1369300 1308211 1242878 1178319 1119616 1068926 
3610.417 1026113 988618 952886 915530 875023 832461 791265 756180 731287 
3614.757 718774 717546 723885 732216 736697 732316 716186 688441 651871 
3619.096 611853 574128 543937 524563 517265 520748 533155 552331 576550 
3623.436 604785 636971 673142 712800 753823 792261 821274 832561 817191 
3627.776 769490 690299 589888 485154 395634 333522 301624 293998 300961 
3632.115 311803 317938 315053 302917 284582 265319 249836 240586 237602 
3636.455 238564 239989 238995 234055 225535 214496 203059 192783 184794 
3640.794 179093 175844 174982 177734 185059 198650 219071 246156 278149 
3645.134 311870 342906 366617 378190 373448 350003 307592 248410 177469 
3649.474 102959 33698 -20178 -50890 -54866 -32933 10404 66902 126988 181314 
3654.295 221391 241282 239492 218905 188076 157713 137229 132390 143626 
3658.635 167060 195634 222618 241680 249372 245658 233260 217015 202231 
3662.975 193579 193579 203391 222949 251725 289456 335910 390627 452681 
3667.314 519819 590286 664746 748944 855235 1002998 1213505 1501975 1875021 
3671.654 2328763 2853580 3436271 4060781 4705785 5331285 5876068 6264153 
3675.511 6420694 6306174 5933200 5356712 4648077 3874063 3093283 2351182 
3679.369 1685481 1125662 685885 363931 142566 -3015 -98463 -163253 -206972 
3683.708 -232240 -238300 -225054 -196473 -160571 -127083 -106015 -104194 
3687.566 -123704 -160869 -209356 -261117 -309229 -349986 -381966 -404808 
3691.423 -419009 -425199 -424835 -419837 -412587 -404974 -398353 -392361 
3695.281 -385475 -376471 -363593 -346278 -325254 -302077 -278799 -257905 
3699.138 -241811 -232803 -233333 -244725 -266812 -297541 -332339 -366142 
3702.995 -394049 -412852 -421492 -420962 -413514 -401134 -385641 -367930 
3706.853 -348297 -327605 -307044 -289461 -277673 -275223 -284329 -305852 
3710.710 -338597 -378954 -422452 -463430 -496792 -518966 -528696 -526445 
3714.568 -515028 -498116 -479416 -462503 -449032 -438539 -429138 -417751 
3718.425 -401763 -380245 -354753 -328432 -305090 -287905 -277574 -272806 
3722.282 -270124 -266349 -259097 -248500 -236380 -226080 -220086 -220384 
3726.140 -225716 -233631 -239791 -240420 -232803 -216708 -193724 -167195 
3729.997 -141790 -121651 -109792 -107407 -112839 -122512 -133609 -144672 
3733.855 -158020 -177959 -209224 -253567 -308666 -366539 -416460 -450687 
3737.712 -464522 -458498 -436685 -403848 -364122 -320188 -273832 -227107 
3741.570 -184418 -153383 -144208 -167029 -226345 -314394 -411329 -488617 
3745.427 -524294 -512512 -461709 -388256 -309494 -241546 -195380 -177032 
3749.284 -186902 -221113 -273203 -336114 -403782 -469851 -527240 -568969 
3753.142 -589683 -587731 -565858 -531376 -492787 -457902 -432846 -420135 
3756.999 -419241 -428211 -444298 -465482 -490835 -518767 -546533 -569366 
3760.857 -582139 -581642 -567248 -543157 -515193 -491000 -475610 -471539 
3764.714 -476338 -485241 -491960 -492225 -485903 -475411 -465813 -461444 
3768.572 -465383 -477530 -495369 -514267 -530450 -541039 -545540 -544812 
3772.429 -540874 -535513 -530218 -525419 -520985 -515557 -507846 -496527 
3776.286 -481568 -464357 -447807 -435295 -429900 -433177 -443570 -456943 
3780.144 -468527 -474187 -471738 -462536 -449396 -436255 -426656 -421889 
3784.001 -421988 -425762 -431820 -439069 -446980 -455254 -462967 -469156 
3787.859 -472002 -470546 -464655 -456347 -448105 -442478 -440724 -441353 
3791.716 -441353 -436752 -424537 -404576 -380046 -356243 -338928 -332703 
3795.573 -338199 -351906 -366804 -375080 -371406 -354224 -326976 -297210 
3799.431 -274925 -268766 -285024 -323301 -375180 -425729 -459293 -465383 
3803.288 -442015 -395672 -337107 -281084 -240618 -225451 -239327 -277243 
3807.146 -327505 -374451 -406530 -418546 -412323 -393818 -369353 -343431 
3811.003 -317241 -289197 -256646 -218629 -176667 -136292 -105088 -91307 
3814.861 -99655 -129302 -170805 -210350 -234095 -234558 -212171 -175376 
3818.718 -137219 -111614 -110355 -140333 -198957 -274561 -348529 -404510 
3822.575 -432581 -433375 -413878 -384846 -356442 -335783 -325055 -322307 
3826.433 -322837 -320188 -310321 -292475 -269395 -246016 -227571 -217702 
3830.290 -217238 -224259 -233929 -241181 -240983 -230220 -209257 -180344 
3834.148 -147686 -116483 -92202 -78951 -79978 -94984 -121750 -155768 -190677 
3838.487 -221577 -245056 -260951 -270786 -277408 -283567 -290951 -300057 
3842.345 -310355 -320652 -329492 -335187 -336180 -331214 -319791 -301779 
3846.202 -278071 -249891 -218464 -184749 -148448 -108500 -63579 -13187 41320 
3850.542 94641 138058 159934 147305 91890 -5533 -130396 -258766 -367069 
3854.881 -440624 -477497 -483686 -468428 -439830 -403848 -364586 -324691 
3858.739 -286614 -252838 -225153 -204852 -191373 -182960 -176965 -171269 
3862.596 -165274 -160769 -160206 -165439 -175740 -187266 -194254 -191108 
3866.454 -175508 -150369 -122644 -101941 -97933 -116583 -157192 -210913 
3870.311 -264064 -303600 -322837 -322837 -310222 -294229 -282574 -279263 
3874.168 -283501 -290720 -294329 -289064 -272640 -246712 -215384 -183855 
3878.026 -157192 -139206 -131588 -133509 -141459 -150733 -156265 -153747 
3881.883 -142188 -123506 -102239 -84847 -78752 -89088 -117874 -160968 
3885.741 -208594 -248599 -269892 -267044 -242076 -202004 -157192 -118537 
3889.598 -95316 -92500 -110620 -144175 -184418 -221411 -247043 -256547 
3893.456 -249262 -226544 -191008 -145930 -94885 -40885 11961 59943 99744 
3897.795 128479 144919 149327 143991 131727 115686 98154 79528 59479 36217 
3902.617 8482 -23822 -59073 -94620 -125824 -148713 -160471 -160206 -148978 
3906.957 -129501 -104823 -78686 -53475 -31476 -13518 662 11431 19880 27170 
3911.778 34261 42082 51294 62064 73762 84963 93282 96463 92619 81020 62793 
3917.082 40955 18986 596 -11861 -17660 -17328 -12126 -3677 7090 19383 32406 
3922.386 44799 54774 60374 59943 53514 41949 28231 15772 7455 4738 7985 
3927.690 15937 27038 40094 54243 68526 82843 95801 105611 110250 108593 
3932.512 100175 86256 69288 51659 35554 21968 10967 2418 -4340 -8912 -10403 
3937.816 -7918 -1457 8581 20278 31246 39497 43672 44070 42380 40657 41121 
3943.120 45329 53415 64947 78369 92254 105047 115686 123209 126921 126723 
3947.942 122513 114890 104649 93249 81616 70978 61931 54939 50333 48113 
3952.763 48113 49836 52189 54508 55602 55436 54442 54144 56165 61998 72238 
3958.067 86256 102031 117078 128943 136169 138422 136699 132821 128479 
3962.407 125231 123607 123342 123640 123441 121950 118901 114161 108494 
3966.747 103092 99247 97789 99579 104716 112372 121154 129639 136202 140212 
3971.568 141505 140444 138091 135373 132954 131263 130766 131794 134578 
3975.908 139980 147968 158442 170607 183137 194540 203689 209954 213435 
3980.248 214894 214960 214297 213269 211512 208695 204352 198451 191457 
3984.587 184231 177833 173458 172099 173855 178728 186120 194938 204153 
3988.927 213170 221557 229977 238862 248742 259948 271717 282493 290251 
3993.266 293633 291412 284051 273176 261008 249571 240719 234884 231602 
3997.606 230044 228983 227922 226497 224773 222817 220330 
##END=
