
##TITLE=1708_1_d
##JCAMP-DX=5.01  $$ Nicolet v. 1
##DATATYPE=INFRARED SPECTRUM
##ORIGIN=UniL
##OWNER=Nicolet
##LONGDATE=2011/09/08
##TIME=12:00:56
##SPECTROMETER/DATA SYSTEM=Nicolet iS5
##DATA PROCESSING=
Ratio against background
%Transmittance->Absorbance
Truncated
ElementMultiply or ElementDivide
##COMMENTS=
Number of sample scans: 32
Collection length: 51.15 sec
Sample gain: 2.0
Background collected on: Jeu Sep 08 11:48:24 2011 (GMT+02:00);
Number of background scans: 32
Background gain: 2.0
Sample spacing:  1.000
Number of scan points: 12415
Resolution points: 8192
Number of FFT points: 65536
Apodization: N-B fort;
Phase correction: Mertz;
Laser frequency: 15798.0 cm-1
Number of rejected sample scans: 0
Number of rejected background scans: 0
Bench serial number: ASB1000141;
##RESOLUTION=4.000
##XUNITS=1/CM
##YUNITS=ABSORBANCE
##FIRSTX=649.893372
##LASTX=4000.122314
##FIRSTY=0.101669
##MAXX=4000.122314
##MINX=649.893372
##MAXY=0.288621
##MINY=-0.001361
##XFACTOR=1.000000
##YFACTOR=1.000000E-009
##NPOINTS=6950
##DELTAX=0.482117
##ZPD=6100
##XYDATA=(X++(Y..Y))
649.893 101669192 101406808 101298600 101335040 101474064 101659056 
652.786 101836384 101978832 102088096 102188112 102307272 102463264 
655.679 102657496 102880288 103122432 103387152 103692976 104066416 
658.571 104529704 105085304 105716008 106389912 107077712 107766256 
661.464 108465768 109202704 110008800 110906168 111898856 112976016 
664.357 114120960 115317512 116544784 117769064 118919808 119865968 
667.250 120439112 120489704 119979864 119014800 117771624 116394096 
670.142 114940440 113398440 111727912 109897832 107914872 105829808 
673.035 103716408 101655960 99702896 97875080 96164600 94553752 93032096 
676.410 91603016 90278104 89066416 87964192 86953560 86008912 85107120 
679.785 84237232 83402736 82616200 81889744 81228088 80624960 80068408 
683.159 79545392 79049008 78580584 78145784 77748552 77386400 77048376 
686.534 76719232 76385680 76040928 75687384 75333768 74988952 74656168 
689.909 74329384 73995096 73638624 73249216 72824816 72371616 71902440 
693.284 71432088 70972896 70536952 70135320 69779776 69483856 69258432 
696.659 69106696 69018944 68969624 68921160 68826768 68643944 68344336 
700.034 67917952 67376704 66748096 66070712 65382400 64716324 64097092 
703.408 63538024 63043268 62610120 62231236 61897076 61597468 61323324 
706.783 61067732 60826928 60601112 60393388 60209592 60056380 59942900 
710.158 59880408 59883300 59971204 60164568 60479568 60920168 61468616 
713.533 62080180 62682344 63191676 63525372 63620880 63454272 63041084 
716.908 62435936 61713520 60965804 60288116 59768224 59496108 59553336 
720.282 60001140 60868476 62125096 63668372 65308376 66799684 67883624 
723.657 68323240 67980256 66839376 65020332 62737352 60256408 57837324 
727.032 55662916 53836244 52376384 51244432 50373204 49694860 49160548 
730.407 48737048 48405076 48150900 47958816 47812164 47696028 47598816 
733.782 47515456 47445596 47391492 47354872 47336620 47337172 47358052 
737.156 47401064 47468548 47560704 47674508 47804024 47943276 48089532 
740.531 48245124 48417668 48617000 48849940 49115984 49404880 49697196 
743.906 49969900 50197428 50356908 50429360 50398248 50250024 49974472 
747.281 49567712 49035632 48397076 47684676 46937820 46197772 45501148 
750.656 44871580 44321664 43854396 43466728 43154016 42912516 42739584 
754.031 42632952 42590152 42607404 42678572 42795528 42946936 43117712 
757.405 43290136 43447024 43573716 43662956 43717036 43748332 43774536 
760.780 43815288 43886692 43997192 44148100 44336820 44560388 44821176 
764.155 45130936 45512880 46007244 46670964 47569832 48776200 50345040 
767.530 52288776 54550292 56987576 59384216 61457012 62934824 63618808 
770.905 63435444 62474848 60973276 59267036 57674732 56437508 55652448 
774.279 55259224 55068820 54827936 54317088 53393740 52040984 50352368 
777.654 48502056 46684576 45058080 43732320 42747156 42088056 41705204 
781.029 41538076 41531876 41641340 41836456 42096960 42408512 42761812 
784.404 43151636 43576608 44038772 44542948 45094652 45699324 46363196 
787.779 47093780 47900172 48794992 49792764 50907964 52155296 53548140 
791.154 55099664 56825948 58746280 60883532 63263036 65906592 68826888 
794.528 72022808 75475912 79149032 82986632 86925176 90895568 94834128 
797.903 98700448 102486920 106233736 110024168 113982912 118245248 122911256 
801.278 128009112 133443896 138984992 144236784 148700256 151860528 
804.171 153245104 152574960 149827424 145267040 139379232 132770288 
807.063 126054496 119676632 113876960 108667256 103883256 99266600 94567264 
810.438 89640456 84469280 79167512 73917944 68930936 64379944 60365328 
813.813 56923620 54031476 51631796 49651876 48022540 46684760 45586700 
817.188 44686960 43951764 43353912 42875832 42507344 42243740 42082212 
820.563 42018660 42046508 42157928 42346152 42608644 42947848 43370604 
823.938 43885480 44499632 45216972 46037304 46955760 47962404 49041828 
827.312 50172880 51327848 52477852 53599008 54680408 55733616 56797396 
830.687 57941852 59255108 60840036 62800064 65212572 68116480 71482592 
834.062 75202640 79061376 82741416 85875080 88051064 88915664 88256576 
837.437 86038848 82435856 77777160 72508368 67074024 61848860 57120468 
840.812 53042988 49663836 46950148 44822680 43183368 41933040 40989088 
844.186 40280364 39747884 39348260 39047744 38824420 38667128 38570612 
847.561 38532124 38547584 38610124 38712116 38847612 39014972 39217216 
850.936 39459824 39747372 40081044 40457624 40871520 41318864 41799352 
854.311 42318576 42884976 43507416 44193000 44945400 45768056 46666976 
857.686 47653280 48746504 49973060 51363648 52954532 54785272 56896008 
861.060 59328908 62116264 65267944 68750832 72473448 76277528 79926040 
864.435 83146984 85660408 87214160 87650224 86919392 85098776 82367552 
867.810 78987720 75259920 71455600 67812936 64502360 61616900 59194388 
871.185 57225200 55673012 54486804 53614188 53008696 52627996 52437956 
874.560 52411712 52527356 52770408 53133976 53619060 54232688 54986300 
877.935 55889340 56944132 58138668 59440484 60798684 62140008 63377008 
881.309 64425336 65207636 65672920 65808260 65641044 65236136 64678332 
884.684 64064904 63480616 62985772 62617196 62386360 62288252 62311044 
888.059 62442940 62675760 63004076 63422368 63922808 64492868 65117708 
891.434 65781004 66467212 67163816 67859072 68541456 69199600 69820712 
894.809 70393696 70910480 71366552 71761864 72099432 72384888 72625968 
898.183 72832808 73019952 73204344 73403304 73631760 73896224 74193672 
901.558 74511040 74830168 75132784 75406920 75651776 75877696 76104720 
904.933 76356288 76658632 77035680 77507944 78094064 78809712 79667264 
908.308 80676144 81841976 83166560 84650112 86292512 88095216 90061520 
911.683 92196112 94503624 96988672 99657216 102519600 105595776 108915464 
915.058 112519912 116457512 120772144 125498040 130646872 136201728 
917.950 142104640 148249360 154481936 160573984 166238688 171154160 
920.843 174969184 177388928 178233344 177492016 175358944 172224448 
923.736 168657712 165277440 162711248 161510736 162031536 164417552 
926.628 168540768 174031280 180265232 186448080 191783696 195512080 
929.521 197088752 196269024 193089264 187827040 180883856 172724640 
932.414 163777536 154405808 144934160 135627200 126712320 118396880 
935.306 110840560 104166224 98457808 93752168 90056224 87353384 85612136 
938.681 84786880 84810400 85589216 86979744 88784624 90774592 92679016 
942.056 94235816 95233816 95522592 95050128 93859168 92079936 89894768 
945.431 87504784 85109416 82862776 80869736 79186720 77823896 76762528 
948.806 75967672 75403136 75034600 74833032 74775448 74839296 75002696 
952.181 75246288 75552744 75909504 76309872 76750312 77228408 77740504 
955.555 78280624 78842160 79419704 80011080 80617576 81242544 81888024 
958.930 82552720 83231616 83916872 84602248 85285064 85968000 86656624 
962.305 87357600 88074928 88809016 89556840 90314976 91081392 91856848 
965.680 92643488 93443240 94255496 95077144 95904192 96734064 97567768 
969.055 98410176 99268216 100146896 101048016 101968688 102904176 103850136 
972.429 104805536 105773408 106758608 107765704 108795952 109847400 
975.322 110916776 112002528 113106472 114233528 115389288 116575728 
978.215 117789224 119020552 120257168 121487368 122703664 123902128 
981.108 125079784 126231864 127347840 128414048 129416152 130344776 
984.000 131199416 131988792 132727968 133432208 134114784 134784592 
986.893 135447568 136110656 136784176 137479584 138209040 138979888 
989.786 139792688 140641536 141518352 142417136 143337184 144283120 
992.678 145261344 146276112 147326000 148404288 149501456 150610832 
995.571 151731136 152866400 154022864 155204384 156409232 157630384 
998.464 158858672 160087792 161317568 162554608 163808448 165087792 
1001.356 166398112 167741024 169117792 170532752 171995360 173517600 
1004.249 175111536 176782176 178527232 180337696 182203888 184120896 
1007.142 186091968 188126880 190236848 192428032 194697728 197033184 
1010.035 199416064 201827552 204249008 206661184 209040240 211351248 
1012.927 213550128 215591344 217435104 219061744 220476192 221707728 
1015.820 222798592 223794704 224739184 225665472 226601952 227576144 
1018.713 228613920 229740016 230972432 232318128 233773904 235331456 
1021.605 236986784 238747728 240636512 242683744 244921264 247369904 
1024.498 250034752 252905312 255961744 259182720 262543888 266016480 
1027.391 269558560 273100256 276549120 279789792 282691744 285133760 
1030.284 287002432 288194176 288621184 288200512 286863232 284572512 
1033.177 281333408 277208480 272308256 266788992 260825392 254583776 
1036.070 248228672 241906688 235746544 229875808 224407024 219435728 
1038.963 215044304 211286944 208194720 205775808 204013648 202862544 
1041.856 202233904 201995392 201950416 201839968 201387376 200304304 
1044.750 198352464 195398416 191422832 186532992 180925920 174868160 
1047.643 168637920 162480560 156608544 151167760 146240208 141857312 
1050.536 138004608 134638112 131694424 129107776 126816896 124768376 
1053.429 122923216 121250976 119726216 118326608 117028344 115807536 
1056.322 114643856 113520504 112427136 111357456 110307192 109270536 
1059.215 108240176 107207552 106166624 105117600 104067856 103032056 
1062.108 102028408 101076536 100193088 99390872 98679248 98063160 97542424 
1065.483 97108040 96740400 96405504 96055376 95637504 95098712 94397784 
1068.858 93515560 92456312 91248144 89934136 88569152 87207312 85894904 
1072.234 84670248 83557304 82567032 81699096 80943104 80282056 79694856 
1075.609 79161472 78665168 78193392 77738520 77295576 76859776 76426216 
1078.984 75989144 75544472 75092136 74637712 74192928 73772672 73394048 
1082.359 73072992 72821832 72651616 72571296 72589224 72714832 72956560 
1085.735 73321472 73814728 74438936 75194912 76082536 77100448 78244448 
1089.110 79504688 80864344 82297712 83773032 85260840 86736720 88188536 
1092.485 89616464 91029328 92436472 93840048 95229360 96581032 97866112 
1095.860 99057216 100142096 101131272 102063160 102996912 104002040 
1098.753 105143936 106457432 107932752 109498288 111029720 112352464 
1101.646 113267424 113601072 113221272 112074016 110190384 107681464 
1104.540 104714656 101473560 98149464 94905192 91859016 89093352 86646712 
1107.915 84524064 82705624 81156744 79834680 78692568 77687760 76781752 
1111.290 75940440 75137592 74350736 73561920 72758328 71931920 71080912 
1114.665 70210480 69332432 68463248 67620280 66820824 66078192 65401160 
1118.041 64794408 64258680 63792884 63393840 63056604 62775104 62541156 
1121.416 62346120 62180876 62036068 61901932 61766308 61611632 61415712 
1124.791 61149620 60782332 60287584 59647332 58858272 57933068 56900236 
1128.166 55798532 54668420 53550352 52475644 51463900 50524708 49657784 
1131.542 48856168 48109332 47406124 46736820 46094412 45475464 44880288 
1134.917 44312124 43775268 43274576 42813116 42392436 42012604 41673104 
1138.292 41374220 41116772 40902428 40732264 40606364 40522732 40478540 
1141.667 40470468 40496580 40556452 40650824 40780628 40945500 41143180 
1145.042 41369592 41619896 41889432 42174872 42473652 42783280 43100844 
1148.418 43422200 43742980 44059788 44371388 44678772 44985016 45293676 
1151.793 45607680 45928052 46254452 46586008 46922240 47263020 47608764 
1155.168 47958856 48311188 48661656 49004956 49335312 49647416 49936740 
1158.543 50198544 50428016 50618408 50761952 50851084 50879432 50842852 
1161.919 50740316 50572616 50341768 50050016 49699908 49294704 48838928 
1165.294 48340036 47806948 47249832 46679372 46105132 45534924 44976632 
1168.669 44437192 43924520 43447284 43013620 42630904 42304512 42036984 
1172.044 41829524 41682332 41596448 41574136 41618952 41734672 41925304 
1175.420 42194444 42545640 42984208 43517232 44153564 44903656 45777776 
1178.795 46784756 47932616 49228828 50681852 52303124 54105628 56104120 
1182.170 58313256 60744492 63405684 66299156 69420056 72750760 76254656 
1185.545 79874616 83520104 87071168 90392288 93328944 95734720 97490160 
1188.921 98504152 98733888 98183568 96905824 94990416 92554136 89733120 
1192.296 86656904 83445776 80206008 77016928 73940688 71021592 68285312 
1195.671 65746388 63407952 61265440 59308776 57524876 55900572 54423288 
1199.046 53082524 51871476 50784520 49818068 48968052 48229168 47594456 
1202.422 47055448 46602532 46227144 45921460 45677644 45488232 45343772 
1205.797 45232524 45142040 45059108 44972740 44875916 44765668 44642820 
1209.172 44510788 44374288 44238928 44110432 43996276 43905132 43846956 
1212.547 43832664 43872432 43974528 44146008 44391496 44714872 45118732 
1215.923 45604548 46171456 46815460 47529872 48305780 49134388 50009120 
1219.298 50926932 51888576 52897076 53957224 55073708 56251528 57496660 
1222.673 58816536 60219180 61712720 63301556 64984776 66753624 68592336 
1226.048 70479424 72387712 74288216 76149816 77938376 79622448 81172920 
1229.424 82567992 83798584 84868928 85798288 86616336 87363312 88086856 
1232.799 88836864 89671168 90650960 91837360 93294160 95078872 97238368 
1236.174 99809336 102814024 106261536 110148792 114461824 119173328 
1239.067 124237392 129592848 135158624 140835920 146526640 152131488 
1241.960 157558464 162730576 167573296 172012928 175976880 179385696 
1244.853 182160400 184228704 185521216 185979296 185557728 184227328 
1247.746 181984832 178857872 174907376 170216896 164879760 158988752 
1250.639 152619632 145834960 138692720 131253648 123595800 115820512 
1253.532 108040504 100384056 92980544 85940056 79359840 73308880 67822576 
1256.908 62909396 58550396 54708220 51332432 48368224 45763564 43467132 
1260.283 41435052 39630472 38021092 36582420 35295220 34143136 33112374 
1263.658 32189588 31360778 30613042 29935166 29318642 28758144 28250346 
1267.033 27792308 27379922 27007806 26670112 26362852 26085326 25840894 
1270.409 25635576 25476908 25371268 25322550 25333542 25406466 25545604 
1273.784 25758192 26053064 26438730 26920404 27496184 28154846 28873464 
1277.159 29620056 30351478 31017228 31568642 31959884 32158866 32154192 
1280.534 31955890 31594050 31110690 30554452 29968218 29383268 28819570 
1283.910 28285566 27783088 27312170 26873802 26470142 26104328 25777494 
1287.285 25489242 25237348 25019682 24835204 24683984 24566614 24481700 
1290.660 24425546 24392284 24375916 24372972 24384048 24414540 24471816 
1294.035 24562898 24692402 24862010 25071104 25320266 25612344 25953508 
1297.411 26352114 26816844 27355008 27972356 28673398 29461450 30337514 
1300.786 31297318 32325990 33393386 34456812 35457948 36334064 37029876 
1304.161 37501160 37725900 37704936 37461464 37035324 36476316 35842056 
1307.536 35187020 34559664 34000320 33533748 33170592 32907806 32732062 
1310.912 32625034 32568138 32546890 32551460 32575138 32612462 32656182 
1314.287 32697692 32728594 32741852 32733918 32704588 32655396 32587494 
1317.662 32500214 32391422 32258854 32102670 31926718 31737824 31543952 
1321.037 31351984 31165936 30987338 30817526 30659584 30519830 30407836 
1324.413 30333180 30304010 30324582 30396074 30518408 30692476 30920942 
1327.788 31207270 31552396 31952358 32395776 32866846 33348516 33826244 
1331.163 34291448 34741676 35177392 35598584 36001788 36378812 36719708 
1334.538 37014616 37257224 37446256 37585008 37680364 37740644 37776860 
1337.914 37802852 37835456 37896340 38008180 38189912 38454644 38805944 
1341.289 39239664 39747556 40321772 40956972 41650056 42399120 43201340 
1344.664 44052488 44948120 45885444 46862960 47879416 48926888 49983544 
1348.039 51011548 51952204 52732248 53280564 53531872 53444480 53007088 
1351.415 52239964 51192500 49933172 48547560 47121328 45733560 44454852 
1354.790 43335824 42407776 41682480 41154216 40805600 40613896 40558340 
1358.165 40621464 40789076 41049064 41387556 41789208 42240308 42731980 
1361.540 43264512 43846808 44493648 45216012 46012772 46866428 47743476 
1364.916 48599844 49382272 50037412 50513208 50759828 50740352 50434904 
1368.291 49847392 49006144 47960664 46772872 45500556 44194172 42889948 
1371.666 41608412 40364604 39173808 38058268 37051132 36189448 35502568 
1375.041 35003132 34681056 34511124 34462048 34510908 34650912 34894108 
1378.417 35268340 35813272 36579324 37620596 38996920 40767056 42969136 
1381.792 45600132 48584612 51772280 54922980 57738424 59922168 61186772 
1385.167 61317328 60212560 57918452 54651960 50760424 46677568 42788360 
1388.542 39354208 36500644 34225760 32455188 31084352 30014514 29163052 
1391.917 28466172 27882358 27385110 26962182 26613848 26347676 26172596 
1395.293 26092046 26100246 26183152 26324090 26506416 26717678 26951286 
1398.668 27204708 27478888 27776342 28099522 28448730 28822014 29213764 
1402.043 29616436 30020372 30415904 30795970 31157678 31501696 31830334 
1405.418 32144986 32444298 32725022 32985374 33227924 33461128 33699432 
1408.794 33959080 34253404 34590948 34973788 35400032 35867104 36374236 
1412.169 36921604 37507196 38123488 38755256 39382180 39986612 40560196 
1415.544 41109596 41658008 42242168 42906552 43692524 44629896 45723988 
1418.919 46946936 48239276 49522588 50721768 51774780 52642584 53311916 
1422.295 53794616 54133480 54400864 54695740 55113956 55725480 56557700 
1425.670 57593652 58791384 60104324 61502132 62969832 64504316 66104816 
1429.045 67765912 69478528 71237352 73051272 74945168 76949944 79092856 
1432.420 81383792 83815504 86369112 89032704 91816976 94756968 97906752 
1435.796 101313320 104988376 108880160 112890672 116917384 120883040 
1438.689 124741392 128452528 131963912 135177664 137949488 140120912 
1441.582 141521712 142010432 141500640 139960128 137423152 133984000 
1444.475 129803984 125088888 120058920 114950888 109975248 105309560 
1447.368 101100624 97438072 94346600 91775712 89622168 87756304 86061184 
1450.743 84471736 82986064 81663584 80589544 79845112 79466288 79430840 
1454.118 79660856 80043272 80461632 80806592 81016408 81100792 81152112 
1457.494 81306712 81684176 82364920 83377648 84723360 86390456 88355816 
1460.869 90580056 92997376 95524896 98045840 100408152 102449256 103999392 
1464.244 104931880 105208432 104899184 104159192 103163728 102075432 
1467.137 101010088 100036248 99196344 98508480 97969768 97552952 97203760 
1470.512 96844368 96381272 95739968 94896576 93902392 92868920 91927024 
1473.888 91179144 90673256 90419136 90411096 90645120 91125232 91854184 
1477.263 92820504 93988784 95299784 96684760 98070256 99398368 100638352 
1480.638 101788632 102878896 103959440 105094888 106348512 107782184 
1483.531 109463752 111464856 113862664 116726080 120092088 123934304 
1486.424 128130776 132470088 136629856 140205088 142776992 143932800 
1489.317 143366496 140968512 136866592 131417480 125091448 118369992 
1492.210 111615176 105032680 98720080 92687992 86924248 81452576 76343648 
1495.586 71724888 67753600 64560832 62211808 60689428 59922968 59815340 
1498.961 60272244 61216948 62579812 64291844 66283524 68473376 70773608 
1502.336 73098352 75341496 77379640 79062128 80172328 80437944 79555024 
1505.711 77279424 73590968 68805840 63505768 58258652 53408168 49039640 
1509.087 45085576 41442236 38037400 34844488 31882714 29190728 26796720 
1512.462 24710428 22915828 21380852 20068212 18942926 17974546 17133418 
1515.837 16391832 15729355 15135777 14615893 14183439 13849512 13612278 
1519.212 13451722 13332292 13217301 13083695 12939891 12823399 12782688 
1522.588 12846435 13008680 13236771 13488942 13734624 13962070 14183507 
1525.963 14425746 14718059 15074540 15489615 15943274 16414920 16892870 
1529.338 17377894 17880002 18410448 18974978 19572028 20195548 20841518 
1532.713 21514388 22227812 22997782 23827672 24704116 25598076 26478242 
1536.089 27314040 28083332 28775490 29384792 29911490 30357272 30722492 
1539.464 31003206 31194276 31299702 31334248 31319932 31275098 31203140 
1542.839 31091292 30913932 30647994 30284078 29837166 29342782 28845242 
1546.214 28377558 27947548 27539676 27124460 26675324 26181604 25657546 
1549.590 25136154 24657822 24247874 23907522 23616624 23347386 23078422 
1552.965 22804384 22537360 22299590 22110478 21974702 21878306 21792698 
1556.340 21683700 21514352 21249304 20864532 20361916 19788784 19230468 
1559.715 18773294 18459538 18282182 18205296 18185842 18186360 18176376 
1563.091 18138234 18068178 17978344 17891432 17831944 17815372 17840574 
1566.466 17891602 17944330 17978622 17984526 17967156 17943846 17938528 
1569.841 17970438 18045658 18159068 18299322 18455976 18620470 18785370 
1573.216 18941784 19075578 19170556 19213948 19205602 19164634 19127202 
1576.592 19132812 19202034 19329810 19491134 19656816 19802586 19914616 
1579.967 19990764 20036010 20058598 20064706 20057210 20036460 20003256 
1583.342 19960652 19914410 19870114 19829358 19787188 19734064 19658724 
1586.717 19554940 19425538 19282770 19144792 19031160 18958780 18938220 
1590.093 18976708 19079454 19250904 19492936 19800158 20156604 20532622 
1593.468 20888938 21186780 21393730 21493010 21486084 21390528 21233020 
1596.843 21041208 20842004 20657522 20506568 20408936 20383028 20445264 
1600.218 20607384 20873848 21242728 21708326 22264920 22906398 23624320 
1603.594 24404516 25221160 26036070 26804756 27476276 28002642 28346644 
1606.969 28482694 28402070 28113060 27639242 27014188 26275896 25466790 
1610.344 24628364 23799810 23017276 22305622 21676770 21128024 20644596 
1613.719 20204954 19785768 19368578 18943134 18511884 18091392 17710406 
1617.094 17400658 17184882 17071244 17052394 17109980 17218596 17351928 
1620.470 17487094 17607672 17710026 17804914 17916430 18071770 18290026 
1623.845 18574576 18913128 19285470 19674082 20070604 20474578 20889736 
1627.220 21318032 21755352 22191928 22616552 23021502 23405990 23774786 
1630.595 24133284 24482612 24817276 25124006 25385812 25586968 25715266 
1633.971 25767194 25749718 25683170 25595262 25515456 25464892 25449784 
1637.346 25463734 25491842 25516614 25518968 25482180 25395718 25257998 
1640.721 25078370 24873446 24662836 24459546 24265252 24069258 23851510 
1644.096 23588810 23261208 22860924 22396846 21899040 21410994 20978680 
1647.472 20637438 20401468 20265426 20210022 20209572 20232828 20241404 
1650.847 20190688 20027474 19704626 19211974 18613484 18042342 17623028 
1654.222 17402106 17340996 17368342 17416866 17443770 17428696 17367342 
1657.597 17266000 17134522 16981892 16811406 16621983 16409243 16169025 
1660.973 15900550 15607750 15299703 14989679 14693106 14423041 14188129 
1664.348 13990196 13823994 13677686 13535189 13378078 13187892 12950814 
1667.723 12660986 12324511 11959176 11590029 11243434 10937718 10680674 
1671.098 10469500 10294935 10143232 9998227 9843271 9662081 9444256 9191479 
1674.956 8922918 8670917 8467306 8330797 8258759 8233838 8232216 8234411 
1678.813 8231102 8223875 8222356 8237417 8273753 8325697 8378896 8414197 
1682.671 8418251 8393084 8363797 8370383 8450008 8614335 8846284 9115914 
1686.528 9396411 9672176 9936014 10186648 10425411 10653032 10869697 
1689.903 11076476 11276213 11474001 11674262 11878769 12082895 12275428 
1693.279 12439026 12555278 12610738 12607020 12564965 12523356 12520594 
1696.654 12572877 12667160 12767913 12833091 12821079 12705131 12487447 
1700.029 12210468 11944700 11750069 11647101 11614191 11610992 11596154 
1703.404 11539599 11425082 11248942 11021654 10763576 10499914 10250118 
1706.780 10024301 9822088 9636367 9457801 9277177 9089353 8892614 8689171 
1710.637 8483287 8279697 8081569 7889470 7701402 7514731 7327061 7138158 
1714.494 6949877 6764470 6582943 6404385 6227076 6052226 5887252 5747052 
1718.352 5648351 5601728 5606998 5653253 5724020 5801481 5871231 5926617 
1722.209 5967967 6002166 6038753 6086296 6148564 6223749 6306207 6389388 
1726.067 6468078 6538575 6597813 6643029 6670518 6677415 6663351 6632094 
1729.924 6589806 6542544 6491788 6430850 6344669 6212892 6019501 5764914 
1733.781 5476149 5200754 4987502 4859722 4808828 4805980 4818007 4819214 
1737.639 4793383 4737237 4657789 4571256 4494549 4439246 4409287 4400652 
1741.496 4406643 4420702 4439280 4460302 4482598 4504727 4525217 4542761 
1745.354 4557125 4569147 4579426 4588267 4593323 4590945 4576714 4547114 
1749.211 4500843 4439915 4369859 4297773 4231587 4178592 4143098 4126172 
1753.069 4125101 4134501 4146677 4152531 4144235 4117174 4072554 4017940 
1756.926 3965272 3925784 3904787 3899437 3900474 3895593 3873829 3829401 
1760.783 3763822 3686155 3609604 3545394 3500733 3476183 3467232 3467466 
1764.641 3470806 3471807 3465695 3449163 3419506 3377496 3327076 3275493 
1768.498 3230026 3194609 3168141 3143476 3111571 3064252 3000322 2928296 
1772.356 2864520 2826232 2822697 2851979 2903045 2962423 3018172 3064853 
1776.213 3102494 3134799 3165237 3194843 3220646 3238171 3243412 3236669 
1780.071 3222314 3208695 3203121 3208495 3222582 3238638 3249888 3251390 
1783.928 3243378 3229391 3215639 3206793 3204590 3208095 3214704 3222949 
1787.785 3232529 3243879 3256898 3268583 3273624 3265712 3239372 3195043 
1791.643 3138904 3083106 3039660 3016370 3013468 3025312 3043364 3060114 
1795.500 3072194 3078334 3079802 3077266 3071193 3060648 3045166 3025813 
1799.358 3005594 2988945 2980204 2981405 2991748 3008430 3028148 3048802 
1803.215 3070091 3093217 3119013 3146981 3175384 3201218 3222682 3239172 
1807.073 3252358 3264744 3277764 3291385 3303838 3312485 3315624 3314422 
1810.930 3312218 3313654 3322368 3338462 3359531 3381236 3399503 3412894 
1814.787 3422345 3431596 3444621 3464059 3490412 3521543 3554881 3588523 
1818.645 3621666 3655647 3691802 3730501 3771676 3813156 3853002 3889475 
1822.502 3921236 3947517 3967780 3982426 3992224 4000049 4009914 4025665 
1826.360 4049978 4082354 4118813 4152966 4178424 4191538 4194516 4195721 
1830.217 4205891 4235468 4288235 4360554 4443196 4525820 4599853 4661272 
1834.074 4711378 4754523 4797001 4843706 4897217 4958478 5027657 5105832 
1837.932 5195221 5298682 5417769 5552056 5698269 5851350 6005592 6156832 
1841.789 6301669 6438685 6568108 6692355 6815156 6941561 7076960 7224059 
1845.647 7382329 7546219 7707169 7854077 7975925 8064354 8114955 8127818 
1849.504 8106245 8055476 7980514 7884037 7768355 7635640 7489346 7334676 
1853.362 7177502 7021900 6869753 6719645 6568949 6415818 6260690 6106895 
1857.219 5959401 5822066 5696423 5580717 5471552 5366205 5263936 5166954 
1861.076 5078509 5000909 4933811 4873661 4815629 4756231 4694664 4633274 
1864.934 4575877 4525049 4479384 4434961 4385590 4327355 4261934 4197560 
1868.791 4146142 4119114 4122124 4152331 4201107 4256648 4309418 4353259 
1872.649 4385422 4405371 4413170 4408350 4390309 4359584 4318587 4271738 
1876.506 4224226 4179896 4138983 4098710 4054360 4002155 3940896 3874197 
1880.364 3807206 3745941 3694075 3651369 3614716 3580438 3545995 3511889 
1884.221 3480659 3455442 3437307 3425017 3414831 3402141 3384442 3361435 
1888.078 3335190 3309347 3287779 3273357 3267982 3273090 3289682 3318529 
1891.936 3358363 3405681 3454006 3495322 3523013 3534170 3530629 3518837 
1895.793 3506678 3500867 3503572 3513159 3525785 3538245 3549570 3562231 
1899.651 3579335 3603022 3632424 3663499 3690833 3710549 3721745 3726624 
1903.508 3729732 3734143 3740794 3747879 3752258 3751489 3746141 3739324 
1907.365 3735380 3738087 3748280 3763888 3782037 3799752 3815964 3832042 
1911.223 3849726 3869549 3890678 3910370 3926853 3939893 3951529 3964135 
1915.080 3979316 3995300 4006503 4006871 3991722 3961861 3924413 3890177 
1918.938 3867544 3860356 3864067 3869750 3867042 3850528 3820577 3785045 
1922.795 3754263 3736182 3733676 3743334 3758340 3772745 3784778 3796209 
1926.653 3811184 3832343 3858283 3883758 3902279 3909300 3904854 3893386 
1930.510 3881518 3875300 3876604 3883925 3894255 3906626 3922473 3945678 
1934.367 3979818 4024260 4073156 4117240 4147279 4158352 4153167 4140623 
1938.225 4130988 4132293 4146142 4167652 4188795 4202312 4206025 4203282 
1942.082 4201140 4205088 4217099 4234498 4252599 4268693 4284688 4305536 
1945.940 4337964 4385824 4446978 4514503 4579694 4636321 4683276 4724575 
1949.797 4766281 4812647 4863105 4912297 4952780 4979056 4990083 4989580 
1953.655 4983849 4977849 4972587 4965951 4954087 4934917 4911693 4890247 
1957.512 4877615 4879256 4894235 4917256 4942190 4964376 4984083 5005635 
1961.369 5033724 5069726 5110895 5149888 5179495 5197233 5205851 5212860 
1965.227 5226911 5252566 5287782 5325751 5358288 5379087 5387575 5386736 
1969.084 5379523 5367077 5345978 5311697 5262259 5202699 5143584 5099965 
1972.942 5084946 5103083 5149451 5213732 5284227 5355169 5428706 5511819 
1976.799 5610287 5721905 5834424 5929035 5989467 6006365 5981640 5926113 
1980.656 5854406 5778043 5702701 5629050 5555244 5483464 5419043 5370835 
1984.514 5346112 5347420 5369224 5401161 5430014 5447864 5451555 5445180 
1988.371 5433638 5420889 5406496 5386937 5358456 5321793 5281409 5247938 
1992.229 5231472 5237810 5266317 5311160 5363857 5417500 5469170 5518900 
1996.086 5566588 5610958 5647479 5669802 5673931 5660436 5635495 5608273 
1999.944 5587934 5578905 5579946 5585517 5587900 5583872 5573837 5561822 
2003.801 5554204 5554640 5562426 5575616 5591156 5608508 5630427 5661410 
2007.658 5702164 5749872 5795538 5829051 5842853 5836506 5815283 5791139 
2011.516 5774249 5770891 5780662 5799063 5819211 5838420 5857630 5880333 
2015.373 5911435 5952582 6001662 6054140 6106861 6158613 6211951 6270540 
2019.231 6334952 6402367 6466127 6518864 6556873 6581699 6600740 6622540 
2023.088 6653661 6693634 6736841 6775980 6803477 6817512 6821551 6821686 
2026.946 6823133 6827643 6833096 6835452 6833466 6828451 6825725 6830774 
2030.803 6846224 6871032 6900252 6929440 6958664 6992907 7042206 7113099 
2034.660 7207854 7319513 7435076 7541364 7629637 7699311 7757224 7813154 
2038.518 7872363 7935091 7993406 8036338 8053890 8041806 8002316 7943190 
2042.375 7874118 7802763 7734591 7672904 7620971 7583543 7566685 7575451 
2046.233 7611091 7670847 7746598 7827087 7902866 7965226 8008425 8029317 
2050.090 8025267 7996343 7945350 7879382 7810185 7751523 7717490 7715399 
2053.948 7744811 7795882 7853638 7903979 7937352 7953179 7957600 7960367 
2057.805 7968534 7984800 8006502 8028170 8044708 8053991 8057097 8056894 
2061.662 8055510 8052708 8045822 8032760 8012543 7987838 7962763 7941233 
2065.520 7924158 7908265 7887581 7855865 7810894 7754694 7694421 7637967 
2069.377 7591568 7558255 7537150 7525856 7522181 7526833 7541971 7568640 
2073.235 7605696 7647611 7685248 7711116 7719851 7711925 7692870 7670847 
2077.092 7653007 7643362 7641980 7646262 7653412 7662247 7673342 7687811 
2080.949 7706360 7727204 7747206 7763093 7772875 7777193 7778947 7781072 
2084.807 7785897 7793554 7801650 7807790 7810657 7810489 7809241 7808802 
2088.664 7809544 7809848 7806913 7798681 7784986 7768659 7753851 7744440 
2092.522 7742281 7745992 7752029 7757392 7760597 7763026 7768288 7780094 
2096.379 7799424 7824860 7852019 7875941 7894329 7907354 7917240 7927161 
2100.237 7938533 7951086 7963235 7973832 7983518 7996140 8016593 8048793 
2104.094 8094059 8150269 8212733 8277097 8340423 8402306 8464333 8527923 
2107.951 8592097 8653983 8709588 8756411 8795395 8831338 8870902 8920178 
2111.809 8981704 9052780 9126641 9195946 9254904 9301921 9339227 9370950 
2115.666 9401355 9432777 9464574 9494748 9521740 9545280 9566653 9588263 
2119.524 9612653 9640432 9672414 9708464 9749329 9797010 9853677 9920658 
2123.381 9997413 10080660 10166364 10250321 10330460 10406610 10480599 
2126.756 10553890 10626750 10698027 10765783 10828556 10887364 10945159 
2130.132 11006089 11074166 11151874 11238129 11331476 11429810 11532182 
2133.507 11638490 11749047 11862219 11974196 12078944 12171109 12247445 
2136.882 12309649 12362282 12411171 12460679 12511147 12559166 12600301 
2140.257 12631205 12651604 12665147 12675655 12685855 12694146 12694760 
2143.633 12681079 12648397 12597640 12534713 12469238 12410625 12363612 
2147.008 12328022 12298980 12270315 12238073 12200347 12156968 12108210 
2150.383 12052133 11984175 11900768 11800965 11688524 11572402 11462673 
2153.758 11365794 11282845 11208378 11133720 11054248 10973363 10904250 
2157.134 10866367 10878054 10947028 11065362 11211472 11358209 11480194 
2160.509 11562193 11600034 11597414 11562670 11502921 11425388 11337020 
2163.884 11245644 11160848 11090923 11040415 11006701 10982029 10952737 
2167.259 10905948 10834060 10735317 10614255 10479242 10338909 10200250 
2170.635 10066926 9942184 9828223 9727913 9644328 9578677 9530275 9495866 
2174.492 9470263 9449403 9431050 9414356 9398714 9381513 9356967 9317799 
2178.349 9257748 9174896 9074466 8967666 8868130 8788497 8735822 8709487 
2182.207 8703166 8708033 8716045 8721589 8722333 8716553 8702422 8678285 
2186.064 8642795 8597234 8547015 8499371 8461630 8438758 8430008 8429872 
2189.922 8430920 8427034 8415650 8399266 8382848 8371363 8367039 8368999 
2193.779 8373120 8377173 8379301 8381024 8384773 8392915 8403522 8413690 
2197.636 8418859 8415853 8405515 8392070 8381395 8378254 8384638 8397036 
2201.494 8410144 8417778 8415548 8402069 8378423 8346874 8309181 8266289 
2205.351 8219418 8170729 8123969 8084000 8055206 8040388 8037890 8044169 
2209.209 8054261 8065164 8076337 8090143 8109993 8137271 8171370 8207397 
2213.066 8240287 8265411 8281352 8290301 8296076 8302324 8311106 8322116 
2216.924 8333668 8343429 8350826 8355926 8359068 8360824 8359980 8354778 
2220.781 8344307 8329378 8312287 8296954 8285607 8277873 8269937 8255956 
2224.638 8230798 8192541 8143922 8091156 8042008 8002755 7975587 7959051 
2228.496 7949838 7944641 7941873 7942954 7949804 7963437 7982977 8004645 
2232.353 8023714 8037114 8043966 8046329 8048050 8052641 8061924 8075595 
2236.211 8092000 8109385 8127277 8146150 8166508 8188522 8210504 8229684 
2240.068 8244306 8253592 8259332 8264669 8273010 8285100 8300163 8314382 
2243.926 8324244 8327993 8327082 8325359 8328128 8339815 8360993 8390279 
2247.783 8423588 8456968 8487984 8515690 8540561 8563203 8583074 8598654 
2251.640 8608218 8610888 8607474 8600716 8593821 8589258 8587298 8586352 
2255.498 8583648 8576180 8562560 8543129 8519205 8492917 8465414 8437338 
2259.355 8408758 8379639 8350927 8323265 8297731 8274766 8253727 8234208 
2263.213 8215805 8199800 8188489 8184336 8189265 8202839 8221951 8241874 
2267.070 8257307 8264838 8263892 8256732 8246736 8238092 8233601 8233533 
2270.927 8236741 8241165 8244204 8244036 8239577 8230393 8216751 8200003 
2274.785 8181499 8163875 8149627 8140815 8138216 8141288 8147770 8155029 
2278.642 8161207 8165327 8168332 8171472 8176435 8183458 8192101 8200914 
2282.500 8208343 8213780 8216954 8218439 8218338 8216379 8211618 8203650 
2286.357 8192001 8178123 8164179 8152767 8145880 8144259 8146623 8151451 
2290.215 8156751 8161579 8165597 8169682 8174477 8180082 8185788 8190751 
2294.072 8194228 8196525 8199024 8203143 8210268 8220836 8233871 8247783 
2297.929 8260954 8272875 8283715 8294185 8305060 8316307 8326675 8335052 
2301.787 8340186 8342348 8342956 8344239 8348799 8357987 8371802 8389266 
2305.644 8408623 8428555 8448622 8469164 8491059 8515150 8541981 8571482 
2309.502 8603656 8638299 8675209 8714288 8754923 8795225 8833468 8867251 
2313.359 8895523 8918386 8937766 8955895 8975581 8998584 9024734 9053186 
2317.217 9081706 9108504 9132968 9154930 9175912 9197435 9221160 9247256 
2321.074 9274773 9301346 9323282 9336079 9335774 9319321 9286113 9238286 
2324.931 9180717 9120245 9064181 9018644 8987861 8972673 8971184 8979268 
2328.789 8992495 9007075 9019997 9030518 9038705 9045065 9050648 9056467 
2332.646 9063538 9073654 9088473 9108977 9135676 9167857 9203730 9241366 
2336.504 9279275 9316511 9353074 9389572 9426140 9462643 9498507 9533154 
2340.361 9566551 9599578 9633080 9668043 9703754 9737739 9765526 9781691 
2344.219 9781725 9763968 9730556 9687660 9644938 9612958 9601136 9616278 
2348.076 9661708 9736723 9837035 9956423 10086425 10217754 10342404 10454396 
2351.933 10551038 10632794 10702442 10763474 10817992 10866503 10908395 
2355.309 10942543 10969354 10990865 11010507 11032258 11058667 11090753 
2358.684 11128111 11169042 11212050 11255947 11299542 11341952 11381372 
2362.059 11415557 11442635 11461720 11473151 11479070 11482473 11485467 
2365.434 11489618 11495300 11502036 11509351 11518197 11528813 11541436 
2368.810 11555456 11568217 11576383 11577166 11569407 11554332 11535652 
2372.185 11517448 11503499 11495572 11493020 11493870 11496150 11498566 
2375.560 11501628 11506425 11514795 11527554 11544771 11565596 11589246 
2378.935 11615518 11645195 11679198 11718716 11763992 11814380 11868485 
2382.311 11925016 11983392 12043480 12105688 12169984 12235585 12300650 
2385.686 12363066 12420854 12473398 12521139 12565851 12609237 12652013 
2389.061 12693975 12733689 12769414 12800023 12825857 12847903 12868006 
2392.436 12887802 12908179 12928898 12949585 12969829 12989664 13009875 
2395.812 13031282 13054910 13080964 13109341 13140179 13173444 13209479 
2399.187 13249137 13293035 13341859 13395471 13453875 13517208 13585611 
2402.562 13660179 13741429 13829741 13924913 14025684 14131030 14239929 
2405.937 14352074 14467195 14585636 14707158 14830705 14955794 15082052 
2409.313 15210371 15342814 15482163 15630420 15787935 15952554 16119780 
2412.688 16284285 16440798 16586076 16718699 16839546 16949540 17049876 
2416.063 17140552 17220664 17289514 17347444 17395312 17435560 17470778 
2419.438 17503030 17533804 17563646 17592558 17621026 17649770 17680036 
2422.813 17712924 17749616 17790450 17835776 17886216 17943018 18007630 
2426.189 18082132 18168016 18265732 18375328 18496430 18628598 18772154 
2429.564 18927906 19096212 19277158 19469440 19671238 19880346 20095208 
2432.939 20315526 20542140 20776238 21019052 21270564 21529916 21795380 
2436.314 22065678 22340610 22620880 22907620 23202274 23505032 23815210 
2439.690 24131428 24452290 24776232 25103014 25431972 25762694 26094544 
2443.065 26426686 26758802 27091026 27424602 27761472 28103020 28449898 
2446.440 28801018 29154158 29505990 29853244 30194242 30527756 30853560 
2449.815 31171882 31482246 31783808 32076128 32358936 32632142 32897546 
2453.191 33157036 33412244 33664520 33914332 34160948 34402936 34638388 
2456.566 34865060 35080608 35282532 35468412 35636276 35784596 35912520 
2459.941 36019356 36104896 36168488 36209436 36227084 36221680 36194812 
2463.316 36149656 36090784 36023708 35954272 35887544 35828132 35779916 
2466.692 35747068 35733576 35744084 35782580 35852676 35956720 36095032 
2470.067 36266632 36469796 36702148 36961468 37245420 37551196 37875800 
2473.442 38215416 38565656 38922332 39281480 39639364 39992388 40336716 
2476.817 40668508 40983404 41277612 41547808 41791908 42008296 42196196 
2480.193 42354552 42482168 42577616 42640040 42669580 42667972 42637668 
2483.568 42582480 42505844 42410960 42300132 42175456 42038848 41892644 
2486.943 41739560 41581904 41421348 41258448 41091932 40919284 40737176 
2490.318 40542340 40332204 40104844 39859912 39597040 39316992 39019976 
2493.694 38705920 38375296 38027892 37663200 37281376 36881780 36464496 
2497.069 36029832 35578872 35112796 34633940 34145176 33649480 33150208 
2500.444 32650538 32153264 31660620 31174018 30693862 30220348 29753098 
2503.819 29291738 28836426 28388416 27949634 27522942 27111730 26718876 
2507.195 26346268 25995226 25665102 25354934 25063416 24788756 24529836 
2510.570 24285786 24055496 23838070 23633206 23440680 23260962 23095474 
2513.945 22945764 22813220 22698448 22601054 22519422 22452042 22397370 
2517.320 22354876 22324772 22307436 22303008 22310402 22327318 22350726 
2520.696 22378112 22408148 22440770 22477582 22520854 22572400 22632678 
2524.071 22700614 22773516 22848072 22920406 22987476 23046868 23097010 
2527.446 23136952 23166378 23185182 23193222 23190390 23175886 23149184 
2530.821 23109172 23055464 22988558 22909716 22821600 22726798 22628316 
2534.197 22527728 22426082 22323238 22219478 22114836 22010776 21909286 
2537.572 21812764 21722748 21640164 21564422 21494160 21428260 21365500 
2540.947 21305536 21248434 21193984 21141556 21090074 21038564 20985946 
2544.322 20932364 20878506 20825632 20774710 20726084 20678892 20632018 
2547.698 20584488 20535712 20486700 20439324 20395080 20355490 20320838 
2551.073 20290250 20262336 20235710 20209120 20182532 20156430 20131440 
2554.448 20108188 20087158 20068140 20050998 20035074 20020154 20005372 
2557.823 19989932 19973036 19953330 19929950 19901920 19868448 19829116 
2561.198 19783236 19730632 19671828 19607590 19539724 19470620 19402704 
2564.574 19337778 19277020 19220702 19168340 19120034 19076096 19037356 
2567.949 19005404 18981070 18964284 18954004 18948014 18944312 18941716 
2571.324 18940712 18943030 18950992 18966566 18990242 19020776 19055774 
2574.699 19092612 19128898 19163664 19197222 19230468 19264446 19299846 
2578.075 19336498 19374258 19412648 19451734 19491758 19533034 19576118 
2581.450 19621318 19668744 19718600 19771374 19828078 19889296 19956002 
2584.825 20028132 20104822 20185238 20267858 20351500 20435538 20519524 
2588.200 20603248 20686954 20770746 20854658 20939248 21025036 21112300 
2591.576 21201464 21291930 21382626 21472052 21558468 21640374 21716930 
2594.951 21788308 21854646 21916952 21976094 22032840 22088200 22143112 
2598.326 22198450 22254946 22313612 22374448 22437594 22503580 22572364 
2601.701 22644932 22722398 22806024 22896724 22994566 23099036 23208634 
2605.077 23321968 23437846 23555506 23675088 23797222 23922612 24052518 
2608.452 24187826 24329552 24478510 24634990 24798474 24967842 25141034 
2611.827 25315244 25487626 25655576 25817300 25971834 26118966 26258614 
2615.202 26391158 26516842 26636500 26750624 26860620 26967224 27071208 
2618.578 27172148 27269090 27360690 27445884 27524106 27596164 27663500 
2621.953 27727600 27789658 27849926 27907620 27961648 28011370 28057000 
2625.328 28099734 28141764 28184932 28230722 28279378 28330374 28382298 
2628.703 28433836 28484074 28532336 28578408 28621936 28662532 28700158 
2632.079 28734566 28766250 28796060 28824706 28852856 28881044 28908736 
2635.454 28935546 28960834 28984388 29006384 29027922 29049498 29071816 
2638.829 29095058 29119186 29144130 29169856 29197284 29227090 29260156 
2642.204 29297478 29339450 29386424 29438722 29496592 29560324 29630236 
2645.580 29706298 29788050 29874718 29964988 30057724 30152152 30247488 
2648.955 30343520 30440072 30537176 30634552 30732164 30830258 30929160 
2652.330 31029614 31132118 31236964 31344324 31454210 31566254 31680900 
2655.705 31798388 31919550 32044772 32174424 32308214 32445654 32585814 
2659.081 32728240 32872494 33019084 33167910 33319288 33472438 33626032 
2662.456 33779436 33931312 34081416 34230172 34378372 34527084 34676896 
2665.831 34827936 34980112 35132916 35286020 35439360 35592936 35747068 
2669.206 35902048 36058052 36215304 36374164 36535208 36699300 36866956 
2672.582 37038972 37215816 37397036 37582552 37771836 37964316 38159664 
2675.957 38357200 38556420 38756452 38956544 39156112 39354936 39553596 
2679.332 39753108 39954860 40160196 40370456 40586716 40809748 41040176 
2682.707 41278308 41524256 41777900 42039028 42306924 42581452 42862336 
2686.083 43149880 43444828 43747600 44058464 44377076 44702460 45033488 
2689.458 45369004 45708568 46052264 46401060 46755712 47117228 47485960 
2692.833 47861732 48244312 48633268 49028104 49428716 49834940 50246936 
2696.208 50664500 51087908 51517396 51953364 52396500 52846892 53304388 
2699.583 53768064 54236820 54709160 55184120 55660696 56138736 56618132 
2702.959 57098436 57578748 58057688 58533600 59004532 59469396 59926660 
2706.334 60375152 60813892 61241324 61655736 62055792 62440684 62809640 
2709.709 63163088 63501628 63825696 64135648 64431904 64714440 64983620 
2713.084 65240064 65484136 65716280 65936132 66142744 66334204 66508376 
2716.460 66662944 66795744 66905348 66990852 67052096 67090148 67106740 
2719.835 67105384 67090572 67067912 67043356 67022444 67009956 67009680 
2723.210 67024528 67056656 67107976 67180024 67274216 67391208 67531160 
2726.585 67693528 67877352 68081512 68305552 68548944 68811472 69092520 
2729.961 69390664 69703672 70028632 70362440 70702248 71045896 71391784 
2733.336 71738600 72084800 72428808 72768472 73101688 73426728 73742232 
2736.711 74046816 74340160 74621232 74889488 75144840 75387496 75619072 
2740.086 75841864 76058928 76273696 76489280 76708360 76933656 77167448 
2743.462 77411824 77669496 77941792 78229928 78533656 78851464 79180952 
2746.837 79518776 79861600 80205688 80547056 80881312 81203160 81507296 
2750.212 81788248 82041360 82263432 82452640 82608592 82731680 82823208 
2753.587 82884120 82915560 82918360 82893344 82840728 82759984 82649184 
2756.963 82506328 82328032 82111288 81854136 81555304 81214824 80833616 
2760.338 80413056 79954872 79461120 78935456 78381824 77806536 77216288 
2763.713 76617960 76018240 75422328 74834104 74257000 73694296 73149992 
2767.088 72628936 72136512 71677560 71256248 70875096 70534608 70234712 
2770.464 69973904 69751096 69564664 69412936 69293680 69203640 69139256 
2773.839 69096480 69070648 69058216 69055264 69058376 69063928 69067464 
2777.214 69064160 69048624 69015800 68960880 68880464 68772144 68635016 
2780.589 68469960 68279144 68066128 67835976 67594256 67346288 67097224 
2783.965 66851116 66610216 66375860 66147992 65925680 65707332 65490296 
2787.340 65271480 65046504 64810640 64559908 64290456 64000980 63691504 
2790.715 63364772 63024388 62674760 62320952 61967160 61617208 61275280 
2794.090 60945408 60631892 60339208 60071604 59832564 59624752 59449752 
2797.466 59308320 59200996 59128052 59089900 59086520 59118108 59183756 
2800.841 59281696 59410164 59565996 59746024 59947200 60166164 60399748 
2804.216 60645232 60899580 61160336 61424604 61689996 61953404 62212040 
2807.591 62462448 62701404 62925288 63130320 63313060 63469992 63597588 
2810.967 63692892 63753016 63776000 63760496 63706168 63613588 63484064 
2814.342 63319996 63124612 62902116 62658192 62399672 62133964 61869796 
2817.717 61615604 61379304 61168920 60990396 60849072 60749408 60694228 
2821.092 60685580 60723912 60807948 60935072 61100644 61299132 61523512 
2824.468 61766308 62020052 62276816 62529100 62769896 62992624 63191788 
2827.843 63363052 63503012 63609832 63682644 63722088 63729228 63707240 
2831.218 63659856 63592068 63509488 63417688 63321644 63225476 63131928 
2834.593 63042352 62957616 62878644 62805848 62740488 62684180 62638560 
2837.969 62606060 62589452 62592320 62619648 62677176 62772044 62911844 
2841.344 63104300 63357108 63678192 64075200 64557096 65133916 65816244 
2844.719 66614816 67537776 68588176 69760048 71035872 72385248 73760768 
2848.094 75103832 76347632 77419112 78253176 78797240 79016536 78901528 
2851.469 78466288 77747360 76794520 75668176 74432216 73143096 71853176 
2854.845 70604464 69426160 68339056 67353368 66471568 65689260 64997280 
2858.220 64384216 63836328 63340200 62883356 62453764 62041840 61638588 
2861.595 61236520 60829748 60413072 59983144 59538176 59078020 58604504 
2864.970 58121888 57635800 57154140 56685176 56238252 55822460 55445684 
2868.346 55115460 54837520 54616036 54452772 54346716 54293996 54286560 
2871.721 54313672 54362748 54419908 54473392 54514072 54536504 54539056 
2875.096 54523168 54491688 54447364 54392492 54328204 54254912 54173000 
2878.471 54083488 53987988 53888532 53787640 53687260 53588960 53494468 
2881.847 53404756 53321396 53245880 53179848 53124540 53081328 53050928 
2885.222 53034116 53031532 53044112 53072156 53115888 53174380 53245916 
2888.597 53328136 53418096 53513244 53612128 53713764 53817980 53925596 
2891.972 54037032 54152692 54273048 54398200 54528012 54662900 54803164 
2895.348 54949188 55102148 55263364 55434540 55617908 55815712 56029624 
2898.723 56260092 56506372 56766432 57037600 57317296 57603524 57895548 
2902.098 58193640 58498532 58810844 59131624 59461340 59801268 60153796 
2905.473 60522488 60912008 61328244 61776772 62263472 62794208 63374936 
2908.849 64013340 64717284 65495656 66356400 67305008 68342272 69462432 
2912.224 70653352 71893952 73155176 74403744 75599160 76699224 77665496 
2915.599 78462792 79066536 79465216 79660336 79666192 79505240 79206840 
2918.974 78798584 78304560 77743080 77124392 76452368 75726864 74945712 
2922.350 74108000 73216032 72276432 71300872 70305096 69306544 68323704 
2925.725 67373688 66469336 65620116 64830332 64099552 63423476 62795356 
2929.100 62207260 61651308 61121316 60613608 60127080 59663752 59227728 
2932.475 58824772 58460736 58141360 57871128 57653128 57488940 57378168 
2935.851 57318960 57307652 57338580 57405244 57499568 57613208 57739444 
2939.226 57872568 58008836 58147308 58287908 58431620 58579060 58729928 
2942.601 58882480 59033644 59178480 59310448 59421332 59501240 59540036 
2945.976 59528448 59459704 59331680 59148332 58919704 58660180 58388032 
2949.352 58122156 57878660 57670724 57506416 57388680 57316384 57285160 
2952.727 57288560 57318732 57368112 57429372 57496128 57563424 57627400 
2956.102 57685140 57735056 57776196 57808252 57832480 57850764 57866132 
2959.477 57882072 57901564 57926972 57959080 57997212 58039888 58085528 
2962.853 58132760 58181176 58230956 58282560 58335920 58390572 58445532 
2966.228 58499552 58551952 58602760 58652440 58701972 58752308 58804016 
2969.603 58857740 58914128 58973940 59038540 59109032 59186224 59269656 
2972.978 59358116 59449296 59540988 59631592 59720324 59807432 59892808 
2976.354 59975500 60052352 60118592 60167648 60192388 60186792 60146868 
2979.729 60071180 59961232 59820816 59655692 59472208 59277516 59077868 
2983.104 58878532 58682552 58490380 58299728 58105524 57901072 57680028 
2986.479 57437088 57169336 56877008 56562384 56229276 55881012 55519436 
2989.854 55144016 54752076 54339056 53900688 53434172 52939636 52420424 
2993.230 51883348 51338024 50793388 50257800 49736320 49229756 48735384 
2996.605 48247312 47758420 47262060 46753904 46232488 45699288 45158288 
2999.980 44614548 44073500 43539760 43016400 42505444 42007856 41523456 
3003.355 41051792 40592504 40145004 39709176 39285468 38874464 38477128 
3006.731 38094296 37726552 37373740 37034784 36708312 36392180 36085096 
3010.106 35785352 35491888 35204052 34920892 34641476 34364708 34089552 
3013.481 33815572 33542946 33272638 33006466 32746244 32493930 32251108 
3016.856 32018482 31796358 31584110 31380366 31183594 30991892 30803546 
3020.232 30617522 30433354 30252000 30074876 29904142 29742132 29590508 
3023.607 29450846 29324028 29211354 29113764 29032846 28969760 28925170 
3026.982 28898218 28886816 28886742 28891984 28896094 28891312 28870064 
3030.357 28825838 28752762 28647030 28507318 28334902 28133812 27909634 
3033.733 27669576 27420226 27167282 26914764 26664932 26419046 26177804 
3037.108 25941794 25711892 25488996 25273378 25065170 24863518 24667078 
3040.483 24474654 24285680 24099906 23918164 23741540 23571074 23407318 
3043.858 23250510 23100400 22956454 22818318 22685288 22556974 22433164 
3047.234 22313576 22198380 22087920 21982682 21882800 21788448 21698712 
3050.609 21612060 21526712 21440966 21353458 21263988 21173072 21081692 
3053.984 20991268 20902704 20816768 20733766 20654220 20578650 20507922 
3057.359 20442902 20384210 20332054 20286014 20245222 20208772 20175832 
3060.735 20145948 20118982 20095104 20074526 20057558 20044544 20036216 
3064.110 20033268 20037016 20047982 20066266 20091218 20120336 20150634 
3067.485 20178158 20199158 20210058 20208668 20193882 20165974 20126476 
3070.860 20077372 20021124 19960166 19895816 19829116 19760312 19689336 
3074.236 19615980 19540936 19465074 19389884 19317028 19247648 19182434 
3077.611 19121038 19062734 19006200 18950264 18893714 18835714 18775440 
3080.986 18712512 18646478 18578104 18508358 18439002 18371802 18308724 
3084.361 18250494 18197038 18147840 18101442 18057228 18015436 17976826 
3087.737 17942880 17914668 17892398 17875064 17861012 17848066 17834670 
3091.112 17820310 17805294 17790518 17777194 17765666 17756000 17747682 
3094.487 17740260 17733772 17728664 17725694 17725970 17730146 17738396 
3097.862 17750546 17766184 17784650 17805258 17827352 17849828 17871682 
3101.238 17891982 17909628 17924544 17937148 17948440 17959698 17972128 
3104.613 17986460 18002968 18021862 18043032 18066278 18091668 18118820 
3107.988 18147182 18175650 18202980 18227928 18249872 18268980 18286018 
3111.363 18302468 18320232 18340314 18363610 18390294 18419746 18451102 
3114.739 18482944 18513786 18541968 18566140 18585194 18598544 18606324 
3118.114 18609298 18608296 18604042 18597056 18587546 18575442 18561160 
3121.489 18545392 18529658 18515516 18504140 18496084 18490794 18487026 
3124.864 18483394 18478590 18472296 18465416 18459122 18454836 18453592 
3128.240 18455596 18460058 18465728 18471328 18475752 18478900 18481492 
3131.615 18484154 18488580 18496188 18507978 18524678 18546186 18571810 
3134.990 18600066 18629324 18657686 18683766 18706908 18727144 18745376 
3138.365 18763194 18781876 18802878 18827064 18854642 18885268 18918180 
3141.740 18952100 18985916 19018732 19049682 19078590 19105838 19132326 
3145.116 19158816 19186554 19215854 19246990 19280034 19314914 19351636 
3148.491 19391028 19433680 19480044 19530124 19583048 19637022 19690030 
3151.866 19740374 19786738 19829464 19869176 19907608 19946220 19986186 
3155.241 20027820 20070604 20114192 20157576 20200546 20243418 20286640 
3158.617 20331254 20377994 20427376 20479370 20533594 20589698 20647132 
3161.992 20705998 20766646 20830082 20897384 20968942 21044684 21123432 
3165.367 21203132 21280830 21354468 21422342 21484238 21541302 21595588 
3168.742 21649220 21703762 21760160 21818340 21877434 21936818 21996102 
3172.118 22055324 22115008 22175610 22237228 22299136 22360528 22420256 
3175.493 22477686 22532056 22584128 22634984 22685636 22737132 22790382 
3178.868 22845626 22902974 22962044 23022272 23083488 23145760 23208986 
3182.243 23273968 23341162 23410850 23483348 23558446 23635724 23714592 
3185.619 23794562 23875420 23957378 24041102 24126838 24215290 24306178 
3188.994 24399362 24493830 24588668 24683000 24776302 24868324 24958962 
3192.369 25048498 25137524 25226532 25316192 25407204 25500100 25595262 
3195.744 25692698 25792474 25894314 25998252 26104398 26212716 26323386 
3199.120 26435878 26549456 26663310 26776420 26888220 26998638 27108696 
3202.495 27218922 27330236 27442850 27556268 27670070 27783584 27896596 
3205.870 28009426 28123100 28238182 28354992 28473282 28591642 28708936 
3209.245 28824102 28936784 29047478 29156922 29266074 29375540 29485528 
3212.621 29596182 29707398 29819884 29934528 30052256 30173640 30298682 
3215.996 30426354 30555376 30683800 30810446 30934780 31057016 31177650 
3219.371 31297888 31418230 31539354 31661260 31783878 31907066 32030754 
3222.746 32154870 32279198 32403562 32527924 32651932 32775652 32899118 
3226.122 33022270 33145022 33267200 33388592 33508834 33627824 33745376 
3229.497 33861600 33976632 34090552 34203104 34314392 34424240 34532896 
3232.872 34640648 34747528 34853608 34958600 35062036 35163196 35261908 
3236.247 35358624 35454136 35550140 35647676 35747860 35850876 35956792 
3239.623 36065148 36175296 36287016 36399600 36512716 36625500 36737052 
3242.998 36846688 36954108 37059864 37164920 37270980 37379628 37491660 
3246.373 37607484 37726584 37848508 37972888 38099976 38230468 38365056 
3249.748 38503772 38645868 38789492 38932404 39072248 39207748 39338428 
3253.124 39465448 39590584 39715748 39842988 39973568 40107932 40246116 
3256.499 40387692 40532008 40678440 40826568 40975796 41125912 41277212 
3259.874 41429916 41584308 41740548 41898480 42057168 42216064 42374060 
3263.249 42530840 42686832 42842808 42999940 43159288 43321508 43486392 
3266.625 43653540 43822144 43991692 44162112 44334216 44508588 44685972 
3270.000 44866988 45050800 45236716 45423040 45608228 45791512 45972844 
3273.375 46152888 46333372 46515888 46701772 46891748 47085728 47283228 
3276.750 47483480 47686080 47891256 48099856 48312780 48530660 48753472 
3280.125 48980516 49210420 49441748 49673572 49905740 50138628 50373612 
3283.501 50611780 50854024 51101024 51352420 51607804 51867148 52130004 
3286.876 52396796 52667756 52943188 53223180 53508000 53797504 54091556 
3290.251 54390124 54692808 54999388 55309760 55623972 55942708 56266728 
3293.626 56597636 56935856 57281872 57634588 57992404 58353428 58716160 
3297.002 59080412 59446900 59817544 60194252 60577916 60968512 61364536 
3300.377 61764128 62166080 62570392 62978380 63392648 63815608 64249732 
3303.752 64695948 65154432 65624356 66104816 66594960 67093468 67599992 
3307.127 68113296 68632456 69157008 69687336 70224272 70769632 71325160 
3310.503 71891768 72469920 73058520 73656520 74263256 74879096 75504848 
3313.878 76142072 76791904 77453960 78127184 78809384 79498488 80193456 
3317.253 80893960 81600808 82314968 83036968 83766240 84501448 85241000 
3320.628 85983552 86728184 87474752 88223248 88973728 89725872 90479080 
3324.004 91232776 91986600 92739968 93491968 94241048 94984728 95720024 
3327.379 96443776 97153656 97848176 98526768 99189104 99834472 100461928 
3330.754 101069384 101654920 102217288 102755088 103267528 103753728 
3333.647 104211664 104638296 105030488 105385824 105703456 105984648 
3336.540 106232040 106449008 106637616 106798096 106928872 107026368 
3339.433 107087200 107108704 107088728 107026368 106920904 106771864 
3342.326 106578376 106339376 106054688 105724416 105349088 104929176 
3345.219 104464800 103955360 103400440 102800336 102156208 101470928 
3348.113 100748024 99990912 99202840 98385696 97540304 96667872 95770048 
3351.488 94848840 93907336 92948736 91975704 90990880 89995976 88993368 
3354.863 87986144 86977680 85972328 84973560 83984288 83005880 82038808 
3358.238 81082944 80138616 79206448 78287616 77383672 76495520 75623456 
3361.614 74767384 73927056 73102824 72295064 71504896 70732856 69979384 
3364.989 69243896 68525440 67823160 67136744 66466972 65814740 65181384 
3368.364 64567328 63972144 63394256 62831276 62281176 61741860 61212252 
3371.739 60691716 60180056 59676904 59182084 58695296 58216708 57746560 
3375.115 57285272 56833048 56389780 55954652 55526440 55104404 54687960 
3378.490 54277476 53873680 53477416 53088780 52706888 52330000 51955496 
3381.865 51581796 51207412 50832720 50458792 50087384 49720196 49357992 
3385.240 49001136 48648684 48300264 47955116 47612868 47273624 46937452 
3388.615 46604484 46274392 45946652 45620704 45295624 44971268 44647524 
3391.991 44325112 44005112 43689116 43378588 43074356 42776732 42484576 
3395.366 42196196 41909868 41623908 41338396 41054124 40773096 40497344 
3398.741 40228416 39966160 39708924 39453800 39197668 38938024 38674116 
3402.116 38406568 38137888 37870960 37608892 37353700 37106668 36867388 
3405.492 36635236 36408608 36185236 35963524 35741672 35518104 35292596 
3408.867 35065272 34836984 34608640 34381348 34155500 33930884 33707024 
3412.242 33483244 33259794 33037248 32816994 32600280 32388174 32180380 
3415.617 31975970 31773790 31571708 31368938 31165296 30961326 30758376 
3418.993 30557866 30360966 30168918 29982488 29802032 29627680 29459252 
3422.368 29295708 29135732 28977764 28820172 28662320 28504170 28346362 
3425.743 28190202 28036428 27885290 27735794 27586666 27435826 27282426 
3429.118 27126048 26967540 26808598 26650558 26494970 26342184 26192372 
3432.494 26045288 25900644 25758650 25619654 25483584 25350474 25219404 
3435.869 25089464 24959280 24828082 24695628 24562582 24430172 24299414 
3439.244 24171220 24045550 23921596 23798062 23673654 23547286 23419102 
3442.619 23288998 23157852 23025800 22893020 22758816 22622312 22482920 
3445.995 22340748 22197160 22054802 21916848 21785696 21662942 21548056 
3449.370 21438738 21331846 21224114 21112962 20997352 20878090 20756600 
3452.745 20634486 20512994 20392404 20272440 20151952 20030562 19908372 
3456.120 19786424 19665692 19547382 19431844 19318622 19206572 19094170 
3459.496 18980032 18863848 18745654 18626486 18507770 18391228 18277724 
3462.871 18168154 18062306 17959698 17858630 17757968 17656362 17553228 
3466.246 17449218 17345236 17243142 17144378 17049362 16957566 16867032 
3469.621 16775347 16680066 16580019 16475109 16366852 16257178 16148219 
3472.997 16041040 15936054 15832502 15729286 15625920 15522511 15420293 
3476.372 15320606 15225058 15133856 15046651 14961453 14875483 14786753 
3479.747 14692901 14594202 14491586 14387624 14285434 14187719 14096322 
3483.122 14010968 13929942 13850367 13769166 13684081 13594534 13501451 
3486.498 13407260 13315311 13227856 13146156 13069934 12997584 12926782 
3489.873 12855514 12782961 12708816 12633353 12556983 12479434 12399851 
3493.248 12317046 12229825 12138091 12042424 11945382 11849348 11757285 
3496.623 11671267 11592581 11520987 11454917 11392324 11330626 11266522 
3499.999 11198042 11123181 11041265 10952941 10860083 10766021 10673984 
3503.374 10587840 10510029 10441804 10383159 10332258 10286691 10243061 
3506.749 10198350 10149642 10095140 10034406 9968730 9900589 9833138 9769999 
3510.606 9713546 9664317 9621291 9582031 9543112 9501792 9456278 9406298 
3514.464 9352600 9296573 9239504 9182205 9124814 9066922 9008394 8949705 
3518.321 8892073 8836985 8785860 8739101 8696201 8655638 8615045 8572259 
3522.179 8525861 8475414 8421359 8364877 8307357 8249472 8192068 8135313 
3526.036 8079443 8024997 7973123 7925035 7881879 7844327 7812175 7784749 
3529.894 7760833 7739380 7719514 7700762 7682718 7664608 7645116 7621983 
3533.751 7592816 7555592 7508999 7453783 7392439 7328847 7267588 7212335 
3537.608 7164836 7125258 7091644 7061603 7032473 7002874 6972200 6941022 
3541.466 6910150 6879885 6849489 6817815 6782745 6742696 6696629 6645249 
3545.323 6590917 6536725 6486206 6442553 6407176 6380007 6358756 6340029 
3549.181 6319689 6294071 6260556 6218304 6168762 6114690 6060323 6009591 
3553.038 5965347 5928733 5898369 5872306 5847420 5820891 5790736 5756017 
3556.896 5716567 5672823 5625358 5574945 5522256 5468230 5413877 5360670 
3560.753 5310187 5264036 5223491 5188582 5158505 5130809 5101608 5066307 
3564.610 5019612 4958008 4879391 4785878 4683142 4579895 4485744 4408216 
3568.468 4351418 4314036 4291883 4277996 4265783 4249822 4226568 4194182 
3572.325 4153000 4104329 4050079 3992558 3934142 3876370 3820944 3768701 
3576.183 3720040 3675027 3633092 3593300 3555483 3519238 3484967 3453037 
3580.040 3423681 3396764 3371719 3347277 3322502 3296226 3267615 3235901 
3583.897 3200150 3159497 3112439 3057611 2994417 2923325 2847343 2771374 
3587.755 2701353 2643377 2601175 2575209 2563211 2560111 2559744 2556244 
3591.612 2545046 2523183 2490390 2448570 2401689 2354347 2311141 2275133 
3595.470 2247255 2227039 2212186 2199930 2187742 2173489 2156007 2134862 
3599.327 2111056 2085152 2059151 2034616 2013078 1995469 1982154 1972734 
3603.185 1966577 1962283 1958589 1953330 1944011 1927536 1900379 1859847 
3607.042 1804512 1736077 1659071 1580450 1508259 1447850 1401177 1365444 
3610.899 1335597 1305087 1269661 1228390 1184532 1144697 1115497 1101611 
3614.757 1103372 1116527 1133136 1143967 1140811 1117822 1073410 1010769 
3618.614 938042 866092 805506 764810 747318 751467 771448 800028 829905 
3622.954 855169 872964 883356 888370 889831 888834 883223 866955 832030 
3627.293 770320 678485 562549 439214 330836 257859 229281 240818 279310 
3631.633 329046 375902 409928 426876 427971 418684 405716 395469 391323 
3635.973 392815 397757 402665 405020 403362 398321 390759 382402 373912 
3640.312 365456 356635 347151 337800 329808 324669 323243 325199 328615 
3644.652 329974 325067 310179 282128 239890 184098 117111 42413 -35816 
3648.991 -112475 -180807 -233995 -264428 -266845 -240817 -190412 -124168 
3652.849 -53077 11331 59612 85030 86422 68095 39663 15241 7057 22631 62362 
3658.153 120260 186418 249471 299734 330472 338629 326227 298739 264357 
3662.492 230806 204485 188606 183104 185822 193943 205446 219535 235845 
3666.832 254477 274900 296319 320524 353485 408436 505555 667102 908192 
3671.172 1232710 1632729 2093542 2597575 3127690 3665704 4183710 4639570 
3675.029 4980196 5149686 5114147 4874598 4462980 3926653 3313955 2672514 
3678.886 2044037 1467631 977293 591912 314589 131031 17793 -51056 -95813 
3683.226 -127712 -150998 -166102 -174117 -179913 -191373 -217735 -266945 
3687.083 -341312 -436520 -541304 -641498 -724269 -782252 -813936 -822039 
3690.941 -810497 -783277 -743388 -694364 -640505 -586738 -538260 -498844 
3694.798 -470248 -452110 -442312 -437811 -435196 -432713 -430131 -428774 
3698.656 -431290 -441088 -460418 -491199 -532402 -580550 -630083 -673490 
3702.513 -704785 -720134 -719307 -704454 -680768 -653540 -627502 -606327 
3706.371 -592893 -588492 -594183 -610628 -637627 -674879 -720630 -772330 
3710.228 -825842 -876702 -920349 -952453 -969743 -970471 -954668 -924184 
3714.085 -882687 -835730 -789462 -749540 -720961 -705347 -701576 -705116 
3717.943 -710905 -713518 -710541 -702800 -693769 -687980 -688377 -695886 
3721.800 -707762 -720266 -729694 -734391 -735846 -737632 -743289 -754998 
3725.658 -771866 -789727 -802361 -804246 -792174 -767104 -733928 -699327 
3729.515 -671174 -656220 -658503 -678353 -711798 -752682 -793861 -830968 
3733.373 -863839 -896178 -933111 -977645 -1027859 -1076250 -1112341 -1127048 
3737.230 -1117134 -1085438 -1039792 -988455 -937244 -889003 -843005 -798557 
3741.087 -757280 -725228 -714113 -738658 -810761 -931888 -1083720 -1230906 
3744.945 -1331799 -1361329 -1320865 -1232426 -1126387 -1030438 -967429 
3748.320 -949146 -977843 -1044188 -1131510 -1220201 -1293612 -1341808 
3751.695 -1360867 -1350429 -1313169 -1253769 -1179558 -1098923 -1021446 
3755.071 -955329 -905734 -874321 -859441 -857225 -862946 -873561 -887251 
3758.928 -902957 -918431 -929970 -931425 -917869 -887284 -843270 -793100 
3762.785 -746729 -713551 -698268 -700418 -714080 -730190 -740080 -739716 
3766.643 -730719 -719671 -714213 -720233 -739749 -769617 -803221 -831894 
3770.500 -848693 -850347 -837119 -812051 -779871 -745240 -712062 -683282 
3774.358 -660686 -644707 -635410 -632002 -634219 -642391 -657610 -680569 
3778.215 -710772 -745141 -778614 -803750 -814631 -808645 -787808 -758041 
3782.073 -726882 -701477 -686259 -681727 -684705 -690461 -693703 -691321 
3785.930 -682654 -668792 -651621 -632796 -613110 -593157 -573767 -556460 
3789.787 -543455 -536638 -536440 -541701 -550305 -559339 -567579 -576050 
3793.645 -587830 -606757 -635509 -673093 -714808 -752583 -777125 -782814 
3797.502 -769386 -742859 -713386 -693240 -693901 -721788 -776464 -848164 
3801.360 -920084 -971859 -988224 -965611 -911157 -840029 -769287 -715833 
3805.217 -692313 -703230 -744314 -801468 -854943 -885531 -883514 -849884 
3809.074 -793960 -728337 -664094 -608709 -564171 -529192 -501293 -479052 
3812.932 -464290 -462271 -478986 -519131 -581874 -658867 -734027 -789991 
3816.789 -815259 -808479 -778779 -741469 -713981 -710078 -737004 -792836 
3820.647 -864566 -931094 -970305 -969644 -928978 -860168 -779871 -704917 
3824.504 -647751 -613804 -602091 -605301 -613639 -617212 -610264 -592992 
3828.362 -570292 -549213 -536241 -534884 -544878 -562615 -582403 -599047 
3832.219 -608841 -610694 -605731 -595904 -584025 -572675 -564733 -562814 
3836.076 -570061 -588360 -617411 -654632 -694166 -728999 -753542 -764888 
3839.934 -762903 -751293 -734490 -716826 -701477 -689733 -681099 -673820 
3843.791 -665484 -653805 -637362 -615955 -590775 -563807 -537565 -513936 
3847.649 -493979 -477265 -462271 -447377 -432448 -419771 -416096 -430727 
3851.506 -474485 -555997 -675144 -818566 -958999 -1066368 -1120141 -1117101 
3855.364 -1068185 -990934 -901403 -810860 -725923 -649967 -584058 -529159 
3859.221 -486036 -455652 -438440 -433772 -440260 -455354 -477331 -504801 
3863.078 -536804 -572013 -606459 -633756 -646394 -638718 -610066 -565858 
3866.936 -518337 -481899 -469851 -490504 -542661 -614565 -685399 -733464 
3870.793 -746266 -724103 -678518 -625021 -578896 -549147 -537796 -538756 
3874.651 -542694 -540378 -525949 -499837 -466640 -434302 -409939 -399843 
3878.508 -406894 -430595 -466210 -505165 -537730 -554938 -551166 -526809 
3882.365 -488055 -445060 -409674 -392725 -400902 -433772 -482196 -529821 
3886.223 -560729 -563575 -537432 -490405 -436586 -390143 -362964 -361375 
3890.080 -385111 -426689 -474121 -514631 -538756 -542661 -527901 -499407 
3893.938 -462967 -423379 -384482 -349357 -320254 -299660 -289892 -292309 
3897.795 -306911 -331478 -361904 -392858 -419837 -439797 -452971 -462371 
3901.653 -472201 -486433 -507052 -532501 -558347 -578565 -586705 -579260 
3905.510 -555732 -519264 -474750 -428046 -383820 -345450 -314030 -289428 
3909.367 -270322 -255123 -242473 -231247 -220682 -210085 -198858 -186868 
3913.225 -174548 -163088 -155039 -153019 -159014 -173753 -195976 -222106 
3917.082 -247175 -266547 -276945 -277210 -268302 -252010 -230783 -206674 
3920.940 -181536 -157093 -135894 -120359 -113369 -116715 -130197 -150998 
3924.797 -174647 -195645 -209058 -212999 -208031 -197367 -184749 -173720 
3928.655 -166301 -162856 -162260 -163518 -165804 -169248 -174448 -181437 
3932.512 -189717 -197467 -202799 -203991 -200679 -194088 -186603 -180609 
3936.369 -177992 -179284 -182861 -187100 -189717 -189816 -188094 -186438 
3940.227 -187465 -193227 -204289 -219623 -236214 -250156 -258070 -257540 
3944.084 -248533 -232638 -213363 -193956 -177628 -166632 -161697 -162591 
3947.942 -167824 -175674 -184683 -193592 -201805 -208528 -213032 -214224 
3951.799 -210880 -202136 -187895 -169215 -148348 -128209 -111746 -100682 
3955.656 -95779 -96442 -100682 -106314 -111349 -114098 -113933 -110786 
3959.514 -104922 -97005 -87995 -78951 -71033 -65501 -63215 -64440 -68946 
3963.854 -75737 -83754 -91738 -98761 -104194 -107606 -108964 -107738 -104061 
3968.193 -98131 -90844 -83224 -76864 -72822 -71497 -72524 -74644 -76035 
3972.533 -75174 -71397 -64705 -56125 -46683 -37539 -29355 -21901 -14711 
3976.872 -7024 1259 10238 19350 27601 34063 38039 39199 37608 34063 29457 
3982.176 24553 20145 16733 13982 11166 7388 1954 -5168 -13452 -21470 -27599 
3987.480 -30647 -29985 -25876 -19117 -10768 -1855 7388 17163 27502 38569 
3992.302 49637 59612 67532 72138 73497 72006 68891 65046 61368 57855 53978 
3997.606 49041 42314 33698 23592 13021 2982 -5268 
##END=
