
##TITLE=1731a_2_b
##JCAMP-DX=5.01  $$ Nicolet v. 1
##DATATYPE=INFRARED SPECTRUM
##ORIGIN=UniL
##OWNER=Nicolet
##LONGDATE=2011/09/22
##TIME=10:16:10
##SPECTROMETER/DATA SYSTEM=Nicolet iS5
##DATA PROCESSING=
Ratio against background
%Transmittance->Absorbance
Truncated
ElementMultiply or ElementDivide
##COMMENTS=
Number of sample scans: 32
Collection length: 51.19 sec
Sample gain: 2.0
Background collected on: Jeu Sep 22 10:11:43 2011 (GMT+02:00);
Number of background scans: 32
Background gain: 2.0
Sample spacing:  1.000
Number of scan points: 12415
Resolution points: 8192
Number of FFT points: 65536
Apodization: N-B fort;
Phase correction: Mertz;
Laser frequency: 15798.0 cm-1
Number of rejected sample scans: 0
Number of rejected background scans: 0
Bench serial number: ASB1000141;
##RESOLUTION=4.000
##XUNITS=1/CM
##YUNITS=ABSORBANCE
##FIRSTX=649.893372
##LASTX=4000.122314
##FIRSTY=0.103945
##MAXX=4000.122314
##MINX=649.893372
##MAXY=0.277027
##MINY=-0.003229
##XFACTOR=1.000000
##YFACTOR=1.000000E-009
##NPOINTS=6950
##DELTAX=0.482117
##ZPD=6100
##XYDATA=(X++(Y..Y))
649.893 103945464 103521408 103220200 102990776 102765112 102493968 
652.786 102166352 101811464 101475488 101196904 100986096 100825792 
655.679 100688440 100557064 100436872 100350912 100321896 100353792 
658.571 100423640 100491328 100515424 100474416 100376792 100250776 
661.464 100127992 100024072 99933600 99838520 99723656 99589152 99449776 
664.839 99323400 99211464 99082944 98871376 98487528 97871888 97047792 
668.214 96142808 95321456 94698816 94286288 94014616 93780128 93489504 
671.589 93089816 92573576 91974240 91341248 90717512 90118568 89531112 
674.963 88930952 88303560 87657560 87023832 86437552 85919096 85464344 
678.338 85046584 84632960 84200072 83747800 83294704 82866752 82479688 
681.713 82132464 81808528 81489344 81164648 80840592 80533416 80259176 
685.088 80019480 79799912 79572776 79313216 79011688 78679304 78342568 
688.463 78029856 77758736 77528704 77325072 77130248 76935632 76747504 
691.838 76582376 76456120 76375016 76330848 76306872 76286256 76263584 
695.212 76246800 76253392 76298616 76384768 76497928 76612224 76702432 
698.587 76752528 76763760 76749880 76729632 76715240 76706744 76694648 
701.962 76667440 76618744 76553096 76482240 76419144 76370192 76332632 
705.337 76296760 76252680 76197992 76138600 76086760 76052376 76038368 
708.712 76038760 76045040 76053488 76074168 76131528 76262240 76499672 
712.086 76862656 77345816 77918440 78528136 79108440 79596376 79938144 
715.461 80096256 80055464 79820664 79417400 78886664 78287736 77693424 
718.836 77181064 76835888 76736632 76942120 77482048 78334320 79417472 
722.211 80576528 81607528 82290784 82421672 81878464 80649336 78846416 
725.586 76671320 74373184 72191640 70286824 68734336 67524616 66596276 
728.961 65869144 65276028 64778864 64359964 64011416 63722892 63475244 
732.335 63246632 63022240 62799416 62588572 62404108 62254408 62135076 
735.710 62029840 61919316 61791632 61649324 61507972 61386136 61296152 
739.085 61236976 61195088 61152440 61096792 61028640 60960120 60907320 
742.460 60880328 60877548 60886884 60893136 60886924 60870268 60854788 
745.835 60854256 60874880 60909796 60940984 60948228 60918452 60852656 
749.209 60765032 60675484 60600768 60546524 60507904 60474884 60440644 
752.584 60406452 60381736 60377052 60398224 60441368 60495032 60545532 
755.959 60584808 60615628 60649648 60701012 60779320 60885400 61012588 
759.334 61151980 61298212 61453504 61626908 61827888 62061716 62326612 
762.709 62616088 62925404 63258320 63632116 64076312 64633608 65355204 
766.083 66292396 67495968 69000112 70806640 72861880 75042192 77157472 
769.458 78953544 80178064 80636736 80242752 79059664 77289280 75233480 
772.833 73189128 71395568 69976352 68923488 68128296 67430376 66688208 
776.208 65807296 64766444 63605300 62399516 61228392 60149800 59196892 
779.583 58375448 57673408 57067752 56533360 56046928 55589628 55151352 
782.958 54732160 54342584 53998492 53716732 53509272 53379280 53323268 
786.332 53335820 53414424 53562908 53791316 54110508 54529588 55052156 
789.707 55677456 56404760 57237640 58185492 59264416 60491984 61883208 
793.082 63449324 65197052 67131056 69255984 71576584 74093888 76802304 
796.457 79688520 82733160 85919264 89244656 92732456 96438440 100441472 
799.832 104836960 109707504 115091352 120948736 127128704 133366136 
802.724 139248576 144274992 147933712 149751632 149443776 146979008 
805.617 142616752 136846064 130286040 123568752 117154688 111293576 
808.510 105998736 101104256 96352808 91503408 86428336 81132504 75748872 
811.885 70469408 65503784 61015828 57095036 53769300 51012628 48768892 
815.259 46965544 45528852 44390104 43483720 42758016 42174728 41710196 
818.634 41354284 41103948 40955440 40900756 40925732 41014796 41157640 
822.009 41352172 41605384 41927968 42329460 42812860 43374560 44007420 
825.384 44705472 45467700 46295368 47189028 48143236 49144336 50174444 
828.759 51220088 52280776 53376092 54548296 55861568 57388456 59207984 
832.133 61396632 64011416 67079820 70573280 74390840 78327096 82069976 
835.508 85250392 87452136 88316672 87632184 85371496 81720296 77019464 
838.883 71721720 66271596 61038520 56303316 52216648 48826692 46104876 
842.258 43975852 42341952 41099504 40160084 39447416 38902256 38486104 
845.633 38172868 37946488 37796924 37713284 37683256 37694532 37735948 
849.008 37801588 37891744 38011544 38167476 38363896 38601288 38876056 
852.382 39183560 39519808 39883992 40278400 40706792 41172392 41677664 
855.757 42225372 42820024 43470608 44191200 44998168 45910964 46949816 
859.132 48135280 49493952 51060032 52874100 54983748 57428808 60226148 
862.507 63349940 66716880 70180456 73521456 76488840 78823016 80287480 
865.882 80730048 80098008 78458072 75977384 72906984 69540664 66145672 
869.256 62956236 60136972 57772712 55892244 54478240 53490496 52875412 
872.631 52577392 52541120 52705612 53008960 53391756 53797092 54183552 
876.006 54528688 54830116 55104592 55381728 55698244 56086516 56568988 
879.381 57149192 57807044 58495004 59140244 59661204 59974664 60019400 
882.756 59773548 59259704 58543384 57713108 56869756 56098464 55456788 
886.131 54976036 54662408 54507612 54497548 54618556 54858536 55204472 
889.505 55642088 56155176 56726820 57344292 57999712 58689684 59413544 
892.880 60169668 60953184 61757292 62574676 63399896 64231364 65067940 
896.255 65905160 66732100 67527368 68263520 68912152 69448352 69858456 
899.630 70140184 70300968 70353520 70313008 70195912 70019520 69804520 
903.005 69576056 69359640 69181488 69064816 69027064 69083664 69249336 
906.379 69538952 69970704 70561352 71324304 72266888 73389960 74689616 
909.754 76161856 77805184 79622840 81620320 83801680 86166192 88706744 
913.129 91413544 94278952 97303616 100500848 103897272 107528768 111431504 
916.504 115637296 120164000 125008584 130136192 135468016 140875712 
919.397 146153584 151030096 155193072 158297520 160054464 160289744 
922.289 158997312 156370720 152793552 148820208 145050016 142089696 
925.182 140472864 140543152 142438704 146032336 150959408 156607536 
928.075 162202864 166979808 170223184 171443936 170451984 167332992 
930.967 162393952 156038528 148704928 140767600 132518096 124195888 
933.860 115986272 108051336 100550304 93621104 87384384 81937920 77340120 
937.235 73622104 70789168 68825520 67697480 67348416 67697984 68622368 
940.610 69952800 71492080 73003952 74253856 75045576 75229424 74739912 
943.985 73597568 71904752 69818608 67519624 65192664 62983588 60994132 
947.359 59281088 57858484 56713116 55816316 55137132 54644336 54308716 
950.734 54104804 54006900 53991404 54039428 54137156 54277064 54456752 
954.109 54675748 54932716 55223324 55541692 55881580 56239760 56616696 
957.484 57016252 57442648 57898652 58383028 58891740 59418824 59959828 
960.859 60512624 61077000 61653368 62240336 62833800 63428536 64019672 
964.233 64605540 65188468 65774412 66369296 66977596 67599520 68233240 
967.608 68876000 69527680 70191752 70874352 71582960 72321952 73092160 
970.983 73891472 74716416 75566192 76443560 77354096 78304992 79301720 
974.358 80346112 81436944 82571960 83750248 84973320 86244784 87567160 
977.733 88939688 90356880 91809688 93286968 94780128 96283488 97793768 
981.108 99307656 100818856 102316040 103785752 105214688 106592896 107916016 
984.482 109182808 110391136 111534160 112597320 113559704 114400936 
987.375 115103840 115660776 116074832 116358320 116530048 116612392 
990.268 116632888 116622056 116613296 116643208 116743504 116937552 
993.160 117237320 117641624 118140504 118719952 119368336 120078888 
996.053 120848776 121676320 122556720 123480328 124434688 125407320 
998.946 126389608 127378760 128376248 129382488 130393936 131399680 
1001.839 132383752 133330000 134225840 135067040 135857008 136605568 
1004.731 137324864 138028256 138732176 139456384 140227376 141077504 
1007.624 142038976 143140576 144402272 145831520 147425664 149174848 
1010.517 151066400 153084336 155208512 157412960 159660608 161907792 
1013.409 164111968 166237264 168265744 170199840 172058672 173868224 
1016.302 175651792 177423520 179185328 180931744 182655856 184356384 
1019.195 186040672 187726400 189438944 191214160 193099088 195147968 
1022.087 197426768 200003024 202933072 206257616 209989808 214116656 
1024.980 218601824 223396960 228451664 233709648 239111600 244585392 
1027.873 250031328 255330896 260345872 264926528 268937568 272255072 
1030.766 274768960 276387392 277026496 276618336 275127136 272559328 
1033.659 268976896 264488224 259245360 253419168 247176080 240687392 
1036.552 234115536 227614624 221346480 215461216 210090704 205351904 
1039.446 201326272 198065424 195593232 193901264 192945392 192629776 
1042.339 192806624 193253904 193679536 193772240 193209296 191724384 
1045.232 189168672 185518880 180892352 175503760 169645312 163622144 
1048.125 157703616 152124576 147046576 142559824 138697920 135441088 
1051.018 132735072 130503280 128667384 127154560 125901880 124863152 
1053.911 123999936 123276776 122659104 122107864 121581536 121042912 
1056.804 120458480 119802696 119058904 118214880 117264008 116205528 
1059.697 115047432 113809824 112524328 111235616 109992200 108840824 
1062.590 107823928 106972184 106307072 105841728 105580568 105518416 
1065.483 105635792 105897664 106248504 106614920 106919632 107084792 
1068.376 107048152 106774744 106255864 105509792 104572320 103492392 
1071.269 102321576 101105264 99883888 98684728 97522304 96400216 95313072 
1074.645 94252280 93210696 92188040 91192680 90241064 89352832 88547664 
1078.020 87840544 87239832 86747408 86359976 86070680 85868664 85739072 
1081.395 85663352 85617424 85576224 85518968 85432392 85316888 85186656 
1084.770 85070152 85003336 85025104 85175648 85488672 85992192 86706872 
1088.146 87642320 88796864 90154400 91686328 93352608 95106224 96904336 
1091.521 98709432 100494712 102244168 103944968 105582552 107135920 
1094.414 108573344 109857848 110955024 111840544 112511496 112992264 
1097.307 113339288 113631584 113960608 114416288 115056376 115891248 
1100.200 116865784 117865200 118718296 119225040 119208992 118535072 
1103.093 117147184 115077360 112438392 109400696 106150760 102882672 
1105.986 99761216 96905712 94397496 92271752 90527608 89136760 88055248 
1109.361 87231816 86612128 86148288 85796912 85517880 85275592 85034568 
1112.737 84759488 84420504 83992888 83462120 82825976 82092952 81279944 
1116.112 80407040 79496128 78568232 77641600 76734256 75861752 75035896 
1119.487 74264512 73548976 72885272 72265440 71680640 71124152 70591872 
1122.862 70081968 69591536 69112960 68632920 68130968 67583496 66969900 
1126.238 66276572 65502280 64658680 63770324 62870404 61993264 61172924 
1129.613 60435240 59794804 59254312 58804092 58425784 58093936 57783084 
1132.988 57471544 57144128 56795848 56431320 56063556 55710000 55390572 
1136.363 55124264 54925724 54804856 54764972 54802256 54905948 55058704 
1139.739 55240220 55426896 55597156 55733808 55824568 55863112 55847928 
1143.114 55780524 55664048 55502756 55302500 55070660 54816396 54550852 
1146.489 54285096 54029228 53791804 53578800 53394792 53243516 53128092 
1149.864 53051488 53015772 53021540 53067364 53150300 53266892 53414124 
1153.240 53589860 53793156 54023408 54279392 54558632 54856956 55169788 
1156.615 55492328 55820684 56151444 56481432 56806380 57120848 57418104 
1159.990 57690548 57931704 58136168 58299692 58419076 58489772 58506720 
1163.365 58463920 58355060 58175112 57920916 57591192 57186232 56707828 
1166.740 56158908 55544404 54871884 54153032 53402172 52635700 51871064 
1170.116 51123244 50404984 49726028 49093912 48514768 47994488 47538372 
1173.491 47152204 46841112 46609464 46461204 46400436 46431372 46559780 
1176.866 46792096 47135396 47597156 48184736 48905488 49768420 50783404 
1180.241 51962288 53318884 54866428 56617072 58581148 60765528 63174584 
1183.617 65808728 68662688 71719216 74942168 78274480 81625712 84876704 
1186.992 87893840 90525816 92630408 94092712 94827160 94796736 94012928 
1190.367 92537120 90467904 87930232 85066568 82008264 78873352 75761424 
1193.742 72743392 69872432 67185320 64704368 62442900 60405308 58588240 
1197.118 56981228 55567860 54328916 53241908 52284400 51436040 50676864 
1200.493 49988672 49355688 48763404 48200584 47660124 47139092 46638940 
1203.868 46164308 45721008 45313500 44944296 44612968 44316968 44052596 
1207.243 43816536 43606352 43420480 43257812 43117204 42997708 42898836 
1210.619 42821856 42770592 42751396 42772784 42844492 42975648 43173596 
1213.994 43444136 43790328 44213616 44713000 45285328 45924368 46620608 
1217.369 47362596 48137280 48932448 49738920 50550768 51365620 52184032 
1220.744 53008996 53845100 54698708 55578328 56494752 57459212 58483100 
1224.120 59574960 60738624 61972396 63268096 64612076 65983996 67359368 
1227.495 68709808 70003640 71212640 72313616 73294872 74159048 74924408 
1230.870 75623888 76297072 76991288 77755008 78633400 79673272 80919432 
1234.245 82412664 84193064 86294528 88742312 91553760 94736112 98288296 
1237.621 102199888 106452736 111017104 115846504 120881376 126045136 
1240.514 131248816 136407440 141440704 146281280 150879840 155195344 
1243.407 159191072 162829824 166066848 168848832 171116864 172800192 
1246.300 173821744 174105936 173579648 172191504 169921424 166785904 
1249.193 162835696 158145216 152802560 146892480 140497456 133702560 
1252.086 126595200 119277928 111869920 104491600 97270240 90326728 83758760 
1255.461 77649768 72057152 67009024 62510044 58539932 55061372 52021824 
1258.836 49363412 47029268 44962708 43115740 41449632 39932264 38541684 
1262.212 37262420 36083976 34999792 34004940 33094990 32266062 31513382 
1265.587 30832428 30218324 29665534 29168084 28719556 28313752 27945498 
1268.962 27611946 27312736 27049980 26827488 26649854 26521104 26444788 
1272.337 26424116 26462886 26566364 26741674 26996488 27338176 27771290 
1275.713 28294832 28899422 29564436 30259354 30940440 31554710 32049980 
1279.088 32376464 32499642 32407060 32109950 31641196 31046162 30377738 
1282.463 29683130 28997884 28346220 27739714 27181778 26672720 26212152 
1285.838 25800596 25439420 25130080 24873236 24669288 24518442 24421760 
1289.214 24379982 24393056 24458600 24571734 24725684 24912852 25126992 
1292.589 25364032 25621448 25897198 26188044 26488456 26792384 27095012 
1295.964 27395416 27698180 28013386 28356124 28742072 29186972 29705126 
1299.339 30307954 31004098 31797462 32684404 33649200 34660280 35673216 
1302.715 36629068 37463740 38120808 38553776 38737764 38671256 38375916 
1306.090 37891960 37270764 36572436 35854040 35165212 34546496 34022676 
1309.465 33604624 33290524 33070068 32927752 32847584 32816778 32825072 
1312.840 32864630 32928500 33009398 33099358 33191622 33280936 33364796 
1316.216 33442840 33515278 33581820 33640748 33689692 33726720 33752392 
1319.591 33769872 33784164 33800100 33820764 33845336 33870376 33890616 
1322.966 33901684 33901436 33890472 33872524 33853824 33842972 33850636 
1326.341 33890864 33979968 34133852 34366144 34683496 35083408 35553808 
1329.717 36076380 36631124 37200004 37771112 38338016 38897872 39448720 
1333.092 39986504 40504836 40996296 41453644 41871624 42247868 42582184 
1336.467 42875980 43131512 43352628 43545252 43717916 43882220 44050764 
1339.842 44234084 44439908 44671464 44929340 45213476 45526056 45871892 
1343.218 46258840 46695460 47189620 47748248 48376888 49080112 49861512 
1346.593 50720244 51645944 52611988 53575316 54471140 55221256 55749744 
1349.968 55986692 55886328 55434616 54650912 53586372 52314152 50926408 
1353.343 49516348 48168672 46958160 45935492 45128916 44543940 44166476 
1356.719 43969032 43916788 43977684 44123232 44330324 44582748 44867500 
1360.094 45175788 45504716 45859408 46254232 46710180 47251492 47895396 
1363.469 48643500 49477432 50359068 51235784 52040832 52705316 53161048 
1366.844 53344400 53212132 52747136 51967144 50920560 49681708 48336592 
1370.219 46960816 45617464 44348156 43172824 42099844 41133124 40279200 
1373.595 39551672 38967528 38539908 38271032 38148848 38151596 38254168 
1376.970 38438716 38699544 39045676 39499016 40091652 40866752 41872432 
1380.345 43163932 44796232 46806196 49193832 51894140 54774368 57619716 
1383.720 60160188 62124064 63244180 63317888 62246988 60069888 56983800 
1387.096 53308920 49448876 45766252 42512716 39815244 37679244 36038508 
1390.471 34793904 33849204 33120774 32541316 32063716 31652744 31285710 
1393.846 30952786 30654252 30398562 30195164 30049984 29961222 29921146 
1397.221 29918200 29942196 29987884 30056020 30153892 30291470 30478846 
1400.597 30721246 31018830 31365768 31752866 32168642 32600388 33037390 
1403.972 33470574 33893016 34299228 34684324 35044184 35376416 35682928 
1407.347 35971044 36253448 36546632 36866740 37225092 37626704 38069412 
1410.722 38546968 39052600 39582524 40136568 40716868 41324840 41959460 
1414.098 42616940 43294600 43993488 44721924 45495516 46336248 47268044 
1417.473 48309968 49469780 50734840 52067468 53407828 54685480 55836096 
1420.848 56807896 57569588 58111964 58449324 58624872 58709712 58801624 
1424.223 58997204 59370424 59957320 60751580 61721004 62825948 64037800 
1427.599 65339380 66722056 68179112 69700296 71274952 72899584 74586528 
1430.974 76364744 78267656 80324232 82544192 84918760 87424176 90039920 
1434.349 92761832 95601864 98585888 101734016 105042808 108468536 111942496 
1437.724 115398920 118790024 122086056 125255528 128252160 130992088 
1440.617 133354784 135209152 136413520 136844704 136418224 135087760 
1443.510 132860704 129800368 126037256 121754200 117158512 112480328 
1446.404 107927528 103673080 99854448 96548296 93767464 91456160 89514776 
1449.779 87823952 86279456 84826504 83469144 82267432 81304592 80658752 
1453.154 80363696 80394800 80668728 81059856 81431752 81647832 81621320 
1456.529 81351944 80946056 80575376 80401104 80533456 81012976 81838416 
1459.905 82991120 84441472 86148000 88045992 90052632 92053152 93899552 
1463.280 95437712 96514576 97024624 96948536 96364760 95425000 94294112 
1466.655 93123688 92021568 91050864 90247064 89615896 89135128 88748848 
1470.030 88369424 87887520 87187544 86195360 84914936 83453608 81986176 
1473.406 80698528 79725384 79121000 78882968 78981760 79385536 80068248 
1476.781 81004712 82162456 83490632 84922272 86385928 87806880 89125120 
1480.156 90305600 91339608 92249744 93081648 93899552 94772096 95769336 
1483.531 96968912 98449536 100292640 102570752 105324552 108537952 112110048 
1486.906 115860096 119509064 122702648 125071288 126242864 125930176 
1489.800 124008488 120553896 115846904 110282848 104287360 98199304 92226512 
1493.175 86482552 80998648 75779608 70857224 66299772 62220988 58756672 
1496.550 56016920 54053128 52846220 52331684 52423264 53038384 54109872 
1499.925 55576744 57377868 59449640 61715584 64090676 66489680 68805184 
1503.301 70911456 72654832 73818224 74134368 73314960 71139288 67604784 
1506.676 63017756 57925344 52862276 48165488 43937464 40131300 36657804 
1510.051 33449352 30475790 27746672 25288376 23117872 21236500 19624264 
1513.426 18249352 17077724 16078517 15225642 14492031 13850777 13279644 
1516.802 12764603 12306820 11918409 11611911 11389263 11235817 11119680 
1520.177 11004560 10863174 10695141 10530193 10413329 10377560 10426532 
1523.552 10537119 10673169 10804472 10915054 11009998 11109211 11236429 
1526.927 11404740 11610141 11836307 12065861 12290152 12512887 12746757 
1530.302 13004344 13290747 13599970 13916872 14224728 14516424 14799643 
1533.678 15096118 15426405 15800718 16211294 16639816 17064110 17467294 
1537.053 17842162 18188020 18508496 18805370 19072704 19297074 19465110 
1540.428 19576566 19647594 19703412 19764718 19835706 19904140 19947294 
1543.803 19945872 19893146 19800956 19694988 19604506 19548284 19527454 
1547.179 19528770 19532652 19524924 19503160 19479490 19474292 19507180 
1550.554 19585890 19704870 19849406 20005648 20167642 20339484 20532654 
1553.929 20759450 21024374 21321824 21637204 21951978 22249644 22514712 
1557.304 22730916 22882368 22957570 22962112 22925294 22893998 22908214 
1560.680 22982514 23109870 23268026 23429978 23567750 23660532 23698602 
1564.055 23686844 23642932 23590768 23550610 23529516 23519688 23503178 
1567.430 23460090 23376022 23248098 23086912 22913454 22752530 22622278 
1570.805 22532962 22485852 22477234 22500754 22547028 22602660 22647830 
1574.181 22659000 22615470 22507210 22345876 22164486 22006454 21902002 
1577.556 21857400 21855482 21869246 21872174 21845378 21781760 21682168 
1580.931 21552722 21399230 21225120 21031052 20817184 20586294 20344554 
1584.306 20099720 19857662 19619446 19380080 19132360 18870872 18596676 
1587.682 18319230 18052842 17812922 17611432 17454048 17342202 17275550 
1591.057 17255070 17282654 17357274 17472158 17610536 17747682 17857732 
1594.432 17918226 17918052 17859666 17757138 17630618 17499616 17381276 
1597.807 17288894 17233626 17229076 17289652 17429526 17659916 17985666 
1601.183 18405504 18914580 19507284 20177532 20917272 21712436 22538442 
1604.558 23356932 24123092 24784722 25292520 25609252 25711048 25593962 
1607.933 25272292 24776266 24144598 23417110 22635402 21837226 21057588 
1611.308 20328200 19671238 19097426 18604006 18176722 17793832 17430526 
1614.684 17065626 16684368 16283011 15872264 15475983 15124455 14843939 
1618.059 14649409 14541778 14510737 14538385 14603248 14685497 14768550 
1621.434 14845002 14918517 15003501 15118760 15279351 15490885 15747253 
1624.809 16036263 16346071 16669702 17004942 17351134 17705712 18060718 
1628.185 18404744 18727110 19022264 19292400 19545372 19790518 20032714 
1631.560 20269662 20490556 20679136 20817184 20886956 20875762 20779506 
1634.935 20606272 20376986 20121514 19869696 19641078 19441060 19262922 
1638.310 19092716 18912990 18707358 18465382 18184944 17874340 17549018 
1641.686 17226974 16921428 16635753 16363068 16087871 15791921 15457579 
1645.061 15075466 14648449 14193333 13738453 13316473 12955935 12672925 
1648.436 12470670 12341487 12270451 12236471 12211525 12161568 12043616 
1651.811 11815947 11459406 11004866 10536881 10147844 9887301 9745466 
1655.187 9682442 9653678 9626983 9585621 9524213 9446356 9358830 9268241 
1659.044 9177366 9084955 8986643 8877802 8754619 8616364 8465549 8308099 
1662.901 8152767 8009404 7887345 7792744 7727036 7686428 7662315 7642991 
1666.759 7614362 7564021 7483480 7371106 7232953 7081136 6930619 6793817 
1670.616 6678391 6586712 6516712 6463269 6417533 6368945 6304325 6211581 
1674.474 6085456 5931957 5769783 5622236 5508497 5434745 5394016 5371807 
1678.331 5352720 5327293 5294322 5260582 5236502 5229661 5238883 5252533 
1682.188 5249213 5205851 5106034 4951741 4769296 4599350 4476170 4409656 
1686.046 4389104 4394024 4406074 4412668 4408082 4391815 4365876 4333613 
1689.903 4298341 4264912 4239249 4227505 4234330 4259324 4296267 4331773 
1693.761 4349008 4332141 4273780 4182271 4082956 4007841 3977276 3992892 
1697.618 4037303 4084227 4104229 4074160 3986639 3857247 3721845 3616754 
1701.476 3562464 3555382 3578634 3611141 3635598 3640276 3619494 3574625 
1705.333 3513125 3446357 3385210 3337126 3304806 3286844 3279600 3278365 
1709.190 3280134 3283473 3289549 3300399 3318195 3344038 3376661 3413128 
1713.048 3450198 3484567 3514862 3540517 3561028 3574725 3578233 3568378 
1716.905 3544459 3511856 3481794 3468534 3482730 3528090 3600884 3693306 
1720.763 3796376 3902915 4010148 4118444 4230549 4349912 4478413 4615357 
1724.620 4758743 4905226 5051993 5196965 5337424 5469741 5588773 5688400 
1728.478 5764679 5816525 5847857 5865858 5877613 5886748 5890073 5876370 
1732.335 5829756 5736106 5592498 5415722 5240090 5105128 5035802 5034495 
1736.192 5086488 5170039 5265814 5357148 5433940 5491618 5530779 5556050 
1740.050 5573200 5587598 5601796 5615758 5627473 5634287 5633380 5623008 
1743.907 5602400 5572126 5533397 5487524 5435248 5376538 5309852 5233316 
1747.765 5144523 5041199 4920976 4781858 4622524 4443531 4248617 4045430 
1751.622 3845346 3660191 3498395 3363739 3253293 3159196 3070058 2975434 
1755.479 2867588 2745465 2614975 2487591 2374603 2282694 2210787 2151045 
1759.337 2092876 2024862 1939817 1836355 1719377 1598142 1482791 1382130 
1763.194 1300401 1238193 1193004 1161076 1137555 1116593 1092842 1061951 
1767.052 1022991 979087 936747 903742 884684 878310 877347 870939 847334 
1771.391 800128 731154 652169 579105 525094 495470 487211 492485 503033 
1775.731 513981 524231 535378 549577 566962 585044 599742 606942 605449 
1780.071 597253 587200 580332 579038 582290 585840 584911 576052 559198 
1784.410 537037 514545 496366 485353 482401 486945 498323 516270 540255 
1788.750 568786 597718 621011 631264 622238 591480 542444 483794 426611 
1793.089 380611 350102 334550 329974 331500 335479 340121 344332 347582 
1797.429 348676 345990 338198 325000 307957 290152 275431 266578 264490 
1801.769 268170 275464 284184 292937 301326 309980 319695 330604 343172 
1806.108 356834 371359 385984 400045 411885 420011 422896 420143 412383 
1810.448 401903 391854 384956 382303 383397 386116 388405 388537 387144 
1814.787 385453 386315 391787 403096 419845 441039 465650 493181 524032 
1819.127 559298 599145 643674 691262 739949 787514 831963 870839 902547 
1823.467 925225 938839 944949 948436 955609 972711 1003529 1047336 1099419 
1827.806 1151408 1194499 1222875 1235534 1237827 1239123 1249125 1273948 
1831.664 1313994 1365078 1421088 1477172 1530504 1581647 1632863 1686878 
1835.521 1745259 1808039 1874455 1944277 2018803 2100634 2193370 2299582 
1839.378 2419748 2552545 2694318 2840906 2988645 3134599 3277063 3415465 
1843.236 3550104 3683047 3816365 3952566 4092890 4235635 4376386 4508544 
1847.093 4623930 4714795 4775627 4804003 4800586 4768257 4710507 4630293 
1850.951 4528866 4407413 4267389 4111855 3946146 3776422 3607366 3442550 
1854.808 3282304 3125454 2971197 2819562 2672947 2534781 2407686 2292387 
1858.666 2186843 2087816 1991707 1896752 1803281 1713257 1628838 1550787 
1862.523 1478369 1410085 1344670 1282854 1227128 1180346 1144099 1117590 
1866.380 1096429 1074440 1045875 1008511 964608 920610 884385 862340 856696 
1870.720 865627 884286 907229 929841 948502 960689 964674 958697 942326 
1875.060 915696 880766 840528 798203 756479 715953 675664 634084 590419 
1879.399 544634 498555 454837 415268 379981 347052 313561 277122 236774 
1883.739 193744 150752 110350 73762 40524 9410 -21006 -50957 -78752 -101709 
1888.561 -117709 -125592 -126520 -123307 -118703 -114496 -111183 -108202 
1892.418 -104823 -100947 -96641 -92566 -87597 -80143 -67820 -49068 -24220 
1896.758 3445 29158 47815 55933 53083 41817 26176 10271 -3412 -14644 -23756 
1902.062 -31674 -38102 -41051 -38301 -28626 -12590 7587 28231 45992 58850 
1906.883 66107 68128 65577 58386 46489 30384 11895 -5864 -18952 -24584 
1911.705 -22265 -13617 -2683 7024 12955 14976 14247 11961 7985 463 -13253 
1917.009 -34888 -63248 -93692 -119928 -136755 -143181 -142982 -142287 
1920.866 -148680 -166102 -194155 -227206 -257077 -276680 -282673 -276415 
1924.724 -262574 -247142 -233830 -223895 -216145 -208859 -201441 -194453 
1928.581 -189352 -186769 -185974 -185113 -181304 -173620 -163088 -152687 
1932.439 -146494 -146394 -151462 -158384 -162723 -161200 -153052 -141194 
1936.296 -129567 -121684 -118272 -117709 -116781 -112939 -106380 -99755 
1940.154 -97469 -103895 -120756 -146692 -177429 -208131 -233598 -250619 
1944.011 -257640 -253467 -237141 -208628 -169149 -122876 -76566 -37472 
1947.868 -11994 -1391 -1722 -5632 -4804 6063 27005 52255 73563 83373 78037 
1953.172 59115 32439 4307 -20178 -40951 -60929 -85576 -118802 -162260 
1957.512 -213264 -266481 -315189 -353098 -377001 -386303 -382695 -371505 
1961.369 -358594 -351376 -356243 -376901 -412323 -457108 -501326 -534785 
1965.227 -548121 -537929 -506555 -461808 -413514 -369121 -333995 -309394 
1969.084 -295786 -294229 -307275 -336544 -383622 -444034 -509600 -568175 
1972.942 -608146 -621811 -607021 -566752 -506588 -430926 -341245 -236115 
1976.799 -115754 15672 147405 263760 349970 395104 397060 362140 302619 
1981.139 232895 163878 102959 52487 10603 -24949 -56390 -83854 -106645 
1985.478 -124400 -136192 -142287 -142651 -137120 -125791 -109063 -88690 
1989.336 -67853 -51056 -41150 -39228 -43701 -49996 -52547 -47279 -31873 
1993.675 -8581 19582 47583 71310 88808 99479 104318 104915 102926 99512 
1998.497 95436 90995 85461 77474 64781 44666 14976 -25247 -73915 -127944 
2003.319 -181370 -228829 -265355 -287276 -293965 -285157 -261613 -224259 
2007.176 -174945 -116417 -53176 8117 61633 101468 125032 132622 127518 
2011.516 114990 101004 90266 86123 91028 105147 128413 159470 196893 238067 
2016.338 281299 324437 366252 406811 445815 484126 521411 556776 590452 
2020.677 622404 653165 684226 716783 751201 787149 822469 856231 886776 
2025.017 915629 944916 975899 1009241 1043384 1074041 1096761 1108753 
2028.874 1110281 1105232 1099950 1101512 1115397 1144232 1186691 1240120 
2032.732 1301598 1368369 1439804 1515275 1594184 1674338 1752511 1825540 
2036.589 1891627 1949835 2001993 2051028 2099003 2147349 2195135 2240461 
2040.447 2280996 2314139 2339922 2358911 2373636 2386996 2401623 2418148 
2044.304 2437174 2457833 2479960 2503920 2532181 2568010 2614708 2674548 
2048.161 2746532 2824431 2900009 2962623 3003492 3018372 3009397 2984642 
2052.019 2957052 2939037 2941873 2970596 3024679 3096687 3176919 3254528 
2055.876 3321534 3373589 3410790 3435169 3450699 3460585 3467365 3472643 
2059.734 3477753 3483765 3491247 3500399 3511021 3521877 3530629 3534938 
2063.591 3533001 3523146 3505676 3481494 3452837 3422545 3392824 3366510 
2067.448 3345541 3330882 3323003 3321400 3324739 3330649 3336792 3341400 
2071.306 3343470 3343337 3342769 3344372 3350048 3361568 3378999 3400938 
2075.163 3424883 3447794 3467666 3483231 3494954 3504607 3514228 3525819 
2079.021 3540784 3559458 3580839 3604125 3627513 3649432 3668912 3685186 
2082.878 3698051 3707742 3715395 3721979 3729331 3738354 3749082 3760680 
2086.736 3770005 3774249 3770239 3756034 3732172 3700691 3664802 3628348 
2090.593 3594536 3565170 3540851 3522244 3509919 3505042 3509651 3525551 
2094.450 3552677 3589759 3632926 3677266 3717868 3751221 3776121 3794070 
2098.308 3807139 3819139 3832243 3848054 3867042 3888773 3912811 3939559 
2102.165 3969652 4004363 4045095 4092923 4147948 4209003 4274382 4341478 
2106.023 4407212 4469407 4526288 4577584 4624834 4670181 4716537 4766046 
2109.880 4819984 4878083 4938939 5000641 5061513 5120651 5176980 5230767 
2113.738 5281476 5328300 5370667 5408073 5440751 5469841 5497390 5525376 
2117.595 5554942 5586222 5618142 5648788 5676583 5700687 5721368 5740102 
2121.452 5759173 5780964 5807693 5841140 5882349 5931890 5988358 6050008 
2125.310 6113716 6176089 6234807 6288222 6336566 6381621 6425907 6470432 
2129.167 6515467 6559463 6600269 6636535 6668903 6700565 6736773 6782745 
2133.025 6841780 6914391 6997453 7085986 7174100 7256941 7331542 7395978 
2136.882 7449637 7491537 7520799 7537622 7542814 7540117 7534014 7528924 
2140.740 7527407 7528823 7529092 7523226 7505797 7474210 7428941 7372387 
2144.597 7309033 7242151 7173628 7103365 7030419 6952705 6869248 6778841 
2148.454 6681924 6578234 6468582 6353007 6232555 6108104 5979994 5848193 
2152.312 5711866 5569273 5418607 5260011 5094232 4925132 4758710 4603938 
2156.169 4471918 4375114 4326050 4334517 4402727 4523007 4677985 4844309 
2160.027 4997390 5119981 5204175 5252801 5275674 5285233 5291840 5298783 
2163.884 5305089 5305726 5295899 5273964 5242405 5205147 5166082 5125479 
2167.741 5080320 5025679 4957003 4873928 4779312 4679056 4578857 4482129 
2171.599 4389238 4298944 4210977 4128011 4056467 4005065 3978982 3978647 
2175.456 3996270 4018809 4030648 4017505 3972963 3897465 3797780 3684818 
2179.314 3570315 3465462 3378966 3317794 3284975 3280167 3297094 3325507 
2183.171 3352185 3364807 3355725 3324672 3278598 3229124 3187166 3160932 
2187.029 3151019 3153422 3161232 3169042 3173782 3176552 3179155 3182960 
2190.886 3186799 3187500 3181425 3168208 3149450 3131061 3119013 3117612 
2194.743 3127123 3145212 3167140 3188935 3209430 3229959 3252392 3278598 
2198.601 3307377 3335991 3362103 3383774 3402174 3420675 3442116 3467065 
2202.458 3492449 3511789 3518537 3508750 3482529 3445456 3405247 3370183 
2206.316 3345173 3331283 3326041 3325574 3326776 3328545 3330716 3334489 
2210.173 3340766 3348913 3358730 3370484 3385043 3404645 3430661 3463424 
2214.031 3500900 3539515 3574992 3604125 3625308 3638973 3646658 3649999 
2217.888 3649766 3646725 3641579 3635999 3632692 3633694 3640009 3650167 
2221.745 3660759 3667375 3667375 3660525 3649966 3640477 3636567 3639742 
2225.603 3648362 3658921 3667442 3671686 3672287 3672053 3674426 3680274 
2229.460 3689028 3697851 3703799 3705804 3705637 3706372 3711786 3722948 
2233.318 3738555 3754330 3766061 3770874 3769269 3764256 3760680 3762585 
2237.175 3772378 3790259 3815228 3845447 3880013 3917726 3957213 3995333 
2241.032 4028775 4053323 4066868 4070781 4069243 4069243 4077504 4097974 
2244.890 4131591 4176383 4227538 4280673 4332676 4380971 4424317 4461172 
2248.747 4489427 4507606 4515842 4516211 4513097 4511456 4515373 4526489 
2252.605 4543297 4562584 4580966 4596738 4610368 4623060 4636388 4649449 
2256.462 4659664 4663348 4657353 4641244 4617233 4589438 4561445 4535462 
2260.320 4510921 4486582 4461005 4434928 4411697 4396200 4392016 4400217 
2264.177 4418191 4440116 4460201 4473726 4479384 4478580 4474630 4470278 
2268.034 4466696 4463616 4460001 4455716 4451531 4449456 4451163 4456821 
2271.892 4464922 4472722 4477710 4479049 4478379 4479250 4484907 4497998 
2275.749 4518085 4542862 4568878 4593624 4615558 4634747 4651928 4667368 
2279.607 4680765 4691549 4699220 4704579 4709435 4716804 4728428 4744607 
2283.464 4763500 4781825 4796197 4804237 4805410 4800921 4792445 4782093 
2287.322 4770870 4759078 4747354 4736333 4727255 4721394 4718547 4717809 
2291.179 4717340 4714728 4709000 4700861 4692956 4688769 4690779 4699956 
2295.036 4714962 4732916 4750704 4766147 4778676 4789262 4799447 4809732 
2298.894 4820185 4829734 4837205 4842298 4845515 4847793 4850105 4852082 
2302.751 4852651 4849837 4842499 4830605 4816030 4801256 4789162 4782059 
2306.609 4780284 4783533 4791104 4802563 4818208 4838479 4863642 4892627 
2310.466 4923423 4953752 4981703 5006775 5029835 5052797 5077336 5104122 
2314.323 5132184 5159578 5183988 5203638 5218024 5227314 5232075 5232478 
2318.181 5228353 5220103 5208467 5196261 5186905 5183686 5188716 5201258 
2322.038 5217454 5231304 5236435 5227716 5202599 5161455 5107173 5044115 
2325.896 4977179 4910822 4849435 4795829 4752144 4718915 4695267 4679324 
2329.753 4668607 4661205 4656282 4654205 4656248 4663181 4675272 4691215 
2333.611 4709368 4727892 4746148 4764472 4784472 4807018 4832347 4859755 
2337.468 4887466 4913972 4939341 4965080 4993434 5026618 5065134 5107408 
2341.325 5150491 5190762 5225570 5254176 5277485 5297575 5316459 5335948 
2345.183 5358054 5385159 5420889 5468868 5532021 5610791 5702668 5801918 
2349.040 5900351 5989669 6062507 6113850 6142515 6150447 6141944 6122050 
2352.898 6095369 6065598 6035493 6007877 5985066 5969042 5960644 5958964 
2356.755 5961954 5966993 5973006 5980094 5990273 6005391 6026153 6051049 
2360.613 6076317 6098259 6113985 6123495 6129712 6136903 6149035 6168494 
2364.470 6195347 6228387 6266472 6308527 6354857 6405394 6459065 6513179 
2368.327 6564039 6608578 6644779 6673950 6699455 6725332 6755215 6791024 
2372.185 6832557 6878808 6928599 6981728 7038367 7099054 7163421 7229887 
2376.042 7296229 7360558 7422301 7482368 7542949 7606202 7673005 7742585 
2379.900 7812783 7881170 7945889 8007007 8065738 8124475 8184606 8246636 
2383.757 8309586 8371768 8431764 8488930 8543737 8596592 8647864 8696877 
2387.615 8742178 8782546 8818184 8850343 8881894 8915579 8953189 8994423 
2391.472 9037454 9079305 9117538 9151343 9181834 9210499 9239572 9270170 
2395.329 9302260 9335401 9369190 9403860 9440633 9480999 9525669 9574545 
2399.187 9626135 9678749 9731301 9783656 9837002 9893030 9953100 10018062 
2403.044 10087611 10161310 10239058 10321095 10408239 10500660 10597822 
2406.419 10697857 10798697 10898474 10996744 11095104 11196104 11302535 
2409.795 11415966 11535856 11660817 11788062 11915718 12042321 12167769 
2413.170 12291378 12411852 12526971 12633593 12729424 12813264 12885686 
2416.545 12948834 13004891 13055593 13101043 13141101 13175288 13204731 
2419.920 13231989 13260410 13293002 13331505 13375618 13423766 13474073 
2423.296 13526130 13580654 13640211 13706410 13780520 13861896 13949171 
2426.671 14041048 14137842 14241504 14355396 14483261 14626379 14784114 
2430.046 14954148 15133067 15318100 15508088 15703106 15903849 16110461 
2433.421 16321953 16536785 16753927 16973208 17196808 17427144 17666748 
2436.797 17916498 18175306 18440488 18708672 18977746 19246296 19514286 
2440.172 19781328 20046386 20307228 20561176 20806442 21043432 21274914 
2443.547 21505126 21737448 21973758 22213200 22452598 22688638 22918622 
2446.922 23141810 23359100 23571598 23779966 23983322 24180328 24369538 
2450.298 24551432 24727964 24901764 25075560 25249322 25421714 25589886 
2453.673 25751758 25907326 26059256 26212048 26370174 26535826 26708516 
2457.048 26885048 27061122 27233422 27400498 27562446 27719794 27872536 
2460.423 28019004 28156296 28281818 28394782 28496316 28590084 28680300 
2463.799 28770570 28863796 28961366 29065154 29177866 29303612 29447302 
2467.174 29613138 29803204 30017674 30254664 30512578 30790350 31088802 
2470.549 31409326 31752828 32118298 32502536 32900408 33306730 33717480 
2473.924 34130768 34546176 34962872 35378608 35789236 36188980 36571644 
2477.300 36932788 37269640 37581324 37867200 38125624 38353796 38547804 
2480.675 38704724 38823260 38904284 38950784 38966256 38953356 38914140 
2484.050 38850328 38764676 38661444 38546500 38425576 38302552 38178148 
2487.425 38049844 37913220 37764284 37601196 37424732 37237116 37040556 
2490.801 36835140 36618724 36387204 36136584 35864476 35570604 35256084 
2494.176 34922080 34568740 34194788 33798664 33379860 32939940 32482218 
2497.551 32011672 31531978 31045024 30550898 30048528 29537872 29021050 
2500.926 28502330 27987126 27480088 26983900 26498984 26024390 25559206 
2504.302 25104242 24661678 24233966 23823332 23430258 23053298 22690524 
2507.677 22341132 22005790 21687184 21388508 21111606 20856744 20621802 
2511.052 20403726 20200094 20009744 19833176 19670962 19523330 19389088 
2514.427 19265902 19152514 19049094 18958260 18884404 18831320 18801010 
2517.802 18791738 18799142 18817688 18843154 18873780 18910670 18955940 
2521.178 19011220 19076166 19148254 19223542 19299222 19373948 19448786 
2524.553 19525132 19603604 19683096 19760106 19830782 19891930 19942194 
2527.928 19982266 20013214 20035246 20046418 20043124 20021332 19978448 
2531.303 19914686 19833418 19739646 19638166 19532446 19423700 19312144 
2534.679 19198122 19082916 18968470 18857236 18750428 18647586 18547398 
2538.054 18448372 18350716 18256644 18169466 18092290 18026176 17969436 
2541.429 17918016 17867538 17814890 17759796 17704402 17651462 17602670 
2544.804 17557434 17513070 17466018 17413694 17355962 17295100 17234660 
2548.180 17177572 17125284 17077378 17032130 16988128 16944958 16903374 
2551.555 16863932 16827112 16791912 16756820 16720662 16684093 16648803 
2554.930 16618196 16594270 16577231 16565079 16553789 16539538 16520195 
2558.305 16496103 16469464 16442450 16415885 16388459 16357219 16319133 
2561.681 16273310 16220752 16164863 16109567 16057096 16008072 15961112 
2565.056 15914917 15869068 15825253 15786320 15754949 15732273 15717123 
2568.431 15706405 15697610 15689468 15683731 15683388 15691254 15708672 
2571.806 15733957 15763126 15791954 15817624 15839858 15860958 15883675 
2575.182 15910413 15941141 15974211 16007006 16038084 16067859 16098151 
2578.557 16131574 16169576 16212016 16257212 16303308 16349442 16396752 
2581.932 16447509 16504053 16567420 16636614 16708884 16781236 16851878 
2585.307 16920876 16990160 17062078 17138140 17218526 17301756 17386068 
2588.683 17470536 17555572 17642214 17731666 17824038 17917878 18010982 
2592.058 18100924 18187088 18270190 18352066 18433954 18516276 18597264 
2595.433 18674114 18744442 18807306 18863710 18915930 18966878 19018178 
2598.808 19070212 19122666 19175334 19229154 19286094 19348552 19418018 
2602.184 19493906 19574210 19655534 19736006 19815418 19896232 19982056 
2605.559 20075916 20179130 20290736 20408068 20528382 20650502 20775126 
2608.934 20904686 21041068 21184972 21335258 21488764 21642672 21794928 
2612.309 21945112 22094440 22244028 22394264 22543990 22691118 22833754 
2615.685 22971196 23104278 23234570 23363748 23491950 23618022 23739684 
2619.060 23855080 23963434 24065650 24163372 24258456 24351420 24441880 
2622.435 24528432 24610200 24687490 24761780 24834852 24908010 24981072 
2625.810 25052182 25119338 25180884 25236540 25287848 25336810 25384794 
2629.186 25431796 25476522 25517142 25553056 25584614 25614102 25644506 
2632.561 25677652 25713578 25750494 25786004 25817930 25845782 25870400 
2635.936 25893786 25916894 25939192 25959382 25975176 25985764 25992376 
2639.311 25998394 26007856 26024390 26049546 26082302 26120830 26162670 
2642.687 26206802 26253862 26305432 26362956 26426266 26494336 26565024 
2646.062 26636606 26708834 26782554 26859880 26942228 27029596 27120580 
2649.437 27212960 27304548 27394426 27483018 27571732 27661806 27753348 
2652.812 27845368 27936418 28025614 28113272 28201268 28291896 28387000 
2656.188 28487364 28592492 28700760 28811356 28923752 29038622 29156602 
2659.563 29277878 29401172 29524324 29644850 29761258 29873900 29984478 
2662.938 30095580 30209194 30325612 30443626 30561422 30677186 30791060 
2666.313 30904076 31018084 31134860 31254552 31375990 31497314 31617072 
2669.688 31735006 31852334 31970974 32092504 32217492 32345158 32474146 
2673.064 32603386 32733348 32865670 33002392 33145022 33293780 33447492 
2676.439 33603764 33760812 33918056 34076108 34236696 34401216 34570316 
2679.814 34743292 34919208 35097132 35277144 35460000 35646848 35838460 
2683.189 36034184 36232704 36433076 36634696 36838860 37047880 37263936 
2686.565 37488408 37720732 37958928 38200292 38442988 38686792 38933168 
2689.940 39184032 39440956 39704240 39972660 40244628 40519168 40796608 
2693.315 41078528 41367260 41663876 41967852 42277376 42589788 42903444 
2696.690 43218100 43535436 43857736 44187240 44524156 44867212 45214360 
2700.066 45563404 45913356 46264220 46616620 46970784 47326012 47680240 
2703.441 48031716 48379076 48722776 49064496 49405920 49747876 50089392 
2706.816 50427908 50760164 51083880 51398144 51704608 52005352 52302752 
2710.191 52597812 52890228 53179064 53463628 53744552 54023408 54301768 
2713.567 54580984 54860076 55136940 55408676 55672480 55926312 56169428 
2716.942 56401440 56621376 56827572 57017764 57190616 57346480 57488300 
2720.317 57620928 57750116 57881272 58017696 58161856 58314848 58478400 
2723.692 58654908 58847456 59059152 59291572 59544100 59814880 60101168 
2727.068 60400624 60712404 61036536 61373464 61722384 62081440 62447108 
2730.443 62816068 63185616 63554628 63923500 64292224 64660104 65024680 
2733.818 65382092 65728420 66060832 66378324 66681296 66971020 67247944 
2737.193 67511344 67759712 67991760 68207848 68410808 68604632 68794192 
2740.569 68983448 69174888 69369664 69568824 69774176 69989392 70218744 
2743.944 70466368 70734104 71021512 71325784 71643248 71970520 72305944 
2747.319 72648216 72995920 73345712 73691896 74026616 74342008 74631104 
2750.694 74889368 75114896 75307096 75465776 75589896 75678432 75730424 
2754.070 75746360 75728248 75678432 75598296 75487064 75341096 75154888 
2757.445 74922528 74640624 74308352 73927768 73502224 73035040 72528376 
2760.820 71983304 71401664 70786912 70144624 69483272 68811624 68137336 
2764.195 67467224 66805908 66157712 65528020 64922860 64349472 63814572 
2767.571 63322796 62876196 62474348 62115692 61799084 61524084 61291156 
2770.946 61100796 60952192 60842404 60767356 60721324 60699600 60698384 
2774.321 60713928 60743384 60782412 60825632 60867368 60901828 60924816 
2777.696 60933396 60925848 60900420 60854788 60785880 60691336 60570256 
2781.072 60425376 60261660 60086708 59907904 59731120 59558888 59392380 
2784.447 59231108 59075020 58924600 58780380 58642048 58506872 58369880 
2787.822 58224248 58062688 57880592 57675076 57446396 57196248 56926980 
2791.197 56640972 56340360 56028420 55710072 55391552 55080628 54783876 
2794.573 54507124 54254124 54027088 53827732 53658536 53522500 53423080 
2797.948 53362344 53341176 53358372 53411504 53498104 53617260 53768368 
2801.323 53952196 54168160 54414160 54686272 54979348 55288348 55609812 
2804.698 55941576 56282720 56631988 56986972 57344064 57698156 58044284 
2808.073 58378444 58697420 58998116 59277136 59529168 59747996 59927304 
2811.449 60061824 60148888 60188580 60182796 60134008 60044324 59915172 
2814.824 59748340 59547028 59317360 59067540 58807468 58547364 58295600 
2818.199 58059584 57845688 57659520 57508080 57397984 57334988 57322472 
2821.574 57360020 57444008 57568228 57726012 57911148 58118592 58343652 
2824.950 58581184 58824124 59064468 59293700 59504388 59691656 59852912 
2828.325 59987480 60095040 60175260 60227668 60252752 60252904 60233112 
2831.700 60200304 60161600 60123008 60087124 60054480 60023852 59994904 
2835.075 59969108 59950092 59942520 59950736 59977552 60023624 60089292 
2838.451 60176176 60288116 60432156 60616732 60850788 61143020 61500036 
2841.826 61928948 62437736 63036524 63737548 64554140 65497040 66573328 
2845.201 67782568 69115672 70551840 72058048 73589008 75082168 76465488 
2848.576 77661928 78592416 79194040 79426112 79277072 78766488 77940952 
2851.952 76868120 75619704 74269656 72885240 71519040 70213792 68999144 
2855.327 67891608 66897312 66012880 65228088 64528728 63899936 63328700 
2858.702 62804012 62316972 61859976 61424836 61003172 60587324 60170428 
2862.077 59747848 59317092 58876412 58424724 57961164 57485272 56999664 
2865.453 56509924 56026724 55562096 55130136 54742832 54408076 54130400 
2868.828 53910968 53749316 53644144 53592968 53591732 53632408 53703416 
2872.203 53790940 53879572 53956588 54013352 54045884 54054104 54039880 
2875.578 54005624 53952796 53882760 53797204 53698844 53591472 53478952 
2878.954 53364404 53249400 53133976 53018244 52903068 52791180 52686348 
2882.329 52593100 52514232 52450632 52400908 52363004 52335084 52316992 
2885.704 52309816 52315196 52334112 52366108 52409360 52461812 52522420 
2889.079 52591344 52670824 52762968 52869612 52991028 53126484 53275432 
2892.455 53438556 53618836 53821168 54051292 54314536 54614840 54954640 
2895.830 55334792 55754600 56211628 56700240 57209668 57724948 58226412 
2899.205 58692684 59106148 59455188 59736896 59956784 60127844 60266384 
2902.580 60388664 60510604 60646528 60808860 61010416 61263032 61576732 
2905.956 61960052 62419372 62959760 63587732 64312240 65145156 66101728 
2909.331 67195456 68436368 69824720 71350392 72988232 74698312 76430520 
2912.706 78121584 79701024 81101624 82258264 83120536 83659488 83868552 
2916.081 83764952 83383664 82773576 81986136 81069272 80067376 79015736 
2919.457 77943376 76874440 75826440 74811312 73835104 72897936 71996488 
2922.832 71126576 70285968 69475376 68698816 67960840 67265464 66614388 
2926.207 66006444 65438792 64907700 64409464 63939244 63490928 63056716 
2929.582 62627152 62193568 61750148 61295616 60833484 60370964 59916920 
2932.958 59478172 59059532 58663060 58289916 57941584 57620928 57331244 
2936.333 57075424 56854232 56666112 56507960 56376988 56272348 56195412 
2939.708 56149440 56137452 56160528 56217020 56302864 56412192 56539664 
2943.083 56679592 56825492 56969176 57098928 57199916 57256920 57256428 
2946.458 57190240 57057928 56866660 56629984 56363784 56086176 55813980 
2949.834 55561384 55340508 55160684 55026432 54938468 54892564 54881244 
2953.209 54895008 54925460 54966672 55015108 55069344 55128252 55189048 
2956.584 55247896 55300016 55341940 55373068 55395992 55415752 55437440 
2959.959 55465184 55500612 55543424 55592564 55647472 55708680 55776756 
2963.335 55851884 55932344 56014852 56095372 56171012 56240740 56306408 
2966.710 56370652 56436376 56504376 56573784 56642556 56709680 56776020 
2970.085 56845544 56923468 57015004 57123040 57247656 57386340 57535088 
2973.460 57690056 57848300 58007360 58164508 58315720 58456148 58579896 
2976.836 58682100 58759364 58810544 58835848 58835808 58810808 58760768 
2980.211 58686536 58590440 58477720 58355248 58230428 58109392 57994368 
2983.586 57884340 57774832 57660012 57533388 57388720 57220744 57023432 
2986.961 56791504 56520752 56209288 55859236 55476100 55068632 54645384 
2990.337 54212568 53772940 53326076 52869648 52402744 51927448 51448684 
2993.712 50973356 50506884 50052060 49607416 49168488 48728820 48282708 
2997.087 47826292 47357052 46874256 46377688 45867692 45346196 44816068 
3000.462 44282880 43752436 43230836 42721888 42227196 41745944 41276700 
3003.838 40818776 40373260 39942512 39529172 39134572 38757468 38395424 
3007.213 38044996 37703852 37371900 37050480 36741304 36444424 36158120 
3010.588 35878044 35599984 35320880 35040340 34760520 34485220 34217340 
3013.963 33958288 33707380 33462952 33223740 32989878 32762538 32543424 
3017.339 32333128 32130572 31933208 31738252 31543988 31351056 31161772 
3020.714 30979224 30805752 30642090 30487412 30340784 30201914 30072638 
3024.089 29956502 29857398 29778292 29720312 29682704 29663938 29661666 
3027.464 29674580 29700656 29735996 29774600 29807356 29823360 29812964 
3030.840 29768958 29688274 29572242 29425070 29251862 29057220 28845100 
3034.215 28619636 28385126 28147244 27911790 27683348 27463922 27252686 
3037.590 27046982 26843700 26641396 26441126 26245554 26057600 25878594 
3040.965 25707674 25542232 25379206 25217438 25057800 24903028 24756588 
3044.341 24620298 24493970 24375322 24261784 24151464 24044848 23943794 
3047.716 23850074 23764708 23686248 23611864 23538402 23464356 23390290 
3051.091 23318540 23251280 23189760 23132760 23077826 23021956 22964174 
3054.466 22905874 22849956 22799776 22757454 22722188 22691430 22661756 
3057.842 22631004 22599484 22569712 22545002 22528112 22519598 22518480 
3061.217 22522564 22530066 22540640 22555438 22576030 22603464 22637636 
3064.592 22677642 22721736 22769046 22819156 22872170 22927322 22982480 
3067.967 23033730 23076674 23107494 23124198 23127168 23118152 23098932 
3071.343 23070594 23032998 22985624 22928928 22865570 22799984 22737480 
3074.718 22681934 22634704 22593900 22555996 22516978 22474722 22429642 
3078.093 22383622 22338900 22296520 22255190 22212816 22167136 22117520 
3081.468 22065992 22015098 21967660 21924722 21885276 21847086 21808132 
3084.844 21768312 21729748 21695648 21669316 21652286 21643438 21640304 
3088.219 21640338 21642080 21646328 21654548 21668234 21686696 21707454 
3091.594 21726996 21742254 21752148 21758660 21765316 21775940 21792592 
3094.969 21815134 21841440 21868862 21895938 21922770 21950758 21981358 
3098.344 22014924 22050236 22085376 22118776 22150678 22182584 22217142 
3101.720 22256550 22300670 22347586 22394438 22438398 22479084 22517818 
3105.095 22556834 22598472 22642524 22687486 22730184 22768522 22802324 
3108.470 22833542 22866092 22902940 22945798 22993832 23044632 23095754 
3111.845 23145970 23195634 23246316 23299208 23353854 23408366 23460054 
3115.221 23506920 23549036 23588214 23627188 23668090 23710954 23753858 
3118.596 23793790 23828336 23857286 23882736 23907730 23934898 23965360 
3121.971 23998240 24031260 24062850 24092864 24123092 24156018 24193116 
3125.346 24234070 24276710 24318022 24355940 24390986 24425300 24462456 
3128.722 24504804 24552240 24602202 24650772 24694820 24733226 24767568 
3132.097 24801174 24837064 24876920 24919940 24964404 25008518 25052146 
3135.472 25096976 25145248 25198968 25258032 25320546 25383386 25444024 
3138.847 25501434 25556392 25610938 25666122 25721944 25777074 25829852 
3142.223 25879472 25927516 25976758 26030336 26089902 26154682 26221268 
3145.598 26286104 26346446 26402496 26456760 26513636 26576472 26646542 
3148.973 26722506 26801336 26880078 26957068 27032242 27106580 27180650 
3152.348 27253778 27324098 27389874 27450544 27507798 27565130 27626072 
3155.724 27692814 27764968 27839786 27913450 27983132 28048480 28111222 
3159.099 28174644 28240904 28311030 28383960 28457964 28532124 28606860 
3162.474 28683946 28765508 28852076 28942026 29032172 29118866 29200650 
3165.849 29278162 29354268 29432160 29513578 29598170 29682776 29764098 
3169.225 29840362 29912094 29982454 30055060 30132300 30214452 30298966 
3172.600 30382572 30463386 30541192 30618196 30697170 30779252 30863378 
3175.975 30946950 31026482 31100332 31169604 31237782 31309068 31386138 
3179.350 31468850 31554356 31639096 31720430 31798284 31875438 31955284 
3182.726 32040708 32131500 32225274 32317922 32407168 32492250 32575030 
3186.101 32658860 32746460 32838970 32934900 33032422 33130180 33228282 
3189.476 33328698 33433788 33544592 33660008 33777068 33892116 34002824 
3192.851 34108652 34212212 34316080 34422448 34531284 34641044 34749072 
3196.227 34854396 34957308 35060132 35165424 35274520 35386620 35499296 
3199.602 35609836 35717100 35822196 35928180 36038252 36154228 36274988 
3202.977 36397724 36518448 36634728 36746752 36857144 36968572 37083392 
3206.352 37201304 37320188 37437156 37550688 37661032 37770680 37882384 
3209.728 37998056 38117192 38237776 38357164 38473760 38588284 38703384 
3213.103 38821992 38945924 39074640 39205720 39336400 39464580 39590000 
3216.478 39714044 39838228 39962964 40086784 40207372 40322536 40432424 
3219.853 40539392 40647952 40762140 40883972 41012864 41145800 41278816 
3223.229 41409468 41537456 41664244 41791508 41919976 42048264 42173852 
3226.604 42294104 42408364 42518856 42629188 42743280 42862740 42986220 
3229.979 43109884 43229740 43342892 43449700 43552320 43654492 43758336 
3233.354 43864144 43969984 44073720 44174072 44272132 44370692 44473056 
3236.729 44581096 44694672 44811552 44928608 45044076 45158104 45272384 
3240.105 45388936 45508872 45631196 45753148 45872296 45986508 46096400 
3243.480 46204072 46312252 46422524 46535364 46649896 46765384 46881784 
3246.855 47001024 47125428 47257292 47396848 47542404 47690780 47838832 
3250.230 47984532 48128024 48270268 48412856 48555560 48697608 48837444 
3253.606 48974580 49110348 49248496 49393296 49547764 49712392 49884516 
3256.981 50059684 50232988 50401600 50565360 50725828 50885240 51044676 
3260.356 51203944 51361332 51515684 51667212 51818384 51972000 52130900 
3263.731 52295988 52465884 52638244 52810556 52981820 53152924 53326004 
3267.107 53502340 53682496 53864980 54047684 54229196 54409804 54591128 
3270.482 54775044 54962348 55151688 55339948 55523652 55700884 55872688 
3273.857 56042856 56216340 56396684 56585140 56779644 56977188 57174744 
3277.232 57371972 57570612 57774148 57984828 58202996 58426312 58651492 
3280.608 58875496 59098024 59321084 59547864 59780888 60020312 60263868 
3283.983 60508132 60750512 60991732 61234912 61484688 61745184 62017912 
3287.358 62300908 62590524 62882744 63175656 63470260 63768828 64073852 
3290.733 64386284 64704792 65026908 65350660 65675692 66004516 66340380 
3294.109 66685700 67040920 67403784 67770984 68139816 68509768 68883024 
3297.484 69263248 69653224 70053864 70463088 70877432 71293880 71711760 
3300.859 72133120 72561224 72999832 73450000 73911264 74380856 74856464 
3304.234 75337120 75824272 76320144 76826552 77343728 77869880 78402896 
3307.610 78941224 79486384 80041392 80610480 81196288 81798488 82413824 
3310.985 83038056 83666960 84299752 84938552 85587360 86250040 86927808 
3314.360 87619088 88320168 89027248 89738584 90454968 91179144 91914080 
3317.735 92660600 93417976 94183216 94953800 95728320 96507208 97291888 
3321.111 98083176 98879904 99679600 100478344 101273584 102064456 102852952 
3324.486 103641360 104431168 105221064 106007152 106784160 107547056 
3327.379 108293232 109023072 109737960 110439376 111126344 111795800 
3330.272 112443368 113065888 113661584 114231032 114775592 115295080 
3333.165 115786504 116244104 116661016 117032472 117356992 117637800 
3336.058 117880232 118090136 118270696 118421296 118538640 118618096 
3338.951 118656720 118653104 118607512 118520576 118391440 118217616 
3341.844 117996216 117725352 117404408 117035848 116621656 116163928 
3344.737 115661688 115112560 114513016 113861504 113159704 112411728 
3347.630 111624000 110802240 109949728 109067832 108156480 107216544 
3350.523 106250704 105263528 104259520 103242144 102212008 101167744 
3353.417 100107384 99031040 97941544 96845400 95749840 94661360 93584440 
3356.792 92520640 91470192 90433744 89412960 88410768 87429888 86471392 
3360.167 85534056 84615328 83712720 82825808 81956080 81107024 80280616 
3363.542 79476880 78692808 77923392 77164872 76416936 75683480 74970912 
3366.917 74286056 73632072 73007872 72407592 71823936 71251016 70686488 
3370.293 70131776 69589544 69062376 68549808 68048960 67555352 67065516 
3373.668 66578156 66094132 65615296 65142884 64676024 64212388 63749984 
3377.043 63288220 62828860 62375608 61931964 61498736 61074024 60653000 
3380.418 60230488 59802752 59369020 58931244 58492464 58054508 57617676 
3383.794 57180412 56741396 56300712 55860664 55424224 54994052 54570388 
3387.169 54150556 53730640 53307724 52881436 52454820 52033180 51621124 
3390.544 51220348 50829256 50443164 50057972 49671340 49284944 48902816 
3393.919 48529400 48166412 47811864 47461232 47109216 46752912 46393320 
3397.295 46033844 45679852 45335016 44999676 44671608 44347572 44024804 
3400.670 43703332 43384520 43070400 42761228 42455640 42150004 41841236 
3404.045 41528156 41212760 40899044 40591376 40291780 39999652 39712228 
3407.420 39425424 39136932 38846704 38556528 38268676 37984204 37702228 
3410.796 37420908 37138680 36855880 36574964 36299808 36033860 35777900 
3414.171 35529392 35284116 35037576 34787084 34533080 34277748 34024112 
3417.546 33774132 33527948 33284408 33042506 32802734 32566778 32337022 
3420.921 32114908 31899222 31687136 31474940 31260144 31043316 30827236 
3424.297 30616242 30412600 30216832 30025520 29834894 29641234 29443932 
3427.672 29245094 29048398 28856610 28669788 28485134 28298368 28106590 
3431.047 27910022 27711706 27517118 27330766 27154088 26985240 26820476 
3434.422 26655172 26487996 26320040 26154190 25993258 25838256 25687248 
3437.798 25536996 25384334 25228112 25069452 24910572 24753430 24597962 
3441.173 24442196 24283858 24122076 23958882 23797782 23643108 23496568 
3444.548 23356162 23216220 23070594 22914712 22748970 22578020 22409370 
3447.923 22249748 22102074 21964454 21831510 21697632 21559164 21416216 
3451.299 21271470 21128544 20989772 20854936 20722018 20588762 20454430 
3454.674 20319970 20187182 20057524 19930364 19803212 19672938 19537366 
3458.049 19397022 19255026 19115498 18981694 18854090 18730638 18608504 
3461.424 18485608 18362676 18242578 18129046 18023830 17925546 17829250 
3464.800 17729008 17620646 17503168 17379930 17255898 17136176 17022310 
3468.175 16913126 16804518 16693149 16577231 16458280 16339535 16223950 
3471.550 16112490 16004015 15895464 15784362 15670437 15555478 15442781 
3474.925 15334541 15231648 15132071 15033617 14934292 14834373 14735917 
3478.301 14641218 14550925 14463016 14373410 14277285 14172484 14060282 
3481.676 13945030 13833058 13729015 13634331 13546333 13460129 13371688 
3485.051 13278858 13183144 13087759 12996150 12910057 12828655 12749896 
3488.426 12671663 12593137 12515308 12439539 12366339 12294310 12221066 
3491.802 12143815 12061228 11974842 11888065 11805085 11728622 11658401 
3495.177 11592207 11526976 11460359 11392903 11326851 11265026 11209024 
3498.552 11157619 11107647 11055063 10997559 10935442 10870886 10806816 
3501.927 10745404 10686277 10628245 10569234 10509996 10453479 10404539 
3505.302 10367108 10342268 10327270 10316481 10303689 10284621 10258769 
3508.678 10229593 10201912 10179219 10162701 10150388 10138891 10125120 
3512.053 10108706 10091003 10074623 10060957 10049834 10039221 10026980 
3515.428 10012095 9995616 9979986 9967510 9958695 9951508 9942388 9928014 
3519.286 9906759 9880658 9853100 9827308 9804262 9781522 9754208 9717206 
3523.143 9667331 9604895 9533358 9456514 9377146 9295693 9209788 9117877 
3527.000 9019524 8917946 8817609 8723482 8637386 8558269 8481834 8403725 
3530.858 8321846 8236538 8150708 8067595 7987703 7909041 7827356 7738672 
3534.715 7641541 7538263 7433862 7333497 7240095 7153350 7068911 6982469 
3538.573 6891533 6797183 6703998 6617258 6540156 6472988 6412388 6353478 
3542.430 6292222 6227278 6159386 6090362 6021047 5950197 5875061 5793321 
3546.288 5704648 5612637 5522256 5438905 5365132 5299521 5237575 5174163 
3550.145 5105866 5032450 4956802 4882741 4813283 4748593 4686860 4625505 
3554.002 4563253 4501279 4442560 4389840 4344089 4303361 4263440 4219575 
3557.860 4169024 4112190 4051684 3991254 3933206 3877907 3823451 3768100 
3561.717 3711619 3655780 3603757 3558088 3518670 3481460 3439210 3385143 
3565.575 3313654 3224217 3120548 3009931 2899309 2794050 2696285 2606475 
3569.432 2524616 2451769 2388395 2334592 2288557 2246156 2203027 2155008 
3573.290 2101466 2044603 1988745 1937754 1893424 1853491 1813529 1768646 
3577.147 1715751 1655113 1589661 1523056 1457989 1395526 1334600 1274281 
3581.004 1214933 1159083 1110082 1071517 1044214 1026080 1012230 996854 
3584.862 974936 943156 900356 846404 782369 709946 631795 552629 479017 
3589.201 417490 372619 345460 332262 325664 318170 302387 274933 235978 
3593.541 189070 138588 88178 39729 -5798 -47842 -84218 -112475 -131025 
3597.881 -140896 -146692 -155138 -173157 -204355 -247407 -295885 -341411 
3601.738 -376107 -396301 -403054 -400670 -394381 -387329 -381039 -375743 
3605.595 -371869 -373591 -386104 -415997 -466740 -536837 -618767 -701576 
3609.453 -775571 -835730 -883415 -923920 -963660 -1006472 -1051758 -1095255 
3613.310 -1131543 -1157154 -1171925 -1179691 -1185407 -1193503 -1207050 
3616.686 -1227073 -1253868 -1288128 -1330478 -1381081 -1437821 -1495280 
3620.061 -1545798 -1583699 -1605388 -1612948 -1611627 -1607534 -1605487 
3623.436 -1605751 -1605322 -1599083 -1584029 -1560919 -1536454 -1521332 
3626.811 -1528299 -1566961 -1640280 -1740484 -1850662 -1951346 -2026018 
3630.187 -2068989 -2084257 -2080630 -2067868 -2053886 -2044058 -2041321 
3633.562 -2046433 -2057909 -2072946 -2088049 -2100118 -2107372 -2110736 
3636.937 -2113110 -2117594 -2127684 -2143906 -2165039 -2187886 -2209315 
3640.312 -2227446 -2242741 -2256355 -2269473 -2281142 -2288591 -2288294 
3643.688 -2277318 -2256190 -2228962 -2202689 -2185381 -2183205 -2198766 
3647.063 -2230973 -2275604 -2328569 -2387459 -2451711 -2520138 -2588949 
3650.438 -2650175 -2694269 -2713993 -2707045 -2678265 -2636837 -2594713 
3653.813 -2562368 -2546985 -2551926 -2575148 -2611675 -2653995 -2695257 
3657.188 -2730226 -2755875 -2770888 -2775761 -2772337 -2763612 -2754328 
3660.564 -2749619 -2752978 -2765423 -2784782 -2806576 -2824847 -2835743 
3663.939 -2837454 -2831101 -2818822 -2802625 -2783531 -2762295 -2739972 
3667.314 -2720217 -2709252 -2714586 -2741915 -2791465 -2854736 -2915299 
3670.689 -2956405 -2966179 -2943339 -2896703 -2841108 -2793506 -2768057 
3674.065 -2774773 -2815464 -2884360 -2966179 -3043638 -3103385 -3139045 
3677.440 -3152269 -3149079 -3136315 -3120327 -3106050 -3096707 -3092989 
3680.815 -3094239 -3098352 -3102596 -3105129 -3104010 -3098352 -3087758 
3684.190 -3072131 -3051732 -3027549 -3002673 -2981020 -2968745 -2971246 
3687.566 -2991419 -3027088 -3070782 -3112268 -3142236 -3157236 -3159341 
3690.941 -3155230 -3151480 -3151842 -3155559 -3159210 -3158651 -3151578 
3694.316 -3139407 -3126512 -3117827 -3116643 -3122203 -3130196 -3134999 
3697.691 -3132006 -3120558 -3104241 -3089403 -3082396 -3086278 -3100457 
3701.067 -3120591 -3141480 -3158782 -3171479 -3180064 -3185919 -3188813 
3704.442 -3186478 -3176610 -3157105 -3128552 -3094865 -3060813 -3031629 
3707.817 -3010241 -2997079 -2990267 -2989247 -2994018 -3008135 -3034853 
3711.192 -3075059 -3124045 -3173025 -3210916 -3229104 -3225650 -3204371 
3714.568 -3173190 -3140394 -3111445 -3088614 -3070979 -3055977 -3041335 
3717.943 -3027187 -3014946 -3006687 -3003429 -3004417 -3006884 -3008628 
3721.318 -3007904 -3004943 -3001290 -2998362 -2996947 -2996651 -2996848 
3724.693 -2998263 -3002508 -3012182 -3027910 -3047554 -3065024 -3072756 
3728.069 -3064564 -3038933 -2999547 -2955516 -2917636 -2894333 -2889396 
3731.444 -2899369 -2916319 -2930998 -2938600 -2940707 -2945149 -2960090 
3734.819 -2990497 -3034129 -3082001 -3122334 -3145953 -3150263 -3138782 
3738.194 -3117926 -3092364 -3063708 -3030082 -2988885 -2939719 -2886829 
3741.570 -2838211 -2806773 -2804634 -2840121 -2911744 -3005766 -3098549 
3744.945 -3164539 -3188484 -3170525 -3121413 -3056042 -2988227 -2930109 
3748.320 -2890515 -2875309 -2886138 -2920137 -2969700 -3024324 -3074335 
3751.695 -3112268 -3134670 -3141151 -3133552 -3115097 -3088384 -3056141 
3755.071 -3021034 -2985430 -2952949 -2926818 -2909539 -2902562 -2905853 
3758.446 -2917669 -2935375 -2956405 -2978058 -2997111 -3010800 -3015637 
3761.821 -3009649 -2993064 -2968383 -2940542 -2916319 -2901377 -2898349 
3765.196 -2905590 -2917471 -2926325 -2927345 -2919775 -2908058 -2898842 
3768.572 -2899172 -2911547 -2934092 -2959103 -2978289 -2986055 -2981547 
3771.947 -2968482 -2952752 -2939851 -2932018 -2928332 -2925600 -2920598 
3775.322 -2911975 -2900554 -2889067 -2881069 -2878962 -2882846 -2891437 
3778.697 -2902233 -2912896 -2921487 -2926983 -2928628 -2925963 -2918952 
3782.073 -2908354 -2895716 -2883768 -2874947 -2870668 -2871030 -2873794 
3785.448 -2876230 -2876230 -2873531 -2869746 -2867211 -2867903 -2871556 
3788.823 -2876494 -2879884 -2879621 -2875506 -2869088 -2862801 -2858522 
3792.198 -2856118 -2853748 -2849469 -2842227 -2833570 -2827348 -2827875 
3795.573 -2836862 -2852004 -2866092 -2870371 -2858522 -2829817 -2790379 
3798.949 -2751167 -2726176 -2725715 -2753966 -2806280 -2868923 -2924416 
3802.324 -2958149 -2964467 -2945446 -2909803 -2867475 -2828698 -2802263 
3805.699 -2793967 -2806214 -2836368 -2876132 -2913522 -2937712 -2941793 
3809.074 -2924876 -2891601 -2849469 -2805950 -2766213 -2731576 -2700131 
3812.450 -2669209 -2637463 -2607624 -2585688 -2579891 -2595207 -2630415 
3815.825 -2674972 -2712709 -2729469 -2718340 -2683172 -2635520 -2591222 
3819.200 -2563784 -2562269 -2588620 -2636606 -2694104 -2747117 -2785276 
3822.575 -2804403 -2805588 -2793012 -2771712 -2746920 -2722719 -2703193 
3825.951 -2690943 -2686004 -2686234 -2687782 -2686103 -2678627 -2665554 
3829.326 -2649450 -2634598 -2624289 -2619448 -2617966 -2615792 -2608974 
3832.701 -2595372 -2576136 -2554660 -2535258 -2520731 -2511836 -2508246 
3836.076 -2509003 -2514044 -2523992 -2539804 -2560688 -2583646 -2603968 
3839.452 -2616945 -2620963 -2617603 -2612202 -2610819 -2618328 -2636178 
3842.827 -2662162 -2691174 -2717747 -2737898 -2750443 -2756369 -2756797 
3846.202 -2752089 -2741355 -2722521 -2693874 -2655279 -2608546 -2556867 
3849.577 -2505215 -2457576 -2418927 -2394840 -2391578 -2417016 -2477047 
3852.953 -2570010 -2682744 -2793144 -2877448 -2920762 -2922244 -2891042 
3856.328 -2841339 -2786296 -2735264 -2691799 -2655839 -2623993 -2593428 
3859.703 -2563159 -2535160 -2512726 -2499021 -2495365 -2500372 -2511836 
3863.078 -2527286 -2545964 -2567803 -2591782 -2614211 -2628933 -2629394 
3866.454 -2612004 -2579331 -2540199 -2507225 -2493816 -2508147 -2548336 
3869.829 -2602025 -2649813 -2676257 -2675038 -2651887 -2618987 -2591090 
3873.204 -2577882 -2581209 -2596031 -2612268 -2620600 -2615430 -2596953 
3876.579 -2569549 -2539211 -2511309 -2489402 -2476487 -2473950 -2482615 
3879.955 -2501558 -2526990 -2551893 -2568462 -2570372 -2556505 -2531239 
3883.330 -2503568 -2485218 -2485382 -2507422 -2546030 -2588159 -2619876 
3886.705 -2630020 -2616253 -2583943 -2543592 -2505347 -2477212 -2463803 
3890.080 -2465813 -2481528 -2506697 -2536279 -2564805 -2586874 -2598007 
3893.456 -2595537 -2579101 -2550839 -2515131 -2477443 -2441926 -2411316 
3896.831 -2385812 -2364589 -2346563 -2331634 -2321286 -2317496 -2321055 
3900.206 -2331041 -2344421 -2358526 -2372366 -2387525 -2407658 -2436127 
3903.581 -2472830 -2514110 -2552025 -2578706 -2589213 -2583844 -2567309 
3906.957 -2546392 -2526924 -2511672 -2500010 -2488941 -2475235 -2458136 
3910.332 -2439422 -2422025 -2408680 -2399717 -2392599 -2383867 -2370620 
3913.707 -2352923 -2334337 -2320264 -2315782 -2323032 -2339675 -2360931 
3917.082 -2380374 -2393390 -2398630 -2397773 -2392929 -2385515 -2374574 
3920.458 -2358526 -2336116 -2308729 -2280449 -2256882 -2243334 -2242247 
3923.833 -2252069 -2267825 -2283614 -2294425 -2298215 -2295974 -2289975 
3927.208 -2283152 -2276197 -2269539 -2262650 -2256058 -2251245 -2250685 
3930.583 -2255926 -2267001 -2281241 -2294985 -2304444 -2307344 -2304609 
3933.958 -2298742 -2293271 -2290667 -2292183 -2297654 -2306224 -2316902 
3937.334 -2329228 -2342147 -2354407 -2363930 -2368610 -2366501 -2358229 
3940.709 -2345640 -2332820 -2323164 -2318781 -2318913 -2320890 -2321088 
3944.084 -2317496 -2310311 -2301972 -2295743 -2293699 -2295611 -2299863 
3947.459 -2303422 -2304081 -2302203 -2299632 -2298478 -2300423 -2304246 
3950.835 -2307081 -2305861 -2298841 -2287041 -2273956 -2264068 -2260838 
3954.210 -2265254 -2275209 -2287371 -2298478 -2306916 -2313112 -2318418 
3957.585 -2323988 -2329426 -2333150 -2332458 -2326196 -2314859 -2301016 
3960.960 -2287569 -2277120 -2269836 -2264397 -2258464 -2250520 -2240433 
3964.336 -2230281 -2222204 -2217424 -2215677 -2214523 -2211326 -2204370 
3967.711 -2193919 -2182183 -2172227 -2166358 -2164512 -2165765 -2167809 
3971.086 -2169556 -2171205 -2174600 -2181359 -2192172 -2205458 -2217985 
3974.461 -2226028 -2226984 -2220556 -2208721 -2193985 -2178589 -2163325 
3977.837 -2147994 -2131838 -2115616 -2101041 -2091314 -2088379 -2093094 
3981.212 -2103152 -2115055 -2124782 -2130453 -2132431 -2132893 -2134805 
3984.587 -2139323 -2145851 -2151423 -2153434 -2150302 -2143543 -2135828 
3987.962 -2131014 -2131244 -2135597 -2141729 -2146181 -2146543 -2142982 
3991.338 -2138136 -2134838 -2135036 -2138762 -2143708 -2146675 -2145719 
3994.713 -2140543 -2133025 -2126134 -2121946 -2121287 -2123199 -2126200 
3998.088 -2129068 -2131970 -2136190 -2142818 -2152082 -2162303 
##END=
