##TITLE=1731o_2_a
##JCAMP-DX=5.01  $$ Nicolet v. 1
##DATATYPE=INFRARED SPECTRUM
##ORIGIN=UniL
##OWNER=Nicolet
##LONGDATE=2011/09/29
##TIME=14:44:40
##SPECTROMETER/DATA SYSTEM=Nicolet iS5
##DATA PROCESSING=
Ratio against background
%Transmittance->Absorbance
Truncated
ElementMultiply or ElementDivide
##COMMENTS=
Number of sample scans: 32
Collection length: 51.20 sec
Sample gain: 2.0
Background collected on: Jeu Sep 29 14:43:15 2011 (GMT+02:00);
Number of background scans: 32
Background gain: 2.0
Sample spacing:  1.000
Number of scan points: 12415
Resolution points: 8192
Number of FFT points: 65536
Apodization: N-B fort;
Phase correction: Mertz;
Laser frequency: 15798.0 cm-1
Number of rejected sample scans: 0
Number of rejected background scans: 0
Bench serial number: ASB1000141;
##RESOLUTION=4.000
##XUNITS=1/CM
##YUNITS=ABSORBANCE
##FIRSTX=649.893372
##LASTX=4000.122314
##FIRSTY=0.112545
##MAXX=4000.122314
##MINX=649.893372
##MAXY=0.277222
##MINY=-0.003774
##XFACTOR=1.000000
##YFACTOR=1.000000E-009
##NPOINTS=6950
##DELTAX=0.482117
##ZPD=6100
##XYDATA=(X++(Y..Y))
649.893 112545416 111991856 111520248 111134560 110814648 110530264 
652.786 110255552 109983144 109724272 109500544 109327896 109206968 
655.679 109120480 109041248 108945096 108821544 108676320 108526000 
658.571 108386744 108264456 108153336 108038632 107908208 107757632 
661.464 107594856 107435744 107298528 107195424 107128296 107087880 
664.357 107055952 107006952 106904712 106702216 106343768 105777208 
667.250 104990400 104047008 103087896 102260016 101646032 101234800 
670.142 100955704 100716016 100433872 100057112 99566192 98976768 98327064 
673.517 97663552 97020240 96408904 95821480 95241320 94655712 94062096 
676.892 93468016 92883608 92313712 91754344 91195504 90629360 90056792 
680.267 89490512 88950992 88457152 88018768 87633400 87288888 86970480 
683.642 86667344 86378168 86108656 85865032 85648216 85450424 85256560 
687.016 85051816 84827472 84585296 84337368 84100080 83885512 83697728 
690.391 83531232 83375952 83222944 83069344 82919688 82783272 82668824 
693.766 82579728 82513096 82461976 82419352 82381744 82350136 82327744 
697.141 82316048 82312200 82307720 82291264 82253384 82190440 82105760 
700.516 82007864 81906184 81807768 81714656 81625160 81536120 81446176 
703.890 81356216 81268712 81184984 81103424 81018688 80924824 80816688 
707.265 80694496 80563328 80432000 80310520 80206960 80128728 80083704 
710.640 80082512 80141168 80275880 80498360 80806832 81180584 81578824 
714.015 81944600 82221832 82365192 82351656 82184632 81887736 81496664 
717.390 81046800 80573544 80113872 79711128 79425312 79328408 79487304 
720.765 79946344 80695104 81655192 82669344 83533600 84038360 84002016 
724.139 83332360 82042080 80251720 78149512 75953184 73863192 72010728 
727.514 70459160 69205816 68207496 67403944 66739404 66176272 65690532 
730.889 65268284 64899892 64574556 64281276 64012416 63763456 63534536 
734.264 63327052 63141048 62972360 62814200 62658384 62499640 62337016 
737.639 62174376 62016956 61869992 61736244 61615948 61508204 61412852 
741.013 61331220 61265208 61216068 61182956 61162552 61150268 61142256 
744.388 61136572 61133292 61132608 61133100 61129744 61115444 61081688 
747.763 61023264 60940104 60838284 60727760 60619284 60521232 60436912 
751.138 60365896 60305172 60251804 60204224 60162584 60127312 60098732 
754.513 60076508 60060832 60052956 60056532 60076280 60116848 60180360 
757.888 60265124 60365552 60474388 60584732 60692248 60796472 60901032 
761.262 61012208 61137832 61286576 61468004 61691024 61966164 62306572 
764.637 62730080 63265184 63954020 64848104 66005668 67469928 69246072 
768.012 71273736 73413504 75456984 77131592 78173832 78381264 77658520 
771.387 76056648 73761552 71063192 68263752 65635608 63371716 61555580 
774.762 60184700 59192716 58490908 57988576 57613780 57321000 57078560 
778.136 56864316 56660188 56448600 56214984 55951340 55655536 55331024 
781.511 54984012 54622200 54253484 53887036 53534872 53209548 52923988 
784.886 52688108 52507056 52381168 52308208 52285784 52314004 52395824 
788.261 52535848 52738572 53006264 53338852 53735664 54197704 54729376 
791.636 55339832 56041876 56849664 57779032 58845144 60063000 61450636 
795.010 63028252 64819752 66854908 69166416 71793128 74781672 78183544 
798.385 82060056 86479440 91505408 97190376 103551816 110551040 118054784 
801.760 125813472 133469032 140524320 146423280 150637456 152722192 
804.653 152455520 149885536 145351632 139396592 132664320 125784872 
807.546 119202016 113145472 107615488 102444048 97381560 92201608 86793040 
810.920 81179472 75512416 70000920 64871228 60298092 56373596 53116748 
814.295 50482612 48391740 46748224 45462404 44459436 43674500 43059352 
817.670 42577436 42202004 41917788 41716508 41593792 41545516 41564728 
821.045 41642000 41768416 41937456 42147488 42401020 42702552 43055216 
824.420 43458820 43910260 44406328 44946504 45535328 46182108 46898764 
827.794 47698692 48594396 49598352 50727132 52002772 53457220 55135140 
831.169 57088988 59379084 62066532 65195592 68779592 72771880 77052336 
834.544 81393984 85465880 88885168 91226936 92131104 91390848 88991216 
837.919 85135896 80187672 74623664 68910832 63435712 58490000 54226532 
841.294 50689372 47842940 45605840 43878148 42557916 41559880 40809492 
844.669 40245064 39821416 39503552 39268532 39103684 39000472 38951940 
848.043 38950528 38986156 39049520 39135008 39241332 39371948 39531528 
851.418 39723556 39947412 40199120 40473300 40766508 41079512 41417884 
854.793 41789320 42201892 42662228 43174548 43743496 44376196 45083696 
858.168 45882240 46792800 47838316 49047132 50452616 52091636 54006784 
861.543 56235160 58795024 61667272 64779328 67996960 71112912 73886248 
864.917 76066080 77424776 77818624 77202592 75647752 73319856 70461888 
868.292 67353256 64244972 61354572 58832548 56754576 55140968 53967204 
871.667 53185692 52735992 52558056 52597964 52801764 53120196 53507812 
875.042 53921472 54329628 54714796 55076944 55433372 55814280 56256844 
878.417 56792112 57437468 58186628 59006808 59835456 60586636 61170480 
881.792 61499884 61514156 61194552 60569116 59710932 58717676 57703116 
885.166 56767072 55980696 55386316 54993784 54790796 54752380 54851128 
888.541 55062240 55363584 55737912 56169884 56645988 57157012 57697968 
891.916 58268164 58870448 59507812 60182416 60892984 61637332 62413176 
895.291 63220688 64060412 64932092 65830276 66740408 67639088 68497624 
898.666 69284784 69975496 70553664 71013088 71356168 71590888 71729024 
902.040 71783904 71772376 71715544 71636448 71561704 71517440 71526576 
905.415 71610384 71787704 72075568 72491768 73053736 73775768 74668600 
908.790 75737440 76982112 78399800 79988008 81746536 83677928 85785856 
912.165 88072168 90535160 93170832 95975480 98951592 102111224 105478872 
915.540 109088064 112972968 117162152 121666456 126471344 131523776 
918.432 136722896 141919680 146891312 151359360 155017376 157540272 
921.325 158670736 158274336 156389040 153248032 149265152 145012176 
924.218 141089968 138090720 136517120 136671872 138641792 142245152 
927.110 147069280 152465360 157645152 161858000 164439168 164982640 
930.003 163395904 159870560 154799296 148635648 141828736 134719568 
932.896 127531840 120409424 113437592 106687640 100245760 94208192 88679352 
936.271 83760648 79525856 76025216 73282320 71296584 70049312 69500728 
939.646 69589472 70217456 71246216 72510048 73806952 74932208 75710856 
943.020 76003432 75739448 74920472 73617192 71950224 70066400 68122912 
946.395 66251024 64548528 63076720 61856884 60883416 60133056 59577776 
949.770 59189184 58942588 58818052 58796352 58858536 58987068 59165604 
953.145 59382696 59632204 59912736 60225348 60570792 60947848 61353160 
956.520 61783228 62235440 62710100 63208996 63734212 64285920 64860800 
959.894 65453312 66057628 66669436 67286904 67911048 68542976 69182504 
963.269 69827096 70473064 71117008 71758696 72401136 73049736 73709800 
966.644 74384712 75074376 75776848 76489944 77213960 77952296 78710600 
970.019 79494864 80308480 81152704 82026792 82930792 83868272 84845040 
973.394 85869632 86949464 88088080 89284824 90535568 91836008 93183520 
976.768 94578432 96022472 97516208 99055720 100632880 102235152 103849256 
980.143 105463880 107069488 108657936 110220272 111744112 113215808 
983.036 114622152 115953512 117206768 118383952 119488776 120521712 
985.929 121476728 122341168 123100336 123741640 124260904 124663016 
988.821 124962680 125179712 125335200 125452040 125552776 125660952 
991.714 125802712 126002448 126280216 126648544 127109792 127657504 
994.607 128279808 128964888 129703432 130489064 131317344 132181552 
997.500 133071096 133973208 134874768 135766768 136646640 137516832 
1000.392 138381120 139240320 140089328 140917696 141714336 142471008 
1003.285 143187328 143870192 144532256 145187328 145848064 146527328 
1006.178 147239072 148002416 148843216 149789072 150867200 152097200 
1009.070 153487072 155033808 156724928 158544848 160473776 162488992 
1011.963 164563648 166660304 168734416 170741136 172640016 174408480 
1014.856 176044800 177567968 179008208 180397376 181761904 183117040 
1017.748 184470432 185828512 187200800 188604704 190066160 191614608 
1020.641 193285344 195117600 197153008 199439600 202026272 204954384 
1023.534 208253360 211931040 215973504 220345792 225001936 229894176 
1026.427 234970928 240180032 245458912 250720672 255858720 260744448 
1029.320 265232656 269186592 272475872 274979392 276593632 277221504 
1032.213 276781056 275223904 272543840 268793664 264078848 258556192 
1035.106 252410976 245831520 239018352 232165280 225455296 219078352 
1037.999 213206656 207989840 203558032 199999520 197365504 195669536 
1040.892 194883792 194935040 195690912 196966288 198500720 199965552 
1043.785 201018896 201310544 200554288 198589568 195391920 191087152 
1046.678 185906192 180162768 174185008 168262176 162646144 157510848 
1049.571 152955248 149019232 145687856 142909728 140609792 138708736 
1052.464 137130864 135809264 134694304 133745896 132929416 132213664 
1055.357 131563512 130941016 130311224 129641312 128905136 128084984 
1058.250 127168088 126147512 125021800 123796936 122489672 121127248 
1061.144 119749568 118401672 117128784 115973768 114969712 114140784 
1064.037 113502992 113063016 112817152 112747256 112819560 112979320 
1066.930 113153384 113263856 113231600 112993168 112513256 111784008 
1069.823 110826792 109681440 108401376 107041840 105650584 104268576 
1072.716 102922736 101626488 100381392 99179608 98009008 96856960 95716960 
1076.091 94591576 93492792 92439176 91453056 90555848 89763560 89086472 
1079.466 88528688 88087880 87756096 87519288 87358688 87249072 87162840 
1082.842 87075816 86969784 86838696 86690072 86544264 86428904 86374200 
1086.217 86410024 86560528 86844680 87277632 87869544 88626888 89551264 
1089.592 90638632 91880096 93263144 94775720 96407576 98150744 99996376 
1092.967 101927880 103914576 105910008 107847240 109651328 111252096 
1095.860 112593544 113653024 114446168 115032496 115503008 115967192 
1098.753 116536464 117289320 118254992 119392672 120595320 121692408 
1101.646 122475832 122755400 122377576 121268288 119445800 117015288 
1104.540 114146296 111029472 107865896 104827056 102037216 99581568 97497384 
1107.915 95784952 94417504 93350552 92531584 91902576 91411296 91009880 
1111.290 90655288 90312616 89950360 89540312 89060160 88493016 87830440 
1114.665 87074200 86234880 85330552 84381672 83409600 82433776 81469920 
1118.041 80532264 79632240 78778600 77976752 77227376 76526296 75865104 
1121.416 75233912 74624096 74029952 73448944 72879552 72317800 71754784 
1124.791 71174816 70557136 69881920 69133976 68308576 67413888 66471108 
1128.166 65510684 64565868 63669636 62847852 62115232 61476252 60923940 
1131.542 60443388 60013392 59611980 59219984 58823404 58417368 58005276 
1134.917 57599060 57214124 56868168 56577404 56353068 56201672 56124180 
1138.292 56116148 56168596 56268012 56398684 56542532 56681780 56802420 
1141.667 56893928 56951348 56974316 56965136 56927320 56863904 56777760 
1145.042 56671924 56550836 56421092 56290752 56168372 56062496 55979416 
1148.418 55924052 55900496 55912140 55962644 56055184 56191640 56371444 
1151.793 56590876 56844716 57126212 57429528 57751100 58088860 58441592 
1155.168 58808000 59184784 59567628 59951080 60328928 60696212 61047668 
1158.543 61377816 61680520 61948168 62173040 62348108 62467960 62528832 
1161.919 62528068 62462680 62328604 62120892 61834228 61464912 61011904 
1165.294 60477852 59868088 59189148 58449248 57656344 56819184 55948888 
1168.669 55058136 54161628 53275620 52414628 51591608 50816556 50096496 
1172.044 49436924 48843008 48319632 47872348 47506364 47225268 47031560 
1175.420 46926300 46911052 46988728 47164836 47447480 47846860 48373260 
1178.795 49036116 49844488 50806236 51930100 53226212 54705364 56378724 
1182.170 58257252 60348536 62657156 65181964 67914656 70833160 73895560 
1185.545 77038888 80166632 83154960 85867416 88152904 89873856 90924368 
1188.921 91233600 90781824 89599568 87766120 85394728 82619288 79585744 
1192.296 76424160 73247216 70146336 67183536 64402200 61830140 59482620 
1195.671 57368072 55488940 53842172 52419076 51204840 50180096 49320424 
1199.046 48598880 47990120 47468364 47010956 46598840 46214832 45845528 
1202.422 45481832 45119576 44759168 44405300 44065064 43744704 43448160 
1205.797 43175972 42925536 42692828 42474164 42267988 42075132 41897864 
1209.172 41739124 41601376 41486560 41397180 41337192 41313104 41332748 
1212.547 41405308 41538988 41739232 42008844 42347904 42754796 43226260 
1215.923 43758412 44345408 44978732 45647828 46340192 47042892 47745804 
1219.298 48441676 49127080 49802124 50469180 51132596 51798260 52474632 
1222.673 53171948 53901548 54674696 55499668 56379404 57310832 58284612 
1226.048 59286480 60297368 61297144 62264544 63178376 64022436 64787096 
1229.424 65474620 66100532 66695668 67304192 67974056 68756848 69699752 
1232.799 70839672 72207800 73827216 75715624 77887992 80355560 83125032 
1236.174 86197304 89566736 93221256 97140856 101299728 105662968 110181976 
1239.549 114799240 119445672 124045832 128534136 132856440 136978448 
1242.442 140885520 144574496 148044720 151287728 154279392 156975120 
1245.335 159312976 161207088 162557008 163258496 163203584 162305072 
1248.229 160509104 157800336 154207360 149794064 144651744 138881744 
1251.122 132593992 125907872 118942768 111827824 104698760 97679440 90889448 
1254.497 84432376 78384328 72803808 67724936 63157224 59092516 55504752 
1257.872 52357396 49604068 47196232 45086604 43227836 41578804 40104988 
1261.247 38776992 37573952 36480712 35486568 34584028 33766612 33027918 
1264.623 32362294 31763990 31228240 30751192 30328526 29955224 29625376 
1267.998 29332112 29069266 28833026 28622714 28441018 28292674 28183518 
1271.373 28118682 28102066 28137312 28228282 28380846 28603108 28904168 
1274.748 29292482 29773466 30346150 31000254 31713332 32452650 33171736 
1278.124 33814568 34326372 34655076 34765080 34644344 34306112 33786880 
1281.499 33136368 32412380 31666752 30938268 30253954 29626688 29060514 
1284.874 28555370 28109808 27722338 27391464 27115184 26890758 26715352 
1288.249 26587286 26506240 26472818 26487186 26547694 26649712 26787418 
1291.625 26954214 27145482 27359172 27595176 27853316 28132044 28426834 
1295.000 28732088 29043402 29360118 29687282 30035178 30417966 30849824 
1298.375 31344396 31913274 32565850 33309664 34148688 35079820 36088008 
1301.750 37141496 38195048 39188020 40054956 40738776 41193996 41398240 
1305.125 41353520 41085412 40637180 40062072 39420784 38769204 38155212 
1308.501 37616512 37175132 36839040 36603872 36457328 36383064 36364580 
1311.876 36389476 36447920 36532180 36635196 36748268 36862012 36968032 
1315.251 37059608 37133232 37188240 37225164 37244404 37245312 37226680 
1318.626 37188164 37131500 37061596 36984452 36906240 36830848 36758652 
1322.002 36687220 36612668 36531856 36444028 36350892 36256220 36165284 
1325.377 36084480 36021480 35986812 35993760 36056216 36187756 36397476 
1328.752 36687728 37053692 37485304 37970968 38499248 39061592 39651016 
1332.127 40259168 40875416 41485140 42070240 42614164 43102528 43526024 
1335.503 43880792 44167172 44388124 44547796 44652148 44709328 44729712 
1338.878 44727068 44715868 44708408 44713992 44737460 44780952 44847368 
1342.253 44943196 45079620 45273268 45542100 45904336 46376212 46969680 
1345.628 47693512 48551928 49542380 50650200 51842392 53067996 54251760 
1349.004 55303852 56136320 56667168 56839540 56630740 56053336 55155416 
1352.379 54009640 52711448 51358236 50040984 48840372 47812568 46990168 
1355.754 46382884 45979912 45757084 45682800 45727488 45864196 46070536 
1359.129 46329464 46626620 46951144 47298412 47671252 48081904 48548484 
1362.505 49091092 49721940 50437692 51215244 52013196 52776960 53439192 
1365.880 53930776 54185504 54143988 53770240 53058752 52042852 50787500 
1369.255 49382716 47927140 46502540 45172372 43972808 42914236 41991980 
1372.630 41195088 40516004 39953660 39513168 39199224 39009140 38929868 
1376.006 38941724 39022728 39158288 39344704 39591196 39917844 40353844 
1379.381 40937672 41713372 42732272 44048524 45702052 47702536 50003132 
1382.756 52495124 54994272 57262552 59055508 60126852 60283320 59421828 
1386.131 57559448 54858160 51596832 48136796 44809972 41851996 39386572 
1389.507 37425888 35914248 34764360 33889324 33213008 32674256 32230090 
1392.882 31849340 31512242 31210688 30945456 30723556 30552676 30436800 
1396.257 30372906 30353114 30366190 30402826 30458444 30535362 30641948 
1399.632 30789922 30990540 31250208 31568502 31938844 32350336 32789194 
1403.008 33240658 33692664 34135032 34560452 34963160 35338348 35681416 
1406.383 35989944 36265584 36516392 36755444 36999964 37266828 37567268 
1409.758 37906244 38281816 38687956 39119052 39573268 40052992 40563292 
1413.133 41108428 41689628 42305356 42953556 43635332 44357992 45136008 
1416.509 45989860 46942324 48011288 49202664 50500292 51861208 53218684 
1419.884 54495668 55624308 56552228 57249884 57711252 57953624 58022088 
1423.259 57988196 57948516 57997780 58207920 58614252 59211284 59969416 
1426.634 60852844 61837476 62911080 64070588 65315112 66641232 68045744 
1430.010 69532112 71118256 72834528 74712088 76772216 79013792 81416928 
1433.385 83947784 86579048 89302288 92124824 95065264 98131512 101303368 
1436.760 104522576 107714072 110817896 113801512 116656248 119374136 
1439.653 121930848 124266552 126284824 127875224 128912896 129283768 
1442.546 128904104 127721224 125731584 122985792 119600568 115746976 
1445.439 111622416 107447368 103418272 99692600 96384368 93543832 91157688 
1448.814 89151848 87421016 85852392 84355840 82891856 81476432 80177544 
1452.190 79081888 78269792 77778080 77585744 77613984 77740624 77830192 
1455.565 77745496 77399432 76796216 76053088 75357808 74886696 74758448 
1458.940 75015376 75653152 76646848 77959192 79540464 81318256 83204640 
1462.315 85081928 86803000 88216384 89172472 89568040 89383648 88694632 
1465.691 87648560 86407112 85120376 83896888 82802840 81878256 81135576 
1469.066 80560776 80111280 79716984 79290032 78737568 78000624 77082640 
1472.441 76067816 75092808 74301192 73796624 73619304 73766184 74211008 
1475.816 74923664 75873000 77023768 78333208 79743696 81187536 82597048 
1479.192 83904008 85053272 86011912 86771000 87351408 87798768 88180576 
1482.567 88571144 89048240 89697072 90601528 91845912 93504136 95617976 
1485.942 98176128 101089456 104197216 107251072 109935984 111923376 
1488.835 112879584 112541640 110787920 107672080 103431680 98412592 92993840 
1492.210 87483136 82074264 76879304 71936384 67258664 62882320 58873528 
1495.586 55334976 52385468 50118288 48572496 47724652 47512460 47855036 
1498.961 48674708 49906036 51486176 53350208 55431260 57650668 59924492 
1502.336 62171280 64291300 66169672 67666312 68583288 68677472 67687768 
1505.711 65421724 61895208 57417272 52519096 47710376 43303936 39386172 
1509.087 35902588 32760288 29887992 27250322 24848292 22698310 20809710 
1512.462 19178624 17784098 16596783 15586147 14725736 13992250 13361710 
1515.837 12809714 12316228 11869336 11471313 11133720 10868508 10677006 
1519.212 10544485 10441091 10332937 10196010 10032032 9870557 9754377 
1522.588 9713987 9751124 9843170 9955880 10061093 10144250 10210427 10278073 
1526.445 10369143 10494890 10651674 10824447 10998035 11165336 11330388 
1529.820 11504588 11698769 11915548 12147223 12377963 12591875 12782859 
1533.196 12960987 13149844 13371756 13637715 13940822 14263622 14585532 
1536.571 14891667 15177019 15443846 15699018 15947089 16184811 16400227 
1539.946 16579639 16719937 16832552 16936758 17048534 17169540 17287962 
1543.321 17384276 17442872 17459774 17446978 17426974 17423592 17450704 
1546.697 17507310 17581346 17657258 17725488 17786652 17852486 17939114 
1550.072 18059612 18216110 18400214 18598198 18799452 19001736 19211662 
1553.447 19441198 19700952 19993576 20312576 20644736 20974818 21291236 
1556.822 21583922 21843358 22059194 22223070 22338412 22424442 22515514 
1560.198 22641126 22811892 23021642 23252364 23482052 23687754 23852840 
1563.573 23970786 24046040 24093846 24133598 24180678 24239148 24301168 
1566.948 24350438 24370834 24350578 24288694 24194902 24088206 23990116 
1570.323 23916658 23876714 23871988 23899504 23953490 24024854 24100850 
1573.698 24162462 24187476 24156192 24059698 23909376 23736466 23581812 
1577.074 23473520 23416060 23391968 23373924 23334624 23253900 23122380 
1580.449 22939234 22709550 22439724 22135128 21799456 21436370 21052476 
1583.824 20658426 20266816 19889606 19533590 19199298 18882706 18579418 
1587.199 18288058 18011880 17756380 17526318 17321824 17138520 16969764 
1590.575 16810820 16662333 16530659 16424933 16351575 16311564 16299523 
1593.950 16306644 16325463 16353434 16393965 16453944 16539022 16651006 
1597.325 16787332 16944508 17122044 17325514 17566544 17859702 18218702 
1600.700 18651736 19161274 19745264 20399384 21117448 21888794 22697052 
1604.076 23513742 24298574 25005712 25584650 25990444 26192408 26176290 
1607.451 25949638 25537348 24980336 24324014 23611864 22884254 22174702 
1610.826 21509930 20911606 20391468 19950624 19579132 19258834 18967018 
1614.201 18680238 18379440 18052462 17698292 17328822 16968868 16649526 
1617.577 16397165 16228009 16143680 16135048 16184777 16272038 16376831 
1620.952 16481923 16578607 16669322 16766805 16889182 17052082 17262450 
1624.327 17516382 17804222 18115952 18446506 18794332 19158990 19536742 
1627.702 19917842 20287160 20630628 20939248 21213118 21459694 21689550 
1631.078 21910018 22122086 22318110 22484630 22605664 22664446 22648946 
1634.453 22553762 22385438 22162116 21911342 21661444 21431184 21226062 
1637.828 21039816 20858794 20665618 20443770 20182740 19880692 19547176 
1641.203 19198884 18856062 18533322 18235426 17955658 17677792 17382000 
1644.579 17048360 16665673 16234510 15771819 15306670 14873425 14502172 
1647.954 14210005 13999710 13863161 13784830 13743481 13711061 13653615 
1651.329 13528386 13292762 12926305 12458803 11974706 11567297 11287300 
1654.704 11125799 11042522 10992835 10944786 10882064 10800430 10704582 
1658.080 10602847 10502052 10404981 10308812 10207713 10095174 9966425 
1661.455 9820293 9659743 9491565 9325516 9171715 9039213 8933842 8856868 
1665.312 8804625 8768954 8738932 8701036 8642963 8556106 8438555 8296110 
1669.170 8141187 7989120 7852660 7739077 7649803 7581453 7527305 7477851 
1673.027 7422200 7347651 7243397 7105319 6940584 6768610 6612413 6490679 
1676.885 6408656 6358824 6326009 6294777 6255043 6205800 6153673 6109684 
1680.742 6082230 6071243 6065934 6045808 5987821 5875530 5710691 5518900 
1684.599 5340845 5210278 5137348 5111364 5111599 5119981 5123266 5115354 
1688.457 5095372 5064832 5026484 4983614 4940648 4903785 4879591 4873191 
1692.314 4885121 4909884 4935018 4944368 4922216 4861196 4768827 4669343 
1696.172 4593557 4561344 4574002 4614185 4655813 4669511 4631599 4534491 
1700.029 4393790 4246375 4129784 4065765 4051049 4068373 4096536 4117675 
1703.886 4119716 4096703 4049778 3986171 3917425 3854272 3804365 3770473 
1707.744 3751054 3741730 3737452 3734711 3731570 3728796 3728195 3732372 
1711.601 3742298 3757338 3775319 3793301 3809178 3822215 3832577 3840499 
1715.459 3844377 3840767 3826159 3799451 3765326 3735113 3723048 3739558 
1719.316 3787886 3863799 3958384 4061851 4166749 4269731 4371967 4477208 
1723.174 4590008 4713354 4847224 4989312 5135873 5283086 5428639 5569776 
1727.031 5703272 5824551 5928028 6009254 6066707 6103064 6123965 6135962 
1730.888 6142213 6139827 6118790 6064321 5963970 5816021 5637945 5464070 
1734.746 5332493 5266753 5267692 5320417 5403979 5500108 5594109 5677187 
1738.603 5745877 5800407 5843458 5878688 5909017 5936291 5960913 5982883 
1742.461 6001695 6016310 6025414 6027195 6019669 6000587 5968203 5920974 
1746.318 5858201 5779051 5684036 5573670 5448501 5308946 5154548 4984352 
1750.176 4798844 4600489 4396066 4195486 4009345 3845915 3708177 3593701 
1754.033 3494887 3401206 3302469 3191672 3067856 2937336 2810958 2699786 
1757.890 2610442 2541780 2486758 2434808 2375835 2302647 2213917 2113419 
1761.748 2008850 1908599 1819585 1745225 1686047 1640678 1606256 1579253 
1765.605 1554911 1528176 1494627 1452471 1403769 1354376 1311368 1279863 
1769.463 1259925 1246002 1229188 1199683 1152272 1088922 1019935 958830 
1773.320 915862 894744 891358 898264 908026 916692 923465 930239 938773 
1777.660 949034 958099 962416 958896 947440 931534 917057 908988 909321 
1781.999 915928 923997 928214 925258 915297 901285 887905 878841 875819 
1786.339 878409 885182 895575 909354 927317 948901 971382 990378 999677 
1790.678 993798 971017 933825 889864 847865 815398 795580 787149 786651 
1795.018 790136 794883 799431 802983 804842 803945 799298 790800 779415 
1799.358 767631 758437 754354 755914 761856 769756 777589 784792 792095 
1803.697 800891 812178 826121 841491 856032 868316 877911 885282 891524 
1808.037 896936 900987 902082 898330 888868 875388 860049 846770 837275 
1812.376 832395 830403 828976 826486 823100 820543 821938 830071 846637 
1816.716 871537 902613 937710 974836 1012994 1051887 1091779 1132406 1173535 
1821.056 1214468 1254974 1294918 1333669 1370762 1404600 1433987 1458987 
1824.913 1481495 1505467 1535525 1574530 1622153 1674338 1723602 1761992 
1828.771 1784217 1790072 1785514 1780158 1784649 1805344 1842843 1892991 
1832.628 1949569 2007352 2063312 2117448 2171491 2227405 2286092 2347784 
1836.485 2411918 2479226 2551678 2632943 2726159 2833502 2954516 3086676 
1840.343 3226087 3368848 3511856 3652806 3790460 3923209 4050513 4172369 
1844.200 4290043 4406208 4522907 4640307 4755293 4862067 4952747 5019277 
1848.058 5056518 5062619 5039657 4991859 4923624 4837909 4735362 4615659 
1851.915 4479015 4328158 4168689 4007640 3851297 3703398 3564235 3431763 
1855.772 3303371 3178221 3057712 2944909 2842540 2751200 2669080 2592675 
1859.630 2518317 2444638 2372570 2304612 2243558 2190006 2142554 2098104 
1863.487 2054057 2009616 1966677 1927769 1895920 1871727 1852992 1835722 
1867.345 1815858 1791503 1764355 1738306 1718013 1706803 1705140 1711028 
1871.202 1721573 1734780 1749284 1764321 1779160 1791470 1798024 1795895 
1875.060 1783185 1760728 1730821 1696957 1661400 1624847 1586236 1543671 
1878.917 1497387 1449844 1405565 1369665 1345335 1332041 1325560 1319012 
1882.774 1306682 1285214 1255273 1220349 1185296 1154132 1128087 1106395 
1886.632 1086962 1067963 1048665 1029102 1010105 991773 974603 959261 947606 
1890.971 942559 947241 963744 991075 1025482 1060589 1090716 1112042 1124865 
1895.311 1132605 1140246 1151574 1167255 1184997 1200746 1211511 1216096 
1899.168 1215864 1213372 1210780 1207989 1203537 1194832 1180777 1162538 
1903.026 1143834 1128884 1120712 1120114 1124699 1131642 1137655 1141741 
1906.883 1144897 1148119 1152172 1156458 1159116 1158717 1156192 1154697 
1910.741 1158916 1173036 1198453 1233208 1272087 1309840 1342942 1370762 
1914.598 1395359 1419260 1442730 1464206 1479068 1483090 1474712 1456394 
1918.456 1434153 1414473 1401609 1395226 1391969 1386850 1376845 1362120 
1922.313 1346233 1334234 1329747 1333436 1342377 1352980 1362685 1371626 
1926.170 1382628 1399215 1423349 1454000 1487413 1519099 1545933 1567514 
1930.028 1585937 1604294 1624016 1644503 1662830 1676301 1684450 1689739 
1933.885 1697223 1710762 1732551 1760728 1790605 1817588 1838983 1856220 
1937.743 1873291 1894123 1919981 1947505 1970804 1982953 1979891 1962250 
1941.600 1935124 1906603 1883108 1868299 1862076 1863041 1870129 1884472 
1945.458 1909032 1946307 1995635 2053059 2111855 2165330 2209688 2245723 
1949.315 2276599 2306611 2337790 2368372 2394859 2413350 2422580 2424779 
1953.172 2425012 2427378 2434009 2442705 2449170 2449769 2444271 2435608 
1957.030 2430976 2435375 2450602 2472862 2495322 2511085 2518384 2520683 
1960.887 2526216 2543013 2575243 2620242 2670514 2717357 2753934 2778343 
1964.745 2793350 2802587 2809290 2813892 2814293 2808823 2798852 2788381 
1968.602 2783112 2787180 2801253 2821129 2841840 2858983 2871891 2885066 
1972.459 2903878 2931932 2968161 3007062 3042362 3071660 3099324 3134665 
1976.317 3189035 3268216 3367679 3472609 3562799 3621632 3640844 3623670 
1980.174 3580571 3525718 3470872 3421276 3377930 3339530 3304773 3275493 
1984.032 3253827 3241309 3236268 3233998 3228523 3216072 3197213 3176218 
1987.889 3160231 3153522 3155925 3162701 3167240 3164837 3155191 3144110 
1991.747 3139138 3146013 3165304 3190971 3214437 3227922 3229224 3221981 
1995.604 3213736 3211700 3218910 3232563 3244947 3248586 3238404 3215538 
1999.461 3184195 3151954 3123085 3098456 3075864 3052006 3025780 3000356 
2003.319 2980972 2972998 2978803 2997119 3023310 3051205 3078100 3103729 
2007.176 3130827 3162367 3199015 3239139 3280101 3319363 3357862 3398568 
2011.034 3444086 3495355 3548801 3598044 3636133 3659924 3670449 3674058 
2014.891 3677834 3688026 3705537 3728796 3753327 3777023 3802125 3832978 
2018.749 3874063 3926485 3985335 4042320 4088475 4118779 4134100 4141258 
2022.606 4148718 4161932 4181067 4201174 4215828 4221415 4220947 4220780 
2026.463 4230482 4255711 4295999 4343921 4389238 4424551 4448284 4466060 
2030.321 4486916 4519324 4566401 4625739 4690377 4754121 4813819 4871047 
2034.178 4930527 4995848 5067480 5142142 5213430 5275674 5326052 5364930 
2038.036 5394049 5415957 5430719 5437261 5433873 5421224 5402000 5381100 
2041.893 5363958 5352787 5347621 5345374 5342422 5337122 5330983 5327025 
2045.750 5330279 5343629 5366943 5397941 5433571 5470176 5506081 5539572 
2049.608 5567662 5586658 5591995 5581087 5555110 5520276 5486216 5464406 
2053.465 5462560 5482189 5518228 5561017 5599916 5628077 5644222 5652447 
2057.323 5659396 5670507 5687762 5709147 5730600 5747757 5758333 5762262 
2061.180 5760751 5754842 5744870 5730298 5710893 5688433 5666008 5647009 
2065.038 5633616 5624687 5616027 5602030 5577999 5542894 5500678 5457695 
2068.895 5420520 5392976 5374693 5361676 5348627 5331822 5310958 5289559 
2072.752 5272689 5264371 5266820 5278692 5297542 5320015 5344602 5370532 
2076.610 5397807 5425887 5452930 5476753 5495779 5509974 5521551 5533833 
2080.467 5548969 5567561 5587699 5606259 5620626 5630359 5637711 5646673 
2084.325 5660772 5681350 5706864 5733018 5755110 5769582 5775323 5773510 
2088.182 5765788 5753733 5737248 5715627 5688030 5655468 5620860 5588739 
2092.040 5563769 5548666 5544304 5549338 5561554 5579073 5601024 5626936 
2095.897 5656374 5687695 5717910 5744165 5765150 5781703 5796713 5814241 
2099.754 5836002 5861928 5889402 5914525 5934779 5951070 5967060 5988459 
2103.612 6020173 6063750 6117110 6175585 6233563 6287482 6336902 6383874 
2107.469 6431421 6481396 6533260 6584626 6632835 6676305 6715876 6754004 
2111.327 6793918 6837439 6884228 6931831 6977048 7017556 7052275 7081878 
2115.184 7107407 7130142 7149813 7166184 7179119 7188854 7197916 7209236 
2119.042 7225170 7247642 7276551 7310583 7348426 7389575 7433997 7482503 
2122.899 7535262 7591467 7649399 7707406 7764544 7822026 7882284 7947881 
2126.756 8020204 8098515 8179473 8258894 8333363 8401732 8465177 8526267 
2130.614 8588143 8652799 8721082 8793163 8869584 8951532 9040634 9137300 
2134.471 9239945 9343900 9443003 9530953 9605133 9667298 9722763 9777692 
2138.329 9836934 9901098 9966323 10026234 10075166 10109079 10127529 
2141.704 10133022 10127936 10113623 10089917 10056040 10011450 9957542 
2145.079 9897166 9833104 9766984 9697452 9621494 9535661 9439887 9337095 
2148.937 9234732 9140312 9058463 8988808 8925590 8859439 8780653 8683998 
2152.794 8568644 8437946 8297664 8152396 8006164 7863321 7730071 7617700 
2156.651 7540926 7516113 7553502 7653749 7803202 7978084 8151619 8298846 
2160.509 8404333 8462035 8473218 8442980 8379707 8293003 8191866 8087713 
2164.366 7991145 7908332 7842134 7787819 7737154 7679750 7607045 7516214 
2168.224 7408583 7289557 7164533 7038165 6911462 6784158 6656958 6532251 
2172.081 6415112 6312192 6228992 6167519 6125645 6098259 6078870 6061230 
2175.938 6041676 6017351 5986947 5948417 5899881 5841376 5775323 5706763 
2179.796 5643417 5591861 5556419 5536384 5526719 5520208 5510175 5493665 
2183.653 5470613 5443301 5413742 5382777 5348996 5310791 5267289 5220439 
2187.511 5173425 5130809 5095305 5066642 5043344 5022361 5002417 4984150 
2191.368 4970576 4965113 4969437 4981436 4997054 5010763 5018808 5019880 
2195.226 5015858 5009322 5003255 4998227 4993334 4987167 4979056 4970811 
2199.083 4965080 4964879 4970643 4979760 4988038 4990183 4983044 4966856 
2202.940 4944469 4920373 4897988 4878050 4859051 4838579 4815126 4789463 
2206.798 4764505 4744406 4731443 4726552 4727858 4731744 4736266 4740922 
2210.655 4747622 4758877 4776130 4799313 4826015 4852953 4877480 4898759 
2214.513 4917323 4934850 4952713 4971314 4989513 5006976 5023501 5040127 
2218.370 5058328 5078912 5100535 5120215 5133827 5138052 5131145 5114583 
2222.228 5091081 5064564 5037043 5009288 4980799 4951272 4921747 4894838 
2226.085 4874264 4863038 4862000 4868835 4879859 4890783 4899597 4905930 
2229.942 4911493 4918061 4926640 4936225 4945038 4951674 4955796 4959818 
2233.800 4966990 4979626 4998462 5021087 5043545 5061882 5074286 5081158 
2237.657 5085751 5092322 5102949 5118740 5138387 5159779 5181071 5202129 
2241.515 5223491 5246027 5269771 5293349 5314279 5330950 5343126 5352250 
2245.372 5361743 5374592 5392506 5415688 5442495 5470345 5497356 5522323 
2249.229 5544069 5561923 5573904 5577328 5571152 5555714 5534471 5513430 
2253.087 5500074 5499940 5515276 5543700 5578805 5612503 5636939 5646874 
2256.944 5640933 5619921 5586927 5545982 5501282 5456386 5414782 5379691 
2260.802 5352753 5334606 5323805 5317969 5314950 5313373 5313642 5317969 
2264.659 5328031 5344904 5366977 5390560 5410924 5423472 5426257 5419580 
2268.517 5406261 5389252 5371539 5354732 5339638 5326455 5315721 5308845 
2272.374 5306632 5308912 5314179 5319679 5321960 5319746 5313407 5305424 
2276.231 5299890 5300393 5308342 5322665 5340107 5356813 5369459 5376906 
2280.089 5379221 5378450 5376672 5374994 5374726 5375967 5378684 5382945 
2283.946 5388279 5393714 5397303 5396968 5391298 5379657 5363756 5346112 
2287.804 5329575 5316761 5307906 5301835 5296200 5288587 5277787 5264003 
2291.661 5248709 5233618 5220170 5208500 5198608 5189957 5182613 5176980 
2295.519 5173996 5173627 5175035 5176376 5175069 5169302 5157901 5141539 
2299.376 5122126 5102077 5083571 5068084 5056418 5048842 5045557 5046831 
2303.233 5052597 5061982 5073649 5085751 5095976 5103418 5108447 5112336 
2307.091 5117466 5125546 5136912 5150826 5165445 5178556 5189018 5196864 
2310.948 5203135 5209306 5216683 5225905 5236200 5246563 5256121 5263600 
2314.806 5269033 5271884 5272119 5269771 5264539 5256859 5247133 5236200 
2318.663 5224765 5213631 5203403 5194517 5188012 5184793 5185497 5189219 
2322.521 5193344 5193042 5182815 5157063 5112839 5051021 4976575 4896580 
2326.378 4819649 4753049 4700593 4662913 4637460 4620548 4608928 4600857 
2330.235 4596002 4594997 4598178 4604842 4613449 4622356 4630561 4638699 
2334.093 4648579 4662210 4681367 4706488 4736768 4770368 4806248 4842801 
2337.950 4879290 4915380 4950702 4984318 5015456 5044183 5070766 5096210 
2341.808 5121188 5145964 5169402 5189789 5205717 5217354 5227414 5241063 
2345.665 5264640 5303814 5361475 5437161 5526786 5624217 5722073 5813100 
2349.522 5891047 5950970 5989332 6005156 5999142 5974652 5936056 5889166 
2353.380 5839495 5790635 5746112 5707670 5676213 5652312 5636536 5628345 
2357.237 5626634 5629319 5633817 5637207 5637677 5634656 5628849 5621733 
2361.095 5614684 5608609 5603843 5600285 5599077 5601225 5609381 5626063 
2364.952 5652312 5688165 5732145 5781804 5835029 5890039 5946838 6005693 
2368.810 6066707 6129947 6194339 6258908 6323118 6387471 6452910 6520210 
2372.667 6589504 6659549 6728192 6792606 6851475 6904662 6953782 7001325 
2376.524 7049682 7100233 7153080 7207046 7261052 7313885 7365377 7415897 
2380.382 7465985 7515742 7564830 7612508 7658234 7702313 7745553 7788899 
2384.239 7833361 7878775 7924461 7969310 8012577 8054564 8096591 8140647 
2388.097 8188489 8240692 8296752 8354204 8410852 8464637 8514745 8561919 
2391.954 8607880 8654050 8702016 8752218 8804490 8858458 8913583 8969324 
2395.812 9025173 9080252 9133577 9184440 9232667 9278598 9323655 9369460 
2399.669 9417065 9466911 9518184 9569566 9619665 9667772 9714597 9761765 
2403.526 9811074 9864252 9921844 9983749 10049021 10116879 10186241 10256869 
2407.384 10328424 10401010 10474456 10549068 10625087 10703224 10784194 
2410.759 10867964 10953723 11039361 11122536 11200388 11271385 11335217 
2414.134 11393277 11448283 11502478 11558042 11615757 11675691 11737132 
2417.510 11799604 11862799 11926582 11990817 12054858 12118124 12179969 
2420.885 12240356 12300309 12361157 12424570 12491607 12562441 12636254 
2424.260 12712160 12789922 12870224 12954945 13046476 13146600 13256277 
2427.635 13375036 13501656 13634604 13773201 13917249 14066922 14222604 
2431.010 14383583 14548493 14715556 14883026 15050322 15217921 15386855 
2434.386 15559016 15735298 15916497 16102381 16292885 16487567 16686572 
2437.761 16889320 17094644 17300374 17503376 17700362 17888876 18067798 
2441.136 18237706 18400146 18557148 18710090 18859382 19004816 19145276 
2444.511 19280102 19409252 19532584 19650680 19763886 19871570 19973280 
2447.887 20068036 20155598 20236022 20309972 20378584 20443318 20505284 
2451.262 20565970 20627084 20690186 20757052 20829108 20907780 20993214 
2454.637 21085622 21185112 21291686 21405774 21528384 21660574 21803324 
2458.012 21957902 22125086 22305134 22498624 22705500 22924772 23155510 
2461.388 23395360 23642198 23894044 24149958 24410054 24676162 24950470 
2464.763 25235030 25531442 25840330 26161966 26496450 26844478 27206718 
2468.138 27584196 27977302 28385410 28807002 29239884 29682102 30132050 
2471.513 30589362 31053778 31524606 32000900 32480110 32959170 33434716 
2474.889 33903796 34363592 34812140 35247028 35665376 36063888 36439308 
2478.264 36788044 37107712 37396384 37652036 37873488 38058960 38206696 
2481.639 38315472 38385248 38417320 38414972 38382572 38325352 38248232 
2485.014 38155828 38051832 37939076 37819048 37692940 37560548 37420976 
2488.390 37272208 37112116 36938560 36749816 36544936 36323656 36085740 
2491.765 35831476 35560532 35272364 34966356 34642084 34299300 33938192 
2495.140 33559016 33161830 32746602 32313854 31863850 31397998 30918592 
2498.515 30427916 29929240 29425282 28917874 28408722 27899140 27390474 
2501.891 26884942 26384644 25892204 25410050 24939732 24482086 24036934 
2505.266 23604308 23184274 22777670 22385786 22010532 21653364 21315804 
2508.641 20998328 20701410 20425050 20169550 19934528 19719676 19523676 
2512.016 19344914 19181326 19031784 18895234 18772362 18664500 18572710 
2515.392 18498020 18440766 18400146 18375154 18365060 18368898 18386492 
2518.767 18416946 18459090 18510676 18569494 18633162 18700370 18770770 
2522.142 18844850 18923130 19005820 19091884 19179074 19265000 19346994 
2525.517 19423458 19493976 19558544 19617088 19668744 19711666 19743148 
2528.893 19760834 19762394 19746444 19713156 19663612 19598786 19520730 
2532.268 19430560 19330020 19220356 19103658 18981590 18856614 18730776 
2535.643 18605840 18483740 18365994 18253430 18146768 18046038 17950926 
2539.018 17860494 17773638 17689146 17606672 17526006 17447494 17371550 
2542.394 17298134 17226662 17156374 17085960 17014144 16940444 16864724 
2545.769 16787400 16709745 16632656 16557507 16485365 16417192 16353710 
2549.144 16295360 16241802 16192481 16146053 16101247 16056649 16011612 
2552.519 15966373 15921481 15878141 15837418 15800236 15767079 15737772 
2555.895 15711455 15687201 15663911 15640244 15615478 15589169 15561316 
2559.270 15532298 15503212 15474232 15445562 15416517 15385929 15352631 
2562.645 15315938 15276056 15234462 15193043 15153824 15118074 15086237 
2566.020 15057663 15031078 15005491 14980967 14958126 14938716 14924725 
2569.396 14917626 14918140 14926233 14940945 14960905 14984878 15011493 
2572.771 15039517 15067954 15096083 15123083 15148986 15173896 15197847 
2576.146 15221662 15245374 15269089 15292976 15317001 15341441 15366671 
2579.521 15393172 15421255 15451090 15482610 15515883 15551426 15589925 
2582.896 15632207 15679093 15730523 15785599 15842674 15900172 15956817 
2586.272 16013023 16069992 16129924 16194647 16265193 16340842 16420152 
2589.647 16500473 16579915 16657272 16732782 16807030 16881190 16955948 
2593.022 17031302 17106810 17181676 17254932 17325996 17394346 17459292 
2596.397 17519694 17574790 17624096 17667750 17706506 17742054 17776194 
2599.773 17809850 17843992 17878794 17914324 17950926 17989706 18032222 
2603.148 18079820 18133500 18193340 18258822 18328458 18401426 18477482 
2606.523 18557216 18641776 18732542 18830178 18934586 19045110 19160512 
2609.898 19279860 19402252 19527628 19655984 19787362 19921868 20059224 
2613.274 20199402 20341984 20486596 20632816 20779646 20926034 21070700 
2616.649 21212666 21351094 21485944 21617666 21746504 21872836 21996276 
2620.024 22116056 22231370 22341168 22444958 22542944 22635856 22724388 
2623.399 22809728 22892498 22973152 23051762 23128110 23201750 23272150 
2626.775 23338574 23400466 23457712 23510314 23558760 23603642 23646188 
2630.150 23686354 23724322 23759562 23791306 23819028 23842514 23862116 
2633.525 23878744 23893376 23906822 23919530 23931292 23941832 23950480 
2636.900 23956992 23960984 23962594 23962348 23960844 23958846 23958078 
2640.276 23959338 23964310 23974220 23989872 24011336 24038406 24070134 
2643.651 24105718 24144564 24186248 24230986 24279302 24331410 24387832 
2647.026 24448434 24512866 24580534 24650878 24722670 24795106 24867412 
2650.401 24938714 25008554 25076720 25143246 25208588 25273134 25337442 
2653.777 25401866 25466720 25532428 25599198 25667528 25737906 25810582 
2657.152 25885486 25962548 26041418 26121710 26203108 26285014 26366760 
2660.527 26447956 26527442 26604548 26678884 26750450 26820192 26889490 
2663.902 26959890 27032382 27107426 27184284 27261892 27338812 27414262 
2667.278 27488240 27561600 27635536 27711564 27790402 27872006 27955818 
2670.653 28040846 28126386 28211840 28297696 28384738 28473920 28566410 
2674.028 28662922 28764020 28869676 28980208 29095058 29214154 29337040 
2677.403 29463328 29592882 29725386 29860804 29999212 30140148 30283440 
2680.779 30428770 30575640 30723912 30873482 31024490 31176688 31330008 
2684.154 31483884 31637706 31791080 31943944 32096714 32250680 32406914 
2687.529 32566388 32729380 32895796 33064850 33235722 33408094 33582144 
2690.904 33758268 33937440 34119908 34305648 34494480 34685832 34879528 
2694.280 35076120 35276496 35481784 35693036 35910792 36134528 36363428 
2697.655 36596192 36831464 37068668 37307264 37547292 37789044 38032592 
2701.030 38278304 38526184 38776088 39027624 39280176 39532764 39784776 
2704.405 40035404 40284436 40532300 40779976 41028560 41279396 41533336 
2707.781 41790704 42051660 42315656 42582916 42853376 43127888 43407000 
2711.156 43691976 43983328 44282000 44587964 44901340 45221600 45548172 
2714.531 45879700 46214576 46550668 46885440 47216436 47541664 47859364 
2717.906 48168600 48469124 48761292 49046276 49325808 49601952 49876972 
2721.281 50153616 50434156 50720916 51015756 51320160 51635568 51962736 
2724.657 52302152 52653692 53016972 53390708 53773992 54165532 54564340 
2728.032 54969720 55380672 55796268 56214532 56633384 57050412 57462996 
2731.407 57869236 58267368 58656616 59036036 59404540 59760316 60101736 
2734.782 60426364 60732640 61019720 61287148 61535420 61765352 61977592 
2738.158 62173612 62354804 62523784 62683800 62839048 62993392 63150860 
2741.533 63314400 63486552 63669220 63864156 64073668 64299948 64545260 
2744.908 64810828 65096960 65402232 65724104 66059096 66402764 66750532 
2748.283 67097104 67436328 67761336 68065472 68341696 68584640 68790816 
2751.659 68958480 69087544 69179040 69234032 69252952 69235616 69181136 
2755.034 69088048 68954864 68779592 68560440 68295432 67982576 67620936 
2758.409 67209960 66750304 66243424 65692076 65099268 64468764 63804784 
2761.784 63112736 62398484 61669564 60934120 60200608 59477372 58772112 
2765.160 58091132 57440416 56825080 56249720 55718664 55235368 54802596 
2768.535 54421560 54092196 53813256 53582364 53396924 53254196 53151648 
2771.910 53086492 53056052 53056616 53084136 53133636 53199584 53276708 
2775.285 53358936 53440880 53517516 53584124 53636944 53672936 53690296 
2778.661 53688420 53667124 53627384 53570552 53498404 53413524 53319076 
2782.036 53218684 53116712 53016820 52922452 52835552 52756944 52686008 
2785.411 52621000 52559888 52499388 52436460 52367268 52287468 52192660 
2788.786 52078372 51940780 51777472 51587652 51372632 51135092 50879468 
2792.162 50611408 50336556 50061280 49791608 49532984 49290656 49069500 
2795.537 48873452 48706212 48571272 48471572 48410076 48389408 48411036 
2798.912 48475828 48583724 48733344 48922656 49149080 49410560 49704520 
2802.287 50028824 50381204 50758900 51158912 51577728 52011476 52456428 
2805.663 52909092 53365604 53822560 54275448 54719456 55149248 55559272 
2809.038 55943612 56297016 56614204 56890756 57122736 57307124 57441212 
2812.413 57524156 57555968 57537848 57472452 57363196 57214352 57031176 
2815.788 56819376 56585708 56337492 56083348 55831572 55591324 55371484 
2819.164 55179456 55022104 54904780 54830752 54801696 54817596 54876432 
2822.539 54974832 55108280 55271188 55457240 55659524 55870912 56083648 
2825.914 56290112 56483468 56657240 56806724 56928948 57022864 57089180 
2829.289 57130216 57149608 57151460 57140536 57121908 57099836 57078636 
2832.665 57061556 57050412 57046404 57049804 57060572 57079052 57106224 
2836.040 57143788 57194016 57259600 57343156 57447564 57576208 57732900 
2839.415 57922996 58152724 58429460 58761224 59155848 59621332 60165592 
2842.790 60796400 61522292 62352160 63294044 64354204 65533796 66826424 
2846.166 68213968 69665008 71134840 72562248 73878032 75010216 75886968 
2849.541 76453272 76673648 76539104 76067728 75302912 74307320 73149296 
2852.916 71899824 70623960 69371416 68180784 67076804 66070864 65165796 
2856.291 64356892 63635184 62988640 62404796 61871860 61379456 60919024 
2859.667 60484100 60068940 59668580 59278428 58893064 58507176 58115828 
2863.042 57714276 57299452 56869948 56426604 55972632 55514356 55060808 
2866.417 54621788 54209300 53834260 53505712 53231084 53014052 52855688 
2869.792 52754060 52704752 52701388 52734940 52795216 52870584 52948280 
2873.167 53017380 53068372 53094884 53094096 53066200 53013488 52939412 
2876.543 52847004 52738984 52617000 52482636 52337924 52185000 52027012 
2879.918 51867480 51709724 51556720 51410860 51274040 51147468 51032120 
2883.293 50928684 50837748 50759420 50694100 50641828 50602736 50576972 
2886.668 50564872 50566176 50581032 50609176 50650128 50703820 50769960 
2890.044 50848624 50940008 51044528 51162492 51295104 51443424 51609816 
2893.419 51797256 52009460 52250168 52522832 52829828 53171948 53547612 
2896.794 53952948 54381712 54824400 55269720 55704312 56113808 56486412 
2900.169 56812464 57087820 57314044 57498628 57653696 57793228 57932236 
2903.545 58084772 58262028 58474040 58729056 59034288 59397284 59825228 
2906.920 60326036 60908312 61581772 62356828 63245328 64257496 65401272 
2910.295 66678048 68079536 69584448 71156080 72746768 74295688 75735584 
2913.670 77003832 78041352 78803472 79264616 79418592 79279248 78875616 
2917.046 78250712 77451864 76525864 75518168 74465800 73398400 72339480 
2920.421 71304616 70304512 69345376 68430200 67559656 66733644 65952248 
2923.796 65215880 64526000 63884384 63292632 62750368 62255936 61804544 
2927.171 61389380 61002332 60633916 60274948 59917148 59552956 59176920 
2930.547 58785428 58377496 57954272 57519732 57079616 56640104 56208192 
2933.922 55790204 55391136 55015108 54665264 54343824 54052188 53790980 
2937.297 53560172 53359120 53186816 53042916 52927504 52841656 52786952 
2940.672 52764800 52775612 52818232 52889108 52982756 53092112 53208200 
2944.048 53321736 53422368 53499044 53541504 53540156 53487988 53381976 
2947.423 53224116 53021912 52786796 52534124 52280328 52040016 51826112 
2950.798 51647356 51508556 51410860 51352160 51328668 51334480 51363872 
2954.173 51411012 51470692 51538812 51612540 51689568 51768212 51847284 
2957.549 51925620 52002772 52078640 52154324 52231372 52311796 52397208 
2960.924 52488768 52586592 52690276 52798924 52911224 53026592 53143896 
2964.299 53262020 53379316 53493608 53602268 53703120 53794576 53876156 
2967.674 53948856 54014328 54075384 54134832 54196196 54262984 54338792 
2971.050 54427268 54531316 54652412 54790644 54943584 55107600 55277024 
2974.425 55446132 55609624 55762588 55901548 56024160 56128780 56214640 
2977.800 56281552 56329984 56360920 56375784 56376536 56365748 56345904 
2981.175 56320404 56292112 56263976 56238064 56214908 56192960 56168296 
2984.551 56134888 56084364 56007576 55896012 55741456 55538528 55284400 
2987.926 54979724 54628248 54236708 53814232 53371152 52917364 52462296 
2991.301 52012596 51573028 51145904 50732048 50331124 49942576 49564888 
2994.676 49196208 48833216 48471084 48103668 47723504 47324720 46902492 
2998.052 46454820 45983116 45491324 44985456 44472136 43957996 43447720 
3001.427 42944960 42452096 41970372 41500668 41043744 40599960 40170116 
3004.802 39754564 39353520 38967020 38594876 38236944 37892436 37560800 
3008.177 37241124 36932028 36631992 36339616 36053336 35771964 35494692 
3011.552 35221120 34951452 34685756 34424208 34167152 33914332 33665416 
3014.928 33420116 33178460 32940834 32708124 32481682 32263138 32053332 
3018.303 31852868 31661510 31478148 31301484 31130446 30964136 30802870 
3021.678 30647566 30499748 30361464 30234450 30120756 30022004 29939532 
3025.053 29874754 29828826 29802636 29796284 29809308 29839580 29883448 
3028.429 29935096 29987424 30031450 30058116 30059038 30028076 29961614 
3031.804 29859952 29726416 29566636 29386954 29193846 28992394 28786288 
3035.179 28578054 28369316 28161456 27955710 27753206 27554574 27359950 
3038.554 27169150 26981538 26796580 26614164 26434400 26257732 26084448 
3041.930 25915028 25749508 25588446 25432534 25282862 25140964 25008272 
3045.305 24885518 24772760 24669008 24572854 24482718 24397470 24316444 
3048.680 24240060 24168524 24102146 24040716 23983604 23930068 23879026 
3052.055 23829912 23781786 23734296 23686880 23639364 23591888 23545222 
3055.431 23500660 23460020 23425152 23397142 23376092 23361408 23351618 
3058.806 23345148 23341372 23340042 23341652 23347246 23357490 23372910 
3062.181 23393750 23420012 23452220 23491112 23537318 23591118 23651994 
3065.556 23718408 23787562 23856866 23923344 23984722 24039526 24086420 
3068.932 24124352 24151954 24167962 24171046 24161200 24138924 24105998 
3072.307 24064740 24017954 23967880 23916344 23864846 23814232 23765548 
3075.682 23719422 23676208 23635936 23597976 23561278 23524656 23487368 
3079.057 23448758 23409206 23368784 23328050 23287076 23245932 23204616 
3082.433 23163478 23123392 23085794 23052074 23023460 23000156 22981466 
3085.808 22966620 22954008 22942516 22932176 22923234 22916806 22914222 
3089.183 22916458 22924038 22936928 22954322 22975214 22998340 23022622 
3092.558 23046764 23070558 23094040 23117628 23142160 23168440 23196998 
3095.934 23227930 23261068 23295748 23331722 23368678 23406584 23445436 
3099.309 23485200 23525600 23566210 23607000 23647622 23688698 23730656 
3102.684 23773806 23818292 23863552 23908888 23953490 23997118 24040156 
3106.059 24083688 24128940 24176824 24227448 24280634 24335158 24389864 
3109.435 24444192 24497722 24550626 24603326 24656066 24709166 24762796 
3112.810 24817242 24873026 24930714 24990232 25050710 25110630 25167752 
3116.185 25219894 25266250 25306954 25343764 25379032 25414758 25451964 
3119.560 25490190 25528140 25564124 25597126 25627316 25655576 25683698 
3122.936 25712804 25743392 25774928 25806610 25837870 25868816 25900258 
3126.311 25933776 25970708 26011762 26056546 26103904 26152500 26201208 
3129.686 26249322 26296806 26343978 26390948 26437920 26485110 26532198 
3133.061 26579856 26628292 26678250 26730152 26784210 26840248 26898160 
3136.437 26957632 27018772 27081540 27145624 27210492 27275300 27338848 
3139.812 27400074 27458874 27515528 27571450 27627696 27685360 27744836 
3143.187 27805944 27868014 27930270 27992392 28054630 28117444 28181432 
3146.562 28246950 28314036 28382794 28453152 28525292 28599498 28675948 
3149.938 28754284 28833556 28912490 28989524 29063560 29134102 29201182 
3153.313 29265614 29328424 29390146 29451414 29512338 29573234 29634458 
3156.688 29696682 29760798 29827728 29898000 29971662 30048706 30128748 
3160.063 30210934 30294736 30379302 30463848 30547450 30629254 30708870 
3163.438 30786118 30861634 30936168 31010574 31085774 31162092 31239776 
3166.814 31318684 31398784 31479820 31562052 31645012 31728446 31811618 
3170.189 31893908 31974756 32054156 32132498 32210820 32290224 32372218 
3173.564 32456938 32544818 32635358 32727774 32820962 32914170 33006358 
3176.939 33097032 33185932 33273030 33358716 33443518 33528414 33614288 
3180.315 33701724 33791540 33883808 33978928 34076720 34177008 34279400 
3183.690 34383284 34487516 34591200 34693616 34794264 34893856 34993292 
3187.065 35093612 35195896 35300684 35407580 35515836 35624764 35733864 
3190.440 35843424 35954092 36066912 36182244 36300060 36419456 36539496 
3193.816 36659244 36778088 36896104 37014108 37132364 37251300 37370456 
3197.191 37489460 37607732 37725360 37842976 37961496 38082288 38206336 
3200.566 38333928 38464852 38598028 38732436 38866852 39000364 39132724 
3203.941 39263856 39394188 39524348 39655232 39787496 39921112 40056004 
3207.317 40191268 40325408 40457592 40586976 40713740 40838616 40962576 
3210.692 41086396 41210612 41334824 41458780 41582156 41705640 41830400 
3214.067 41958476 42091448 42230192 42374060 42521372 42669324 42815640 
3217.442 42958236 43096676 43231496 43364308 43496428 43629140 43763248 
3220.818 43899044 44036572 44176016 44317516 44460940 44606396 44753252 
3224.193 44900788 45048116 45194284 45338656 45480800 45620780 45758192 
3227.568 45893252 46025776 46155500 46282540 46406960 46529316 46649896 
3230.943 46769588 46889056 47009180 47130376 47252896 47376892 47501812 
3234.319 47626992 47752056 47876528 48000076 48123140 48245792 48368296 
3237.694 48490500 48612552 48733936 48855612 48978584 49104708 49235584 
3241.069 49372472 49515268 49661940 49809892 49955700 50096868 50232728 
3244.444 50364200 50493816 50624996 50760424 50901672 51049260 51202232 
3247.820 51359096 51518780 51680348 51843172 52006956 52171396 52335904 
3251.195 52499760 52662932 52825752 52989192 53154720 53323528 53496232 
3254.570 53672596 53851700 54032304 54213240 54393544 54573356 54752944 
3257.945 54933020 55114524 55297872 55483176 55670412 55859192 56049304 
3261.321 56240328 56432112 56624552 56817488 57010848 57204412 57397984 
3264.696 57591192 57783688 57975664 58166968 58358660 58550928 58744952 
3268.071 58940960 59139292 59339812 59541596 59743780 59945488 60146032 
3271.446 60344956 60542224 60738392 60934312 61131348 61330840 61534620 
3274.822 61743768 61958716 62179272 62404492 62632924 62862940 63093880 
3278.197 63325592 63558624 63793772 64032004 64273320 64517884 64765096 
3281.572 65014288 65265284 65518268 65773836 66032404 66294520 66560588 
3284.947 66830404 67104256 67382312 67665072 67953480 68247936 68548800 
3288.323 68856232 69169560 69488480 69812344 70140456 70472520 70808360 
3291.698 71147920 71491696 71840352 72194928 72556488 72926112 73303384 
3295.073 73687264 74076160 74467848 74860752 75254680 75651056 76052184 
3298.448 76460944 76879824 77309320 77749104 78197432 78652216 79111816 
3301.823 79575560 80044072 80518496 81000952 81493064 81996264 82511376 
3305.199 83038528 83577144 84125664 84682648 85246648 85816824 86393208 
3308.574 86977272 87570976 88176200 88794336 89425248 90067888 90720616 
3311.949 91382632 92054208 92736808 93432392 94142464 94867056 95604840 
3315.324 96352888 97108408 97869760 98636736 99410904 100193968 100987304 
3318.700 101790560 102602680 103421248 104243808 105069864 105898808 
3321.593 106730648 107565392 108401712 109237216 110069504 110895864 
3324.486 111715184 112526784 113330560 114126344 114913240 115689968 
3327.379 116454696 117205984 117942696 118663816 119367072 120049272 
3330.272 120706080 121332992 121926064 122482992 123004096 123490280 
3333.165 123942368 124359720 124740376 125080656 125377432 125629488 
3336.058 125837776 126005184 126134888 126228424 126285448 126303520 
3338.951 126278712 126207992 126090360 125925976 125716312 125462440 
3341.844 125163568 124817792 124422280 123974816 123474392 122922072 
3344.737 122319824 121669648 120972864 120230080 119441832 118609040 
3347.630 117734648 116822808 115878312 114906424 113910768 112894024 
3350.523 111857952 110803392 109732200 108645936 107546936 106437328 
3353.417 105319184 104194104 103064320 101932704 100802600 99678424 98564144 
3356.792 97463000 96377256 95308128 94256600 93223024 92208896 91215080 
3360.167 90242744 89292192 88362880 87453312 86561976 85687528 84829816 
3363.542 83989304 83167400 82365240 81584016 80823992 80085296 79368224 
3366.917 78672632 77998768 77345936 76713424 76099600 75502680 74920472 
3370.293 74351088 73793360 73246192 72708608 72179712 71658448 71143624 
3373.668 70634520 70131384 69634584 69144928 68662568 68187296 67718040 
3377.043 67253320 66792108 66333896 65878896 65427580 64979924 64535224 
3380.418 64091676 63647120 63199872 62749528 62297392 61845652 61397164 
3383.794 60954096 60517500 60086820 59660712 59237564 58816004 58395272 
3387.169 57975248 57555592 57136188 56716852 56297356 55878224 55460816 
3390.544 55047228 54639748 54240532 53850460 53469700 53096944 52730528 
3393.919 52368124 52007632 51647244 51285672 50922124 50556908 50191104 
3397.295 49826652 49466552 49113204 48768780 48433708 48107332 47787604 
3400.670 47472172 47158776 46845944 46532748 46219220 45905184 45590860 
3404.045 45276136 44961200 44646420 44332748 44021172 43713008 43408832 
3407.420 43108604 42811656 42517064 42223804 41931468 41639808 41349216 
3410.796 41060168 40773204 40488760 40207516 39930012 39656684 39388164 
3414.171 39124240 38864460 38608024 38353760 38100556 37848252 37596712 
3417.546 37345972 37096056 36846756 36597492 36347828 36098128 35849324 
3420.921 35603004 35361176 35125368 34895904 34672264 34452688 34235368 
3424.297 34018988 33802784 33586976 33372060 33158862 32947876 32739316 
3427.672 32532960 32328918 32127682 31929572 31735044 31544202 31356506 
3431.047 31170956 30986554 30803012 30619940 30437760 30256902 30077434 
3434.422 29899352 29721660 29543724 29364976 29185624 29006208 28828176 
3437.798 28652550 28480288 28311454 28145548 27981686 27818556 27655202 
3441.173 27490854 27325474 27159556 26993736 26829214 26666306 26505078 
3444.548 26344544 26182872 26017988 25848842 25675542 25499818 25325360 
3447.923 25156132 24994900 24842958 24698996 24559636 24420990 24279478 
3451.299 24133144 23981956 23827392 23671274 23515384 23360846 23207832 
3454.674 23056546 22907656 22761958 22620392 22483618 22350620 22219582 
3458.049 22087886 21953370 21814404 21671754 21527340 21384088 21244294 
3461.424 21109692 20980486 20855596 20733698 20613394 20493890 20374832 
3464.800 20255740 20136716 20017412 19897966 19778416 19659312 19541108 
3468.175 19424012 19307606 19190884 19072462 18951580 18827756 18701684 
3471.550 18574750 18448336 18323032 18198834 18075122 17950960 17826180 
3474.925 17701398 17578516 17459498 17345824 17237522 17134108 17032750 
3478.301 16931212 16827490 16720179 16609589 16496275 16381819 16267737 
3481.676 16155750 16047092 15942518 15842950 15748182 15657522 15569662 
3485.051 15482850 15395369 15305676 15212808 15116530 15016980 14914848 
3488.426 14810888 14706234 14602254 14500287 14401873 14307726 14218153 
3491.802 14132262 14048612 13965765 13882421 13798888 13715575 13633989 
3495.177 13555528 13480704 13409345 13340594 13273255 13206302 13139462 
3498.552 13072461 13005061 12937159 12867801 12796576 12723180 12648329 
3501.927 12573423 12501121 12433026 12370634 12314489 12263737 12217250 
3505.302 12174107 12133286 12094070 12055743 12016841 11975694 11931078 
3508.678 11882276 11830077 11776758 11725695 11679198 11639274 11605820 
3512.053 11577370 11551985 11528200 11505302 11483664 11464136 11446649 
3515.428 11430219 11412802 11391780 11364943 11331476 11291822 11248126 
3518.803 11202700 11156972 11111624 11065838 11018392 10967893 10913866 
3522.179 10856345 10796388 10735488 10674528 10614086 10554195 10493940 
3525.554 10431724 10366191 10295682 10218839 10135363 10045969 9952253 
3528.929 9857100 9762985 9671940 9584402 9499862 9416761 9333269 9247898 
3532.787 9159972 9069628 8977239 8882943 8787110 8689441 8589900 8488626 
3536.644 8387003 8285945 8187645 8093182 8003667 7919130 7839637 7764274 
3540.501 7692633 7623568 7555828 7487391 7416908 7342427 7263545 7180500 
3544.359 7094642 7008026 6922606 6839694 6760162 6684078 6611236 6541703 
3548.216 6475880 6413229 6352940 6293802 6233463 6169670 6101047 6027598 
3552.074 5951037 5873717 5798325 5726638 5659362 5595653 5534303 5474438 
3555.931 5415621 5357584 5300594 5243947 5186268 5126049 5061412 4991758 
3559.789 4917960 4842533 4768358 4698751 4635585 4578991 4527795 4479384 
3563.646 4430074 4376185 4313702 4239650 4151963 4050547 3938121 3820209 
3567.503 3704267 3597243 3504775 3429191 3368881 3320298 3278198 3237937 
3571.361 3195143 3147515 3093484 3032987 2966860 2896106 2822530 2748199 
3575.218 2674981 2604642 2537647 2473928 2412084 2350649 2288290 2224375 
3579.076 2159836 2096339 2035881 1980024 1929599 1884372 1843209 1805111 
3582.933 1768347 1731919 1694263 1653151 1606090 1550056 1482725 1403304 
3586.791 1313961 1219452 1127256 1045044 978755 931003 901252 885747 879007 
3591.130 874724 866889 850355 822037 780742 727536 666074 600837 537037 
3595.470 479117 429463 388803 356536 330969 310046 291909 274635 256798 
3599.809 237669 216253 192849 168022 142665 118602 96762 77805 61169 45329 
3604.631 28098 6527 -21934 -59902 -108566 -168652 -238334 -314560 -392063 
3608.971 -464721 -527968 -578565 -617411 -647486 -674515 -703892 -739551 
3612.828 -782450 -830339 -878422 -921804 -956453 -981876 -1000158 -1015959 
3616.686 -1034272 -1059922 -1095189 -1140697 -1193866 -1250465 -1305736 
3620.061 -1355615 -1396836 -1428970 -1452451 -1468863 -1480057 -1487751 
3623.436 -1492605 -1494983 -1494355 -1490525 -1484812 -1480420 -1482963 
3626.811 -1500233 -1539855 -1606610 -1698306 -1804338 -1907737 -1991191 
3630.187 -2044520 -2067208 -2066219 -2052303 -2035352 -2022787 -2018598 
3633.562 -2022523 -2031625 -2042343 -2051643 -2058074 -2062196 -2066054 
3636.937 -2071430 -2079542 -2090951 -2104899 -2120759 -2138333 -2157160 
3640.312 -2177699 -2199886 -2223094 -2246400 -2268254 -2286646 -2300291 
3643.688 -2308366 -2311003 -2309355 -2306356 -2304872 -2309190 -2323560 
3647.063 -2351375 -2394972 -2454512 -2527550 -2608810 -2690943 -2765390 
3650.438 -2823694 -2859608 -2870371 -2856678 -2823958 -2779317 -2732235 
3653.813 -2691997 -2667168 -2663446 -2682546 -2720678 -2768683 -2816518 
3657.188 -2854835 -2878600 -2888211 -2887026 -2880246 -2872873 -2868034 
3660.564 -2867442 -2871227 -2878370 -2887290 -2896374 -2904240 -2909803 
3663.939 -2912074 -2910988 -2906972 -2901772 -2897460 -2896999 -2903418 
3667.314 -2919972 -2949494 -2993525 -3051568 -3119538 -3189077 -3248606 
3670.689 -3286655 -3295994 -3276329 -3233873 -3180525 -3131085 -3099273 
3674.065 -3096904 -3128782 -3189307 -3262846 -3329139 -3372606 -3387894 
3677.440 -3380398 -3360211 -3338543 -3322465 -3314902 -3314540 -3318354 
3680.815 -3322497 -3324963 -3325194 -3323780 -3320919 -3315724 -3306155 
3684.190 -3290305 -3267648 -3240911 -3214961 -3196839 -3194010 -3211640 
3687.566 -3251138 -3308851 -3376749 -3444964 -3504656 -3550405 -3580771 
3690.941 -3596511 -3599140 -3590662 -3573508 -3550044 -3523488 -3497457 
3694.316 -3474712 -3457192 -3445555 -3438751 -3434905 -3432045 -3428593 
3697.691 -3424582 -3421394 -3420638 -3424582 -3434543 -3450519 -3470899 
3701.067 -3493086 -3513628 -3529043 -3537226 -3537686 -3531146 -3519840 
3704.442 -3506102 -3492166 -3479708 -3469321 -3461268 -3455417 -3451604 
3707.817 -3450322 -3452327 -3458901 -3471622 -3491673 -3519051 -3552114 
3711.192 -3588197 -3622701 -3650531 -3667222 -3669982 -3658219 -3634069 
3714.568 -3600947 -3563518 -3526118 -3492757 -3465377 -3445128 -3430894 
3717.943 -3421098 -3414424 -3410052 -3408606 -3411531 -3420112 -3434149 
3721.318 -3452360 -3471261 -3487466 -3497983 -3501993 -3500744 -3497687 
3724.693 -3496274 -3499101 -3506365 -3515798 -3523620 -3525099 -3517441 
3728.069 -3500383 -3476454 -3450157 -3426588 -3410414 -3404299 -3408244 
3731.444 -3419651 -3433721 -3446147 -3454069 -3458375 -3462550 -3471064 
3734.819 -3486775 -3508928 -3532855 -3551917 -3559246 -3552476 -3533348 
3738.194 -3506693 -3477539 -3450059 -3425700 -3403641 -3382305 -3362216 
3741.570 -3346698 -3343738 -3363236 -3413142 -3494598 -3595427 -3692257 
3744.945 -3757466 -3774449 -3743604 -3679575 -3602426 -3530029 -3476651 
3748.320 -3449139 -3447396 -3465508 -3494959 -3527038 -3557175 -3583597 
3751.695 -3605548 -3620860 -3625625 -3615636 -3588362 -3546001 -3494039 
3755.071 -3440362 -3392628 -3356364 -3334104 -3324668 -3324733 -3329961 
3758.446 -3337918 -3347421 -3358304 -3370600 -3382140 -3390524 -3392957 
3761.821 -3388420 -3378491 -3367214 -3359290 -3358106 -3365143 -3377932 
3765.196 -3391806 -3401110 -3401932 -3393910 -3379379 -3363301 -3349788 
3768.572 -3341864 -3340187 -3343114 -3347684 -3351498 -3353241 -3352879 
3771.947 -3351169 -3348802 -3345744 -3341568 -3335189 -3325588 -3312731 
3775.322 -3297474 -3282117 -3269950 -3264458 -3268503 -3283498 -3308424 
3778.697 -3339102 -3370173 -3394929 -3408441 -3409132 -3399072 -3383192 
3782.073 -3367345 -3357087 -3354884 -3361131 -3373329 -3387434 -3399926 
3785.448 -3407981 -3411038 -3409263 -3403510 -3394370 -3382140 -3367313 
3788.823 -3350544 -3333973 -3319900 -3310331 -3306418 -3307470 -3311449 
3792.198 -3315724 -3317993 -3317894 -3316743 -3317335 -3322366 -3333249 
3795.573 -3349065 -3366228 -3380003 -3386316 -3383423 -3373362 -3360408 
3798.949 -3351399 -3352780 -3369252 -3401767 -3445588 -3490884 -3525000 
3802.324 -3537358 -3524178 -3488386 -3438718 -3386381 -3343508 -3319670 
3805.699 -3320722 -3346040 -3388255 -3434872 -3472346 -3491706 -3490391 
3809.074 -3471852 -3441742 -3406304 -3369680 -3333315 -3297474 -3262090 
3812.450 -3228578 -3200917 -3184899 -3186379 -3209502 -3253671 -3311416 
3815.825 -3369318 -3412616 -3430598 -3420440 -3387894 -3344494 -3303360 
3819.200 -3276461 -3271857 -3291259 -3329896 -3374907 -3411137 -3427245 
3822.575 -3418534 -3388354 -3344823 -3297704 -3255447 -3223282 -3203055 
3825.951 -3192859 -3188386 -3184998 -3178847 -3168979 -3156743 -3145361 
3829.326 -3137861 -3136677 -3142072 -3152927 -3166447 -3179505 -3189011 
3832.701 -3192958 -3190655 -3182630 -3171084 -3159013 -3150526 -3150164 
3836.076 -3161414 -3185557 -3221079 -3262715 -3302406 -3332690 -3348506 
3839.452 -3348900 -3337064 -3318288 -3298625 -3282577 -3271890 -3266562 
3842.827 -3264194 -3261629 -3255907 -3245548 -3230123 -3210653 -3189274 
3846.202 -3167631 -3147072 -3128223 -3110129 -3091410 -3070321 -3045645 
3849.577 -3018336 -2991320 -2971049 -2966310 -2986417 -3038966 -3125032 
3852.953 -3235714 -3351169 -3448678 -3511032 -3533512 -3522437 -3489405 
3856.328 -3446114 -3400124 -3356101 -3315329 -3277743 -3243344 -3212561 
3859.703 -3186544 -3166973 -3154736 -3150065 -3151743 -3158388 -3168256 
3863.078 -3180262 -3193484 -3206574 -3216803 -3220717 -3215126 -3198780 
3866.454 -3173584 -3144901 -3120821 -3109241 -3116084 -3142697 -3184176 
3869.829 -3229137 -3264556 -3281854 -3278730 -3260018 -3234497 -3211311 
3873.204 -3196247 -3191182 -3192760 -3194931 -3191412 -3178255 -3155230 
3876.579 -3126117 -3096444 -3071934 -3057622 -3056174 -3067591 -3088844 
3879.955 -3114439 -3137499 -3151644 -3152763 -3140394 -3117893 -3091509 
3883.330 -3069203 -3058806 -3065551 -3090226 -3127400 -3166183 -3194109 
3886.705 -3200720 -3183255 -3144868 -3094602 -3043638 -3001784 -2976972 
3890.080 -2971773 -2984311 -3007970 -3034689 -3056865 -3070124 -3073677 
3893.456 -3069203 -3059168 -3045843 -3030477 -3013367 -2995729 -2978355 
3896.831 -2962822 -2951567 -2945643 -2945545 -2950119 -2957227 -2964270 
3900.206 -2970161 -2975459 -2981908 -2992801 -3010274 -3035577 -3066670 
3903.581 -3099832 -3129736 -3151710 -3162072 -3160328 -3147796 -3127071 
3906.957 -3101379 -3073151 -3044823 -3017776 -2993459 -2972991 -2957359 
3910.332 -2946992 -2941529 -2939489 -2938502 -2936033 -2929648 -2918459 
3913.707 -2903154 -2886368 -2871392 -2861517 -2859147 -2864512 -2876132 
3917.082 -2890417 -2904010 -2914180 -2919676 -2920664 -2918327 -2914279 
3920.458 -2909408 -2904602 -2900488 -2897822 -2897625 -2901377 -2909605 
3923.833 -2922342 -2937481 -2951929 -2962164 -2965191 -2959268 -2945479 
3927.208 -2925995 -2903681 -2881661 -2862603 -2847692 -2837586 -2833010 
3930.583 -2833735 -2840219 -2852136 -2868363 -2886599 -2904208 -2917735 
3933.958 -2925074 -2925633 -2920236 -2910790 -2900093 -2889791 -2880970 
3937.334 -2873202 -2865302 -2856053 -2844992 -2832615 -2820765 -2811777 
3940.709 -2808057 -2811152 -2821719 -2838277 -2858851 -2880279 -2899369 
3944.084 -2913522 -2921585 -2923395 -2920104 -2913653 -2906116 -2899303 
3947.459 -2894004 -2890482 -2888047 -2885743 -2882616 -2878008 -2871688 
3950.835 -2863887 -2854736 -2844499 -2833109 -2821192 -2809210 -2798708 
3954.210 -2790774 -2786922 -2787613 -2792222 -2798905 -2805654 -2810065 
3957.585 -2810757 -2807234 -2800189 -2791202 -2782313 -2775103 -2770790 
3960.960 -2769967 -2772831 -2778922 -2787613 -2797786 -2808387 -2817835 
3964.336 -2825209 -2829718 -2831694 -2831595 -2830607 -2829718 -2829620 
3967.711 -2830081 -2830739 -2830706 -2829225 -2826032 -2821291 -2815234 
3971.086 -2808387 -2800551 -2791860 -2782049 -2771086 -2759497 -2747973 
3974.461 -2737503 -2728810 -2722324 -2717879 -2715113 -2713664 -2713170 
3977.837 -2713466 -2714586 -2716463 -2718504 -2720118 -2720414 -2719130 
3981.212 -2715738 -2710569 -2704609 -2698714 -2693709 -2690252 -2688704 
3984.587 -2689066 -2691042 -2694269 -2698254 -2702567 -2706255 -2708988 
3987.962 -2710108 -2709449 -2706947 -2702929 -2697826 -2691964 -2685938 
3991.338 -2679714 -2673655 -2667892 -2662689 -2658605 -2656004 -2655312 
3994.713 -2656597 -2659692 -2664138 -2669209 -2673952 -2677310 -2678331 
3998.088 -2676718 -2672107 -2664698 -2655740 -2646519 -2638615 
##END=
