
##TITLE=1731a_3_e
##JCAMP-DX=5.01  $$ Nicolet v. 1
##DATATYPE=INFRARED SPECTRUM
##ORIGIN=UniL
##OWNER=Nicolet
##LONGDATE=2011/09/22
##TIME=10:42:31
##SPECTROMETER/DATA SYSTEM=Nicolet iS5
##DATA PROCESSING=
Ratio against background
%Transmittance->Absorbance
Truncated
ElementMultiply or ElementDivide
##COMMENTS=
Number of sample scans: 32
Collection length: 51.18 sec
Sample gain: 2.0
Background collected on: Jeu Sep 22 10:31:57 2011 (GMT+02:00);
Number of background scans: 32
Background gain: 2.0
Sample spacing:  1.000
Number of scan points: 12415
Resolution points: 8192
Number of FFT points: 65536
Apodization: N-B fort;
Phase correction: Mertz;
Laser frequency: 15798.0 cm-1
Number of rejected sample scans: 0
Number of rejected background scans: 0
Bench serial number: ASB1000141;
##RESOLUTION=4.000
##XUNITS=1/CM
##YUNITS=ABSORBANCE
##FIRSTX=649.893372
##LASTX=4000.122314
##FIRSTY=0.109121
##MAXX=4000.122314
##MINX=649.893372
##MAXY=0.293237
##MINY=-0.000539
##XFACTOR=1.000000
##YFACTOR=1.000000E-009
##NPOINTS=6950
##DELTAX=0.482117
##ZPD=6100
##XYDATA=(X++(Y..Y))
649.893 109121080 108485800 107920176 107429976 107001816 106611488 
652.786 106233312 105853472 105473336 105105352 104765224 104462728 
655.679 104200128 103971776 103769760 103589672 103430664 103293624 
658.571 103175200 103066216 102950280 102809872 102633944 102421144 
661.464 102181440 101932240 101693768 101482552 101307768 101169920 
664.357 101061152 100964024 100849448 100676408 100392872 99944528 99306824 
667.732 98513712 97666872 96886904 96255032 95782648 95427808 95125272 
671.107 94811080 94442584 94000336 93493160 92946112 92391344 91850128 
674.481 91326856 90811880 90289888 89752232 89201528 88651400 88118680 
677.856 87616416 87146688 86702456 86271656 85844352 85416824 84991456 
681.231 84573656 84166160 83768448 83375152 82981248 82585464 82192080 
684.606 81809728 81447224 81109496 80796016 80502224 80223144 79957296 
687.981 79707272 79478704 79274960 79094200 78927552 78761480 78584552 
691.355 78391784 78188864 77989368 77811448 77669888 77571160 77512536 
694.730 77484656 77477408 77483072 77499272 77526960 77566456 77613792 
698.105 77660224 77693352 77702544 77682848 77636888 77573936 77504616 
701.480 77438552 77379984 77328760 77283072 77242096 77207504 77182608 
704.855 77169784 77166816 77166544 77158776 77134760 77091032 77032312 
708.229 76970792 76922464 76902128 76922896 76994408 77125816 77329232 
711.604 77618072 78003600 78486688 79050760 79656120 80240640 80735912 
714.979 81077464 81220656 81151992 80887376 80467088 79942048 79372008 
718.354 78823056 78363208 78075184 78046672 78351736 79035416 80078248 
721.729 81383880 82763944 83975848 84768512 84921264 84318104 82968096 
725.104 81011576 78672752 76215560 73885464 71844968 70173096 68866520 
728.478 67868832 67099856 66484272 65970460 65526440 65137536 64796404 
731.853 64496212 64229140 63988572 63770168 63573004 63397824 63244292 
735.228 63109288 62987380 62873124 62763920 62661216 62570468 62497040 
738.603 62443856 62409768 62389916 62378364 62370676 62366316 62367348 
741.978 62376604 62395348 62421820 62452388 62483416 62513188 62542768 
745.352 62574140 62608400 62642612 62670284 62682532 62672280 62637136 
748.727 62580460 62509856 62434448 62360656 62291312 62225612 62161952 
752.102 62101052 62047192 62007784 61989400 61996776 62029416 62083928 
755.477 62154840 62238040 62332236 62438232 62557608 62691108 62837400 
758.852 62994504 63161468 63340276 63536072 63756392 64008312 64296028 
762.227 64620308 64979308 65371192 65798776 66274532 66822216 67484712 
765.601 68321960 69402600 70800400 72566632 74705952 77147624 79731312 
768.976 82220984 84313064 85721024 86237752 85791264 84483368 82570480 
772.351 80414336 78358928 76669664 75466448 74707168 74220560 73767992 
775.726 73139296 72193360 70903488 69342696 67652488 65987468 64465688 
779.101 63157984 62074868 61185664 60437448 59779632 59175780 58605948 
782.475 58066324 57562212 57103312 56699484 56360656 56096168 55914512 
785.850 55823476 55829088 55935432 56145260 56460636 56884448 57420940 
789.225 58076364 58857628 59773132 60832300 62046044 63429340 65001784 
792.600 66786276 68810184 71098744 73670856 76534528 79682824 83092496 
795.975 86722888 90526176 94449296 98446088 102492880 106600512 110826576 
799.350 115270448 120071112 125374032 131281632 137808352 144819824 
802.242 152016032 158886048 164782128 169030544 171007792 170343344 
805.135 167006192 161344576 153994432 145743088 137379776 129471984 
808.028 122329264 115976320 110221472 104757328 99283832 93622752 87744544 
811.402 81770608 75902392 70372152 65368532 60997260 57290488 54212788 
814.777 51692664 49642144 47979688 46637500 45557404 44694084 44011016 
818.152 43478008 43074428 42786604 42605796 42525796 42539792 42639896 
821.527 42818784 43071320 43396528 43796964 44277636 44842520 45493164 
824.902 46228324 47044408 47937760 48903892 49936480 51025968 52157424 
828.277 53313528 54479704 55652184 56845320 58098368 59479692 61076008 
831.651 62991016 65332136 68184392 71593968 75534136 79886728 84408192 
835.026 88731216 92423720 95000392 96043096 95304208 92749648 88593976 
838.401 83233256 77194088 70992680 65055356 59701084 55093116 51274596 
841.776 48201548 45782856 43910336 42476720 41393684 40584172 39982436 
845.151 39537916 39209092 38967164 38795692 38685236 38630152 38624860 
848.525 38661840 38733340 38834424 38964228 39126920 39328236 39572652 
851.900 39860932 40189744 40554052 40950740 41380780 41850028 42366208 
855.275 42936656 43566680 44258848 45017248 45850496 46773316 47809020 
858.650 48987228 50340052 51905268 53724680 55843444 58311632 61172468 
862.025 64445816 68105664 72059768 76139152 80083784 83590800 86344816 
865.400 88059920 88554728 87772360 85800152 82842928 79200272 75216024 
868.774 71199920 67422056 64074084 61257732 59009804 57311888 56114264 
872.149 55348340 54941780 54826092 54930800 55189916 55541316 55925708 
875.524 56297316 56628172 56912252 57166768 57426764 57738988 58144276 
878.899 58669888 59315880 60052120 60815264 61516756 62064084 62367768 
882.274 62366584 62042104 61422812 60580844 59612132 58626424 57718632 
885.648 56954480 56372160 55978812 55763340 55705364 55785948 55990652 
889.023 56308860 56732032 57249700 57847472 58510740 59224728 59978468 
892.398 60765448 61582384 62426600 63295156 64183316 65085568 65996684 
895.773 66910444 67818472 68707352 69555136 70333424 71010936 71557712 
899.148 71954448 72195712 72290560 72258864 72126504 71922112 71671072 
902.523 71397880 71126648 70879656 70681304 70555776 70524360 70607232 
905.897 70822008 71183440 71705808 72401800 73281688 74353520 75621600 
909.272 77086680 78748736 80608168 82667744 84932376 87407032 90094384 
912.647 92992368 96096216 99401288 102909760 106635880 110609720 114875728 
916.022 119482752 124478640 129894776 135734928 141958928 148468400 
918.914 155102752 161606528 167646064 172838624 176760608 179053552 
921.807 179496832 178074896 175018560 170794112 166077696 161599744 
924.700 158096384 156211776 156360272 158712096 163125616 169179120 
927.593 176155152 183132592 189182608 193414688 195194080 194243104 
930.485 190624080 184685936 176917600 167869264 158029264 147792352 
933.378 137491456 127386096 117695144 108621816 100329328 92950256 86580824 
936.753 81267152 77020920 73825016 71643752 70426032 70099920 70569616 
940.128 71689480 73259448 75045024 76765608 78146136 78961768 79048888 
943.502 78346664 76893944 74821936 72317960 69590088 66846640 64250000 
946.877 61912820 59897752 58218452 56857748 55778904 54942040 54308304 
950.252 53843488 53520440 53313716 53199320 53156332 53166440 53216624 
953.627 53300864 53418020 53569508 53756440 53977708 54230096 54509492 
957.002 54813200 55140816 55493644 55873100 56278496 56706132 57149756 
960.377 57603976 58065604 58535344 59017016 59514536 60029596 60559476 
963.751 61097824 61637448 62173308 62704928 63236088 63772776 64320772 
967.126 64883344 65460592 66051340 66655024 67273168 67909464 68567728 
970.501 69250624 69958208 70688912 71441384 72217304 73021592 73862208 
973.876 74747624 75683320 76670680 77707456 78789448 79913216 81078064 
977.251 82284856 83534688 84826352 86155200 87513456 88892120 90284224 
980.625 91684032 93087808 94491056 95886672 97265520 98617160 99933016 
984.000 101208072 102440024 103626096 104759272 105824352 106797752 
986.893 107653608 108367056 108922320 109316864 109561304 109677264 
989.786 109692400 109639944 109554600 109470824 109425208 109449848 
992.678 109570728 109805024 110158352 110626176 111196872 111857528 
995.571 112596728 113405760 114278792 115209488 116188336 117204552 
998.464 118246592 119305400 120377592 121463440 122563528 123675120 
1001.356 124787536 125882808 126940312 127940072 128870096 129728544 
1004.249 130523432 131270144 131988392 132702496 133439064 134229408 
1007.142 135109648 136114496 137275792 138616448 140146784 141864928 
1010.035 143759360 145814000 148008800 150320288 152721360 155174880 
1012.927 157637152 160064704 162418528 164677392 166841456 168932128 
1015.820 170981376 173020880 175072992 177142928 179222320 181294912 
1018.713 183347168 185375056 187389088 189414240 191492560 193681152 
1021.605 196046144 198666640 201623424 204985552 208806192 213109744 
1024.498 217890320 223113168 228725696 234668176 240871872 247264816 
1027.391 253762160 260249968 266592112 272627008 278173792 283064320 
1030.284 287141184 290266144 292329088 293237248 292922848 291358144 
1033.177 288564128 284623264 279668032 273878976 267456896 260595088 
1036.070 253488000 246313104 239230512 232400912 225968352 220058096 
1038.963 214782832 210224096 206438672 203459136 201285632 199880944 
1041.856 199150944 198942208 199018208 199062064 198732288 197671488 
1044.750 195584032 192304880 187813040 182248448 175864096 169000624 
1047.643 162010416 155199888 148829120 143069536 138009760 133674520 
1050.536 130033504 127022344 124555352 122546432 120914688 119588744 
1053.429 118514520 117648048 116950264 116386120 115916128 115496912 
1056.322 115086992 114645408 114138160 113541592 112839408 112024144 
1059.215 111096856 110067504 108956808 107795640 106627288 105500168 
1062.108 104462688 103561952 102834088 102305216 101991360 101896584 
1065.001 102013200 102318216 102772920 103318168 103875680 104362688 
1067.894 104694120 104800480 104641840 104207872 103520528 102622072 
1070.787 101570672 100425016 99234696 98039656 96863752 95716960 94598496 
1074.162 93500968 92416056 91338832 90272840 89231064 88235952 87313112 
1077.538 86488664 85782944 85207608 84764880 84449320 84250712 84154336 
1080.913 84141944 84192464 84279112 84372048 84444528 84475680 84459664 
1084.288 84408472 84353704 84339984 84418856 84644400 85061488 85705528 
1087.663 86600680 87756792 89169584 90818208 92667280 94664616 96746528 
1091.039 98851488 100921928 102915264 104807440 106586120 108244512 
1093.932 109773112 111153224 112358464 113362304 114146992 114716560 
1096.825 115103752 115375232 115619312 115933608 116408432 117095896 
1099.718 117994432 119031624 120074560 120933112 121389776 121255576 
1102.611 120388216 118732840 116329856 113309312 109863864 106202424 
1105.504 102541168 99060760 95889408 93112480 90765080 88844144 87319960 
1108.879 86146912 85272208 84638392 84193232 83887808 83676680 83521072 
1112.254 83384184 83230536 83029424 82753368 82381776 81904744 81321856 
1115.630 80643272 79885048 79068528 78215880 77347840 76484256 75642304 
1119.005 74836032 74075688 73366856 72709944 72100688 71533264 71001224 
1122.380 70500040 70026416 69577104 69144504 68715624 68269456 67779976 
1125.755 67223112 66581020 65849364 65039224 64177356 63301288 62449596 
1129.131 61659520 60957760 60357368 59858652 59449788 59111124 58817104 
1132.506 58541980 58263692 57965628 57641360 57294460 56938616 56592956 
1135.881 56280116 56021708 55833008 55723184 55693536 55738216 55844688 
1139.256 55995136 56168788 56341716 56490260 56594576 56638744 56613640 
1142.632 56516868 56350580 56120256 55832592 55495752 55118700 54712616 
1146.007 54290992 53868540 53459692 53077696 52731352 52425956 52163588 
1149.382 51944852 51769968 51639820 51556052 51519264 51528852 51582208 
1152.757 51675612 51805504 51969388 52165980 52394740 52654252 52941432 
1156.133 53251608 53578840 53917456 54263472 54614196 54967388 55320112 
1159.508 55667476 56002524 56317876 56606656 56863412 57085024 57268560 
1162.883 57410352 57504904 57543904 57518332 57420484 57244632 56988708 
1166.258 56653428 56242440 55760704 55214896 54614272 53970244 53297308 
1169.634 52612396 51932376 51273292 50649196 50070616 49546240 49084452 
1173.009 48692680 48379408 48152608 48018692 47982276 48045892 48211320 
1176.384 48481536 48862104 49361520 49991200 50763032 51688412 52778116 
1179.759 54042136 55491088 57138532 58999252 61089852 63427196 66024572 
1183.135 68892696 72035792 75450480 79119168 83001792 87034360 91113144 
1186.510 95098384 98830768 102126528 104810600 106739584 107805920 107961256 
1189.885 107216840 105643440 103356216 100500224 97240936 93731288 90109680 
1193.260 86494888 82973632 79612176 76457032 73536016 70864640 68446568 
1196.635 66275804 64338604 62615172 61083788 59720092 58501372 57407556 
1200.011 56420040 55522524 54700328 53939068 53226140 52552000 51910684 
1203.386 51301408 50727840 50196648 49714400 49285164 48909604 48584128 
1206.761 48302892 48059288 47848152 47665928 47510576 47380888 47275288 
1210.136 47192796 47133660 47100684 47100204 47140904 47233688 47388648 
1213.512 47613980 47915488 48296116 48757436 49299420 49920532 50616992 
1216.887 51381100 52202676 53068484 53965476 54883160 55814844 56758048 
1220.262 57713600 58685020 59677400 60697392 61754848 62862672 64035996 
1223.637 65291232 66641620 68095080 69651624 71302944 73033512 74819464 
1227.013 76632856 78440208 80203096 81884224 83448912 84871104 86140048 
1230.388 87261624 88259704 89169584 90038368 90919384 91866016 92938520 
1233.763 94199344 95709488 97533712 99730040 102346104 105419488 108973240 
1237.138 113017576 117550752 122560584 128021880 133889184 140100448 
1240.031 146569904 153191360 159857072 166456832 172888704 179067216 
1242.925 184910512 190337296 195266144 199605360 203259424 206136800 
1245.818 208144896 209199440 209230496 208183856 206035904 202801184 
1248.711 198535392 193327344 187284672 180522144 173141808 165236144 
1251.604 156895840 148213456 139300000 130288736 121319280 112544080 
1254.497 104111304 96142976 88743776 81985216 75900264 70491392 65730272 
1257.872 61567644 57937992 54770420 51996164 49547100 47365476 45403908 
1261.247 43623204 41996504 40505928 39138816 37887300 36744008 35701380 
1264.623 34751800 33887784 33103038 32392674 31752046 31175728 30657272 
1267.998 30188912 29763034 29374654 29022432 28708902 28439426 28220466 
1271.373 28057422 27954084 27913662 27939562 28037630 28216718 28486408 
1274.748 28855722 29329170 29904462 30569278 31298812 32058470 32800198 
1278.124 33466782 34002180 34352764 34481384 34374856 34046152 33532638 
1281.499 32884966 32162078 31414810 30679890 29980394 29325448 28716618 
1284.874 28153926 27638712 27174722 26766728 26417814 26128958 25899026 
1288.249 25726270 25610024 25550384 25547256 25598884 25700290 25844656 
1291.625 26023686 26231158 26463662 26720002 26998814 27296894 27607570 
1295.000 27922320 28233726 28539588 28844782 29161422 29507692 29902296 
1298.375 30363098 30905324 31540566 32277450 33120024 34064284 35092392 
1301.750 36168344 37240688 38240636 39094476 39737968 40120652 40218168 
1305.125 40033624 39596132 38954116 38166860 37302028 36422772 35584160 
1308.501 34831280 34191528 33676408 33282116 32994776 32795052 32663684 
1311.876 32586888 32555066 32561888 32601602 32666504 32746748 32833252 
1315.251 32918420 32999172 33075970 33151210 33226352 33300612 33371236 
1318.626 33435180 33491690 33543446 33595532 33653168 33718628 33789676 
1322.002 33860308 33922428 33970400 34002256 34020924 34032460 34045400 
1325.377 34069336 34114564 34194180 34324076 34520700 34799220 35167944 
1328.752 35624548 36155848 36739900 37353300 37974332 38589552 39192736 
1332.127 39782668 40359004 40919324 41457872 41967964 42443328 42881136 
1335.503 43282084 43649068 43985788 44294880 44579408 44843804 45095352 
1338.878 45346016 45609588 45898484 46222276 46584716 46985700 47424384 
1342.253 47901760 48421892 48990936 49614544 50296152 51035656 51832160 
1345.628 52684628 53593232 54556600 55565148 56593032 57595656 58504408 
1349.004 59234904 59705416 59842188 59599516 58968168 57976192 56686084 
1352.379 55181860 53566916 51943468 50403608 49027840 47870684 46961372 
1355.754 46303552 45879036 45653976 45587216 45641908 45786836 45998368 
1359.129 46261200 46563508 46897140 47260028 47657756 48106444 48629416 
1362.505 49253472 49996032 50857080 51812936 52818752 53815320 54730504 
1365.880 55491464 56027892 56273632 56182816 55734596 54942832 53853952 
1369.255 52542388 51097412 49599876 48118808 46702064 45374332 44149088 
1372.630 43035536 42046728 41203904 40531496 40047360 39754708 39638352 
1376.006 39671348 39823084 40072536 40414096 40860052 41436912 42183124 
1379.381 43149220 44391904 45976416 47969064 50414136 53311132 56580500 
1382.756 60059956 63488856 66541424 68894360 70234984 70333688 69088592 
1386.131 66561052 62995844 58773932 54363688 50177380 46494428 43449368 
1389.507 41039776 39185120 37769812 36684516 35836012 35151200 34580296 
1392.882 34088116 33653100 33266984 32930716 32651536 32436158 32286622 
1396.257 32197830 32159794 32160506 32190122 32243900 32323134 32434766 
1399.632 32587782 32791372 33050586 33365048 33729116 34133348 34565692 
1403.008 35012504 35462692 35907196 36339616 36755188 37149328 37517272 
1406.383 37855520 38164476 38451460 38729936 39018488 39336108 39696180 
1409.758 40104700 40558888 41050956 41572748 42120108 42694328 43299652 
1413.133 43939812 44614876 45320820 46053476 46812176 47604252 48446268 
1416.509 49362560 50380720 51523556 52801128 54199692 55677004 57164272 
1419.884 58580540 59851924 60919404 61747400 62325924 62671892 62834984 
1423.259 62896220 62965928 63152544 63538716 64164416 65023684 66083900 
1426.634 67307016 68669016 70159816 71777072 73516784 75365376 77303336 
1430.010 79316640 81407536 83598464 85919584 88398336 91043464 93846136 
1433.385 96785368 99849024 103048568 106419456 110013160 113868256 117983472 
1436.760 122293480 126692456 131076944 135373296 139540160 143539488 
1439.653 147315584 150761872 153720640 156018064 157467520 157911744 
1442.546 157251072 155443616 152520768 148583904 143814768 138452016 
1445.439 132755216 127003952 121443896 116273608 111645640 107639984 
1448.332 104261288 101436520 99045072 96947744 95026080 93220520 91538544 
1451.708 90050760 88851176 88026352 87612320 87581352 87844072 88268520 
1455.083 88715568 89046248 89170072 89079600 88868984 88697968 88721992 
1458.458 89053928 89742216 90794808 92199888 93931392 95947704 98181568 
1461.833 100548336 102929248 105170360 107107008 108568200 109424864 
1464.726 109634528 109259160 108445984 107365608 106181688 105014160 
1467.619 103935912 102990016 102188112 101513328 100915608 100313296 
1470.512 99602992 98676624 97469056 95996104 94377976 92800800 91456896 
1473.888 90482016 89927856 89787800 90028296 90614672 91518136 92710552 
1477.263 94156248 95800656 97572208 99395288 101191040 102896072 104473608 
1480.638 105916016 107249200 108525280 109817480 111204672 112769336 
1483.531 114604552 116806768 119477520 122707136 126546096 130972416 
1486.424 135854384 140957248 145919232 150281888 153567808 155300080 
1489.317 155113552 152855040 148630000 142803648 135884592 128416240 
1492.210 120829512 113389832 106244480 99436320 92973440 86893528 81274352 
1495.586 76245616 71961832 68548328 66062300 64478876 63720664 63684328 
1498.961 64270364 65398536 66996692 68994280 71319032 73883224 76588512 
1502.336 79334736 81995504 84423480 86441400 87800712 88197424 87302496 
1505.711 84860984 80860432 75638480 69806776 63969648 58513092 53561332 
1509.087 49070316 44947384 41122524 37566116 34292740 31335670 28717184 
1512.462 26441512 24487836 22820552 21399542 20187356 19151060 18257162 
1515.837 17473538 16774107 16143473 15582850 15104831 14721555 14433009 
1519.212 14220551 14047414 13873629 13670676 13441401 13221195 13060510 
1522.588 12994341 13024147 13121772 13245789 13361779 13451756 13521037 
1525.963 13590739 13686406 13821292 13991087 14178235 14364883 14542874 
1529.338 14717441 14902195 15110561 15346349 15601568 15858792 16100626 
1532.713 16321644 16534066 16764913 17038472 17364548 17731700 18116608 
1536.089 18492418 18839452 19149882 19424844 19672210 19899042 20106522 
1539.464 20288096 20435676 20550754 20647654 20746104 20859664 20985668 
1542.839 21106734 21197948 21240988 21232150 21187060 21133380 21100334 
1546.214 21104160 21143086 21201846 21260856 21308462 21344932 21384646 
1549.590 21446988 21547640 21688926 21859942 22043404 22225476 22402950 
1552.965 22583952 22783572 23015564 23284280 23581812 23891278 24192380 
1556.340 24468836 24707552 24897974 25032736 25111264 25148794 25175372 
1559.715 25229834 25338426 25504456 25713826 25941936 26162600 26349894 
1563.091 26486412 26566434 26598066 26600848 26597996 26607260 26631532 
1566.466 26660034 26672964 26651510 26584398 26473734 26334616 26191670 
1569.841 26070338 25986750 25947424 25949850 25987910 26053344 26135362 
1573.216 26219966 26286456 26311626 26275614 26171646 26015630 25844798 
1576.592 25705036 25626052 25610868 25638880 25680042 25706478 25699306 
1579.967 25652166 25567676 25453510 25317422 25164838 24998202 24819206 
1583.342 24631518 24440898 24252814 24069398 23886410 23694332 23481948 
1586.717 23242226 22976960 22698274 22424616 22176306 21970622 21818132 
1590.093 21724280 21692024 21723480 21819804 21976548 22180874 22407486 
1593.468 22621580 22788250 22876884 22871680 22774144 22601160 22379088 
1596.843 22135512 21896740 21684502 21517312 21414510 21394844 21475360 
1600.218 21669420 21982752 22414848 22960332 23612740 24363860 25201636 
1603.594 26107248 27049168 27982002 28854200 29607144 30186248 30549868 
1606.969 30670750 30542972 30180140 29614416 28888124 28045936 27135324 
1610.344 26199870 25278928 24408406 23613158 22905246 22282430 21730026 
1613.719 21225608 20744054 20264144 19772348 19267494 18763574 18287538 
1617.094 17871992 17542912 17313410 17181434 17133520 17148688 17203668 
1620.470 17277274 17352720 17423350 17494236 17581070 17703434 17875720 
1623.845 18101304 18372598 18676226 19000870 19341486 19698178 20072096 
1627.220 20460822 20854554 21237856 21595624 21918624 22207238 22469278 
1630.595 22715346 22952156 23178962 23385778 23557150 23674982 23722642 
1633.971 23688804 23570618 23377666 23130802 22858828 22589432 22340400 
1637.346 22116196 21910158 21709336 21497468 21259324 20985356 20673924 
1640.721 20333580 19979802 19630574 19298774 18987370 18689058 18388048 
1644.096 18064828 17701226 17287272 16825252 16333239 15841335 15385002 
1647.472 14995235 14689336 14470038 14327520 14243901 14195079 14149891 
1650.847 14071850 13917727 13647905 13249684 12763442 12281324 11896034 
1654.222 11650743 11528098 11482507 11467674 11452161 11420796 11369944 
1657.597 11303521 11227860 11147929 11064581 10974892 10874148 10758073 
1660.973 10624713 10475270 10314173 10148693 9988666 9843814 9723135 9632166 
1664.830 9571292 9535661 9515373 9497356 9466572 9410056 9320269 9197638 
1668.688 9051663 8897484 8752320 8628700 8532248 8462035 8413048 8377477 
1672.545 8346064 8307964 8251498 8166981 8051122 7912213 7769064 7643868 
1676.402 7553299 7500403 7476570 7465716 7452738 7428638 7393417 7355334 
1680.260 7325645 7312503 7314694 7320287 7308224 7256840 7151733 6998867 
1684.117 6826364 6675296 6576821 6537364 6543115 6571641 6604407 6628562 
1687.975 6638353 6633340 6615912 6589941 6560338 6533765 6517552 6518427 
1691.832 6539887 6579647 6628798 6671695 6690202 6668768 6602657 6503527 
1695.689 6399375 6322614 6291449 6303585 6338348 6368171 6365279 6311049 
1699.547 6204355 6067009 5937231 5847991 5812797 5821999 5855313 5891786 
1703.404 5915600 5917615 5894641 5849570 5790568 5729391 5676482 5639591 
1707.262 5621733 5621129 5633347 5651910 5671379 5687728 5700418 5711061 
1711.119 5722744 5737785 5757091 5779151 5801347 5821025 5836237 5846682 
1714.977 5851719 5850544 5840603 5819816 5788587 5752995 5724759 5718010 
1718.834 5742217 5799869 5885673 5990374 6103803 6218068 6329539 6438685 
1722.691 6548733 6663721 6786581 6917960 7056383 7199062 7343607 7487930 
1726.549 7629199 7763970 7887345 7993508 8078700 8141795 8186058 8216616 
1730.406 8238125 8250688 8247918 8216413 8139735 8006602 7819462 7603336 
1734.264 7399315 7249260 7175144 7172853 7221465 7295083 7372960 7439626 
1738.121 7487998 7517731 7534351 7545848 7560279 7583408 7616992 7660325 
1741.979 7710475 7763835 7815988 7862275 7898952 7923618 7935159 7934045 
1745.836 7921391 7897838 7862917 7815245 7752096 7671252 7570259 7447378 
1749.693 7302395 7136878 6955533 6766422 6580387 6408117 6256589 6128267 
1753.551 6019199 5921276 5823779 5717037 5595720 5460882 5320753 5187878 
1757.408 5073313 4981837 4910186 4848262 4784136 4706789 4610602 4496491 
1761.266 4372034 4248316 4136073 4042654 3970622 3918395 3881986 3856746 
1765.123 3837324 3817969 3793468 3759811 3716665 3667776 3620496 3582776 
1768.980 3558790 3547198 3540016 3525986 3494320 3440012 3367445 3290050 
1772.838 3224785 3183561 3169843 3178221 3199015 3223016 3244780 3263075 
1776.695 3279533 3295992 3312519 3326943 3335857 3336726 3330014 3319196 
1780.553 3309614 3305875 3309013 3316626 3323938 3326609 3322736 3313888 
1784.410 3304239 3298696 3300333 3309681 3325006 3344105 3365408 3388650 
1788.268 3413796 3439711 3462923 3477987 3478187 3458581 3417903 3361134 
1792.125 3297962 3239105 3193374 3163802 3148816 3143643 3143176 3143777 
1795.982 3143543 3141140 3135733 3126589 3113574 3097054 3078968 3062150 
1799.840 3049336 3042162 3040427 3041996 3044498 3046667 3048902 3053107 
1803.697 3061415 3075030 3093584 3114742 3135733 3154390 3169876 3182760 
1807.555 3193908 3203355 3210264 3212668 3209396 3200417 3188368 3177119 
1811.412 3170444 3170711 3177687 3189002 3201619 3213435 3224284 3236001 
1815.270 3250890 3271220 3297027 3326976 3358830 3391054 3423347 3456911 
1819.127 3493618 3534704 3580070 3628381 3677633 3725688 3771175 3812487 
1822.984 3848723 3878609 3901310 3917692 3930598 3944775 3965305 3995400 
1826.842 4034394 4078407 4120418 4153635 4174544 4184847 4191773 4204821 
1830.699 4232590 4278130 4339001 4408350 4479049 4546311 4608426 4667133 
1834.557 4725714 4787252 4853422 4924428 5000306 5081895 5171749 5273293 
1838.414 5389453 5521249 5667116 5823544 5986040 6150950 6315924 6479782 
1842.271 6642087 6802871 6962604 7122428 7284435 7451289 7623736 7799491 
1846.129 7972144 8132511 8269498 8373323 8438116 8462475 8449602 8404502 
1849.986 8332519 8236572 8117554 7975587 7812546 7633381 7445828 7258592 
1853.844 7078038 6906480 6742225 6581598 6421198 6261026 6104172 5955673 
1857.701 5819178 5695215 5580349 5469640 5358154 5243913 5128764 5016361 
1861.559 4910621 4813183 4723236 4638766 4558867 4484774 4420032 4368252 
1865.416 4330936 4304934 4283852 4258822 4223724 4177454 4125369 4077237 
1869.273 4043022 4028474 4033256 4051751 4076635 4101921 4124031 4141325 
1873.131 4153201 4157817 4152230 4133263 4099412 4052152 3995668 3936583 
1876.988 3880314 3829802 3784611 3741830 3698385 3652739 3605394 3558890 
1880.846 3515564 3476417 3439945 3403610 3364941 3322836 3278398 3233564 
1884.703 3190537 3149951 3111104 3072728 3033988 2995485 2959187 2926728 
1888.561 2899242 2876360 2856281 2838572 2825165 2819562 2826165 2847643 
1892.418 2882931 2926628 2970730 3007929 3033687 3048902 3057678 3065920 
1896.275 3077733 3092716 3107967 3119647 3125688 3127890 3130660 3138403 
1900.133 3153589 3173982 3194643 3208962 3213135 3207093 3194710 3181058 
1903.990 3169443 3160231 3150952 3137769 3119080 3096921 3076131 3062517 
1907.848 3059647 3066988 3080102 3093984 3104463 3111738 3118780 3130260 
1911.705 3149384 3176218 3207761 3240307 3271020 3299030 3325206 3349481 
1915.563 3369415 3379533 3372855 3344539 3295391 3233030 3169776 3117278 
1919.420 3082238 3063384 3054075 3044765 3028115 3002825 2972264 2943574 
1923.277 2922692 2912351 2910817 2914919 2921391 2929964 2942940 2962489 
1927.135 2989012 3019173 3047167 3067155 3076398 3076632 3072627 3070258 
1930.992 3072361 3078567 3084507 3086543 3083573 3079034 3078934 3088078 
1934.850 3107533 3132529 3154857 3166806 3165070 3152921 3139238 3133164 
1938.707 3139605 3157127 3178521 3194109 3197613 3188101 3171445 3156626 
1942.564 3150886 3156693 3171579 3190971 3211633 3234799 3264410 3305073 
1946.422 3357728 3418237 3477619 3526420 3558923 3575059 3580405 3582543 
1950.279 3587988 3597911 3609938 3619761 3625742 3629150 3635064 3647527 
1954.137 3667208 3688728 3703866 3703565 3683816 3647226 3602455 3561028 
1957.994 3532065 3519038 3519472 3527589 3538112 3548868 3560494 3573856 
1961.852 3588356 3599414 3601051 3589425 3565571 3535807 3508783 3491380 
1965.709 3484800 3482462 3474647 3451835 3412427 3362436 3314722 3281002 
1969.566 3268550 3276328 3297061 3321400 3343303 3362904 3384909 3414196 
1973.424 3452469 3495923 3538713 3576930 3612945 3655446 3716531 3804064 
1977.281 3916188 4039711 4153669 4238747 4282815 4284220 4251328 4196791 
1981.139 4132326 4065497 3999581 3935480 3874330 3818370 3770339 3731904 
1984.996 3701527 3676197 3652873 3632190 3618759 3620463 3644085 3690633 
1988.854 3753193 3818537 3872358 3904787 3915753 3913346 3911473 3921972 
1992.711 3949523 3990184 4033758 4069979 4092689 4102155 4103760 4103593 
1996.568 4105165 4107707 4107273 4100984 4088207 4073256 4060513 4053156 
2000.426 4049042 4041651 4022722 3987208 3936048 3877540 3823652 3785513 
2004.283 3768902 3773146 3793268 3822415 3857615 3898735 3947116 4000952 
2008.141 4053624 4094194 4112424 4104329 4074728 4036166 4004296 3992123 
2011.998 4002590 4030782 4065497 4097606 4123228 4146476 4175547 4218203 
2015.855 4275520 4342080 4406676 4460068 4497495 4521668 4541154 4563220 
2019.713 4592151 4626944 4662344 4693927 4720053 4743501 4768324 4798040 
2023.570 4830906 4862034 4885791 4900065 4907740 4917056 4937431 4974565 
2027.428 5027590 5088499 5145160 5188112 5212458 5219734 5215006 5204980 
2031.285 5194752 5188146 5190158 5207562 5249548 5325080 5436959 5579073 
2035.143 5735368 5885774 6011505 6103198 6162276 6200490 6232017 6267749 
2039.000 6310880 6356739 6397660 6426041 6440670 6445243 6447530 6452978 
2042.857 6463303 6475410 6484322 6486172 6481127 6473190 6468919 6473862 
2046.715 6491015 6520109 6559329 6606997 6661938 6722539 6785706 6845416 
2050.572 6893890 6924963 6936780 6934188 6926882 6927858 6947116 6987957 
2054.430 7046011 7111280 7172920 7223553 7261759 7291983 7320456 7351593 
2058.287 7385834 7419908 7449165 7470233 7483379 7490930 7495987 7499358 
2062.145 7499392 7492177 7474682 7448053 7416807 7388361 7368410 7358670 
2066.002 7354424 7347954 7330531 7298183 7253067 7202936 7157594 7124719 
2069.859 7106935 7101176 7100772 7099189 7092587 7080833 7066386 7052410 
2073.717 7041263 7033080 7028163 7027288 7032204 7045674 7068743 7100233 
2077.574 7135464 7168205 7192829 7207585 7215030 7219780 7228068 7243667 
2081.432 7266375 7293196 7320287 7344719 7366860 7389237 7415055 7445761 
2085.289 7480311 7514663 7544263 7565504 7577339 7580744 7577069 7567258 
2089.146 7550433 7525418 7491773 7451895 7410943 7375622 7352133 7343943 
2093.004 7349909 7365714 7386339 7406797 7425132 7441750 7457457 7472727 
2096.861 7486211 7496223 7501886 7504887 7509741 7521844 7545309 7580508 
2100.719 7623838 7668857 7709193 7741168 7765960 7788089 7813424 7846654 
2104.576 7889166 7939950 7995971 8054801 8116103 8180925 8250316 8324649 
2108.434 8401394 8476327 8545393 8605886 8657632 8702557 8743395 8782208 
2112.291 8819503 8854805 8887305 8917304 8946627 8977645 9012318 9051155 
2116.148 9092635 9134356 9174286 9212022 9249422 9289261 9333709 9383545 
2120.006 9436807 9490684 9542265 9590669 9636874 9684035 9735334 9792637 
2123.863 9856354 9925336 9998159 10073910 10152288 10233087 10315395 
2127.239 10396394 10472725 10541091 10600097 10651334 10698536 10746050 
2130.614 10797814 10854919 10916719 10981553 11048878 11119273 11194982 
2133.989 11276826 11363379 11449575 11528915 11595270 11647305 11688183 
2137.364 11725422 11767022 11817512 11875296 11933563 11982642 12014525 
2140.740 12025664 12018340 11998107 11970585 11938297 11899882 11851561 
2144.115 11790309 11716333 11633794 11549229 11468524 11394739 11326613 
2147.490 11260163 11190732 11116655 11038308 10956543 10872007 10781714 
2150.865 10680912 10564176 10429213 10278582 10118982 9958695 9803177 
2154.240 9652290 9501149 9344271 9180345 9017359 8871647 8765033 8715234 
2158.098 8728722 8795496 8893325 8996453 9082451 9142139 9175573 9190294 
2161.955 9193746 9190260 9180074 9161461 9132968 9095613 9052238 9005587 
2165.813 8956403 8902997 8842700 8773722 8696912 8615383 8533127 8452744 
2169.670 8373356 8291551 8202704 8105368 8001236 7897163 7802156 7723123 
2173.528 7663428 7620634 7588600 7560042 7528991 7492987 7451727 7405583 
2177.385 7354154 7295824 7229652 7156987 7083056 7014929 6960078 6922539 
2181.242 6901969 6892543 6886618 6877159 6861371 6840064 6816502 6793817 
2185.100 6772513 6751345 6728024 6701339 6673613 6648950 6631960 6624559 
2188.957 6624626 6626812 6624727 6613591 6592598 6564207 6533193 6503459 
2192.815 6477427 6455029 6435861 6420795 6413296 6416861 6434616 6465858 
2196.672 6505915 6547287 6582136 6606728 6621261 6630278 6638622 6648782 
2200.530 6659044 6664798 6659953 6642188 6613154 6578806 6547253 6524044 
2204.387 6510926 6504839 6501038 6494143 6483515 6469995 6457720 6448908 
2208.244 6444032 6440333 6434683 6425133 6413364 6404116 6403410 6415684 
2212.102 6441342 6477024 6516577 6554283 6586510 6612682 6634046 6652349 
2215.959 6668196 6680477 6688149 6690202 6688149 6684481 6681924 6681924 
2219.817 6683910 6685390 6684279 6679367 6671662 6663755 6657631 6653190 
2223.674 6647437 6636266 6615811 6585601 6548161 6508908 6474199 6448572 
2227.531 6432800 6425267 6422611 6423014 6425974 6433473 6447059 6466666 
2231.389 6489569 6511296 6527138 6535177 6537027 6537431 6541905 6554721 
2235.246 6576687 6605719 6637612 6668532 6696325 6720991 6743639 6765513 
2239.104 6786581 6805968 6823133 6838415 6854134 6872985 6897559 6928464 
2242.961 6963446 6998194 7028500 7051736 7068406 7081271 7094776 7112560 
2246.819 7136845 7166925 7201285 7237097 7271766 7302833 7327869 7344449 
2250.676 7350481 7345629 7331779 7314188 7299059 7293230 7300777 7320962 
2254.533 7348662 7376229 7395944 7402550 7394799 7375521 7349201 7320254 
2258.391 7291376 7263309 7236019 7208932 7182488 7157560 7135497 7116636 
2262.248 7100805 7087872 7077466 7071505 7072111 7081439 7099828 7125325 
2266.106 7153114 7178007 7195558 7204351 7206237 7204957 7204485 7206742 
2269.963 7211493 7216411 7218803 7217253 7211863 7205058 7199297 7195828 
2273.821 7194278 7193200 7190572 7185620 7179355 7173763 7171573 7174403 
2277.678 7182353 7194177 7208629 7224531 7241679 7260782 7281773 7304012 
2281.535 7325915 7345224 7360793 7372117 7380576 7387822 7395372 7403191 
2285.393 7410201 7414987 7416571 7415392 7413133 7412156 7414010 7418358 
2289.250 7422975 7425301 7423009 7416066 7406426 7397630 7393417 7396079 
2293.108 7405685 7420414 7437502 7454524 7470233 7484256 7497234 7508797 
2296.965 7518439 7524810 7526901 7524473 7518675 7511966 7506168 7503100 
2300.823 7502864 7504010 7505022 7504617 7502358 7498650 7494672 7491132 
2304.680 7488335 7486009 7483649 7481222 7479402 7479132 7480986 7485402 
2308.537 7491436 7497807 7503606 7508325 7512674 7517933 7525620 7536206 
2312.395 7549557 7564021 7577879 7589882 7598716 7604111 7605527 7602426 
2316.252 7593996 7580037 7560413 7536206 7509640 7483312 7459210 7438750 
2320.110 7421762 7407033 7392709 7376936 7358266 7335418 7307213 7272676 
2323.967 7230898 7182050 7127447 7069888 7012909 6960449 6915300 6878573 
2327.824 6849859 6827240 6808795 6793178 6780220 6770763 6765614 6765009 
2331.682 6768071 6773489 6779682 6786211 6793515 6802939 6815796 6832490 
2335.539 6852350 6873860 6895034 6914762 6932672 6949540 6966678 6985230 
2339.397 7006511 7030756 7058370 7090095 7126302 7167396 7212807 7261220 
2343.254 7310617 7360052 7409662 7462311 7522754 7595884 7685753 7793014 
2347.112 7914676 8044473 8174240 8295299 8399198 8479300 8531099 8552490 
2350.969 8544380 8510555 8457103 8391192 8320022 8249438 8182614 8121775 
2354.826 8067020 8018820 7978253 7946328 7924698 7914304 7915081 7926351 
2358.684 7946531 7974338 8008830 8048962 8093587 8140883 8187847 8232284 
2362.541 8272976 8310362 8347414 8388489 8438014 8498323 8568846 8646512 
2366.399 8726627 8804997 8878850 8948454 9015396 9082011 9150159 9220077 
2370.256 9291259 9363197 9435791 9510259 9588263 9671634 9760613 9854694 
2374.114 9952083 10051021 10150388 10249744 10349564 10450697 10553618 
2377.489 10658432 10764629 10872041 10980840 11091433 11204298 11319233 
2380.864 11435015 11549569 11660613 11766307 11866102 11960504 12050770 
2384.239 12138057 12222635 12303581 12379566 12448915 12511216 12566840 
2387.615 12617390 12664533 12709669 12752967 12793914 12831761 12866128 
2390.990 12897257 12925929 12953443 12980685 13007417 13033399 13058119 
2394.365 13081544 13103945 13126655 13150766 13177031 13206063 13237625 
2397.740 13271718 13308991 13350162 13396667 13448988 13507433 13571321 
2401.115 13639699 13711540 13786369 13864598 13947049 14034273 14126615 
2404.491 14223495 14324095 14427836 14534651 14644988 14759877 14880249 
2407.866 15006520 15138762 15276571 15419573 15568082 15722379 15882196 
2411.241 16046748 16213598 16379584 16541157 16695283 16840166 16975346 
2414.616 17100780 17216596 17322444 17417280 17500374 17571236 17630824 
2417.992 17681036 17724348 17763110 17798630 17831666 17862532 17891878 
2421.367 17920988 17952410 17988290 18030598 18079852 18135402 18196244 
2424.742 18261620 18332226 18410412 18499126 18600964 18717596 18848828 
2428.117 18993186 19148392 19312836 19485798 19667842 19859916 20062868 
2431.493 20276848 20501114 20734356 20975444 21224078 21480268 21744902 
2434.868 22018410 22301404 22593656 22894522 23203394 23519162 23840730 
2438.243 24167016 24496914 24829802 25165366 25503966 25846592 26193710 
2441.618 26545686 26901616 27259848 27618726 27976384 28332460 28687344 
2444.994 29042058 29397734 29754978 30112624 30469748 30824426 31174942 
2448.369 31520400 31860142 32193690 32520284 32838758 33148062 33447600 
2451.744 33737244 34017772 34290300 34555824 34814688 35067136 35312796 
2455.119 35551684 35784520 36012408 36236484 36457288 36674096 36884412 
2458.495 37085052 37271956 37441348 37590356 37716864 37819732 37898616 
2461.870 37953756 37986516 37999360 37995812 37980264 37957808 37933724 
2465.245 37913044 37900896 37902268 37922048 37965764 38037800 38141864 
2468.620 38280368 38453740 38661584 38902508 39175188 39478548 39811720 
2471.996 40173276 40560744 40970588 41397584 41836052 42280920 42727228 
2475.371 43171180 43608732 44036132 44448536 44840832 45207852 45544932 
2478.746 45848400 46116076 46346644 46539568 46694392 46811364 46890680 
2482.121 46933460 46941544 46917220 46863364 46783204 46679964 46557568 
2485.497 46420492 46272812 46118616 45960136 45797916 45630200 45453500 
2488.872 45264220 45058812 44835688 44594864 44337444 44064516 43777248 
2492.247 43474676 43155884 42819148 42462876 42086228 41688932 41270436 
2495.622 40830680 40368928 39884792 39378808 38852684 38309140 37751812 
2498.998 37184880 36611116 36033684 35454136 34874252 34295820 33721456 
2502.373 33153568 32594532 32046198 31509534 30984810 30472910 29974750 
2505.748 29492692 29029906 28588564 28170756 27776626 27404804 27052800 
2509.123 26718418 26399996 26096938 25809810 25539210 25285916 25050252 
2512.499 24832152 24631658 24449486 24286346 24142882 24019390 23914802 
2515.874 23827146 23754208 23694018 23645590 23609170 23585626 23575832 
2519.249 23579644 23595982 23622990 23658958 23702520 23753438 23812308 
2522.624 23879830 23955976 24039632 24128836 24220652 24312380 24401290 
2526.000 24485170 24561916 24629380 24685316 24727790 24755010 24766060 
2529.375 24760516 24738804 24700922 24647300 24578254 24494566 24397752 
2532.750 24290480 24175670 24056616 23935914 23815002 23694544 23574396 
2536.125 23454950 23337036 23222196 23112666 23009974 22915166 22827816 
2539.500 22746698 22670414 22597600 22527310 22459158 22392762 22327180 
2542.876 22262094 22196776 22130908 22064876 21999762 21936538 21876006 
2546.251 21817852 21761030 21704494 21647164 21588728 21529986 21472088 
2549.626 21415972 21362510 21311696 21263118 21216632 21172412 21130772 
2553.001 21092440 21057798 21026252 20997108 20969186 20941680 20914596 
2556.377 20888416 20863870 20841134 20819686 20797996 20774014 20746034 
2559.752 20713158 20674722 20631254 20583096 20530120 20472562 20410498 
2563.127 20344798 20277578 20211134 20148342 20091462 20041352 19997946 
2566.502 19960338 19927242 19898106 19872540 19851314 19834770 19822978 
2569.878 19816008 19813372 19815174 19821556 19833244 19850308 19872576 
2573.253 19898798 19927348 19956592 19985768 20015156 20046246 20080460 
2576.628 20118946 20161324 20206516 20252512 20297680 20341706 20385426 
2580.003 20430432 20478640 20530848 20587788 20648592 20712846 20779992 
2583.379 20850278 20924052 21001804 21082944 21166428 21251044 21335674 
2586.754 21419732 21504012 21589390 21677082 21767894 21861754 21958250 
2590.129 22056684 22156814 22258364 22361434 22465684 22569956 22672964 
2593.504 22772434 22866896 22955196 23037364 23113888 23185636 23253412 
2596.880 23317702 23378750 23437216 23494050 23550748 23609206 23670818 
2600.255 23737130 23808666 23885746 23968442 24056896 24151358 24252220 
2603.630 24359444 24472586 24590946 24713128 24838748 24967316 25099292 
2607.005 25235276 25376222 25523186 25676914 25837870 26006520 26182448 
2610.381 26364858 26552204 26742204 26931968 27119030 27301198 27477864 
2613.756 27648882 27815056 27977302 28135826 28290412 28440560 28585732 
2617.131 28725856 28861388 28992890 29120816 29244596 29363272 29475386 
2620.506 29579476 29675076 29762822 29843874 29920294 29993494 30064756 
2623.882 30134466 30202800 30269834 30335596 30400410 30464416 30527188 
2627.257 30587942 30646038 30700868 30752542 30802088 30851106 30901160 
2630.632 30952928 31006304 31060292 31113182 31163480 31210190 31253162 
2634.007 31292688 31329264 31363058 31393976 31421580 31445980 31467140 
2637.383 31486198 31504582 31523928 31545770 31571138 31600572 31634178 
2640.758 31671740 31713300 31758786 31808552 31862318 31920656 31983528 
2644.133 32051052 32123186 32199864 32280840 32365754 32454402 32546636 
2647.508 32642394 32741886 32845474 32953344 33065386 33181072 33299756 
2650.884 33420440 33542302 33664772 33787384 33910212 34032820 34155932 
2654.259 34279004 34402864 34528380 34656472 34788448 34925276 35067136 
2657.634 35213932 35364660 35518388 35674112 35831228 35989584 36149184 
2661.009 36309856 36471560 36633288 36794676 36955012 37114280 37272496 
2664.385 37430332 37587900 37745668 37903716 38061924 38220192 38378664 
2667.760 38537556 38696720 38856272 39016024 39176128 39336616 39498324 
2671.135 39662600 39830280 40002672 40180000 40362168 40548268 40737356 
2674.510 40928788 41122524 41318936 41518388 41721144 41926908 42135036 
2677.885 42344800 42555580 42767704 42981904 43199324 43421392 43648888 
2681.261 43882292 44121800 44367424 44619028 44877384 45143104 45416492 
2684.636 45697892 45987280 46284456 46588664 46899944 47218212 47543364 
2688.011 47875644 48215172 48562120 48916392 49277816 49646528 50021948 
2691.386 50403608 50790444 51181352 51575824 51973496 52375564 52783316 
2694.762 53199024 53624460 54060524 54507088 54963136 55427236 55897932 
2698.137 56374348 56856348 57344328 57838648 58339596 58847120 59360624 
2701.512 59878884 60400852 60924932 61449760 61973772 62495544 63013852 
2704.887 63527556 64035876 64538336 65033876 65521812 66000812 66469216 
2708.263 66925792 67369120 67798560 68214008 68615568 69003144 69376864 
2711.638 69736584 70082128 70413408 70731024 71034472 71323872 71598072 
2715.013 71855800 72094464 72311664 72505272 72673624 72816072 72932736 
2718.388 73024616 73093184 73140896 73171096 73187640 73195368 73199800 
2721.764 73206664 73221056 73248272 73292600 73357632 73446192 73560272 
2725.139 73700768 73867984 74061544 74280160 74522840 74788520 75076256 
2728.514 75385120 75713968 76060704 76422896 76797560 77181576 77572472 
2731.889 77968632 78368808 78772088 79177216 79581768 79982672 80376296 
2735.265 80758944 81128144 81482512 81821296 82145120 82454280 82749480 
2738.640 83031360 83300928 83560312 83812008 84059312 84305752 84554536 
2742.015 84808504 85069832 85340360 85621944 85916760 86226840 86554088 
2745.390 86899600 87263448 87644344 88039664 88445536 88856416 89266552 
2748.766 89668560 90054840 90417952 90751200 91049272 91309072 91529176 
2752.141 91709984 91852384 91958144 92028408 92064408 92066624 92035168 
2755.516 91969352 91867856 91728360 91548080 91323624 91052456 90732496 
2758.891 90363112 89944816 89479240 88968608 88415520 87823632 87197144 
2762.267 86541112 85862080 85167096 84463488 83758648 83059272 82371240 
2765.642 81700256 81051624 80430168 79840656 79287408 78773912 78302888 
2769.017 77876016 77494000 77156768 76863960 76614752 76407688 76241232 
2772.392 76112656 76018632 75955360 75918144 75901648 75900776 75909624 
2775.768 75922208 75933256 75937168 75928960 75904216 75859192 75789872 
2779.143 75693696 75568328 75412560 75226904 75013560 74776832 74522360 
2782.518 74257080 73987440 73718984 73456272 73201608 72956056 72719032 
2785.893 72488952 72263176 72037824 71808568 71570024 71317472 71046448 
2789.269 70754032 70438816 70101168 69743432 69368776 68981472 68586504 
2792.644 68189232 67795232 67410560 67040420 66690064 66364312 66066816 
2796.019 65800972 65569712 65375464 65220460 65106160 65033412 65002552 
2799.394 65012404 65061896 65149008 65271868 65428392 65615952 65831864 
2802.770 66073024 66335320 66614544 66906624 67207944 67515600 67827296 
2806.145 68140784 68453904 68764032 69067504 69360456 69638208 69895624 
2809.520 70127848 70329440 70495560 70621616 70703728 70739088 70726576 
2812.895 70666056 70558816 70407368 70215000 69985928 69725424 69439992 
2816.271 69137000 68825136 68513840 68212496 67930664 67677616 67461216 
2819.646 67289144 67167368 67100048 67088984 67133264 67229848 67373024 
2823.021 67556008 67771872 68013152 68272976 68544720 68821248 69095120 
2826.396 69358472 69603048 69821568 70007880 70157672 70269064 70341952 
2829.771 70378144 70380952 70354728 70304984 70237120 70157248 70070336 
2833.147 69980128 69889472 69799968 69712544 69628328 69548792 69476232 
2836.522 69413448 69363488 69329360 69314400 69322288 69357072 69424752 
2839.897 69531216 69683568 69888888 70154208 70486240 70892216 71379992 
2843.272 71958984 72639904 73432576 74345304 75381336 76535744 77791672 
2846.648 79118536 80473112 81794608 83014024 84058832 84856560 85349632 
2850.023 85501496 85301400 84766696 83940672 82886728 81673584 80372464 
2853.398 79048216 77750016 76516264 75371336 74327496 73388432 72550576 
2856.773 71805248 71140312 70541784 69996280 69490816 69014832 68560240 
2860.149 68119928 67687920 67258544 66825116 66381612 65922672 65443872 
2863.524 64943792 64423024 63885504 63336900 62785632 62241788 61716156 
2866.899 61220152 60765032 60360032 60013084 59729368 59511344 59358728 
2870.274 59268252 59233844 59246676 59295556 59367576 59448840 59526660 
2873.650 59590924 59634368 59653640 59648776 59621824 59575876 59513512 
2877.025 59437136 59348012 59247932 59138648 59022408 58901984 58780192 
2880.400 58659156 58541108 58427680 58320648 58222168 58134580 58060152 
2883.775 58000352 57955708 57925268 57907400 57900316 57902364 57913076 
2887.151 57932384 57961200 58000392 58050912 58113216 58187464 58273548 
2890.526 58371960 58482720 58606932 58745936 58902060 59078360 59279036 
2893.901 59508912 59773052 60076472 60422824 60813740 61247888 61720740 
2897.276 62224008 62744892 63268060 63775540 64248540 64671292 65032072 
2900.652 65326012 65555648 65731040 65867640 65982564 66093900 66217600 
2904.027 66366248 66550812 66780208 67062304 67405376 67817344 68305976 
2907.402 68879688 69547040 70317568 71202568 72212888 73358376 74643104 
2910.777 76062608 77599216 79220008 80879992 82520152 84073624 85476768 
2914.153 86667864 87597648 88234776 88565536 88596008 88349040 87862368 
2917.528 87180904 86351080 85420016 84427104 83404456 82377696 81363728 
2920.903 80373944 79415528 78491848 77604640 76754344 75941224 75165872 
2924.278 74429736 73734224 73081296 72472464 71907360 71384128 70898304 
2927.654 70443568 70011776 69594256 69182728 68769928 68350960 67923064 
2931.029 67486640 67044288 66601024 66163928 65740256 65337644 64963260 
2934.404 64622536 64319812 64057572 63836792 63657248 63517428 63415924 
2937.779 63350744 63320532 63324636 63363432 63437856 63549184 63697956 
2941.155 63883276 64102388 64349556 64617076 64894848 65170140 65429428 
2944.530 65657920 65839648 65960736 66008912 65976204 65861084 65669024 
2947.905 65412672 65109700 64782476 64454236 64145096 63871988 63646160 
2951.280 63472600 63351208 63277444 63244372 63243300 63265564 63303708 
2954.656 63351124 63403456 63457600 63511484 63564220 63615352 63664764 
2958.031 63713148 63761496 63811460 63864960 63923924 63989764 64063028 
2961.406 64143600 64230560 64322768 64418992 64518160 64619384 64722016 
2964.781 64824872 64927324 65028220 65127252 65224120 65319352 65413788 
2968.156 65508292 65604156 65702752 65805644 65915264 66034140 66165044 
2971.532 66310428 66471340 66647648 66837324 67037016 67242104 67447864 
2974.907 67649152 67840936 68017880 68174664 68305392 68404296 68466504 
2978.282 68488192 68467048 68403320 68299080 68158648 67988312 67796048 
2981.657 67590544 67380920 67175264 66979452 66795976 66623428 66456780 
2985.033 66287384 66104816 65899112 65661504 65386408 65071792 64718904 
2988.408 64331376 63913980 63471444 63006952 62522024 62016460 61489192 
2991.783 60939952 60370088 59783512 59186868 58588616 57996756 57418028 
2995.158 56855632 56308636 55772424 55239808 54703148 54155400 53592296 
2998.534 53012664 52418180 51812900 51202044 50591492 49986588 49391852 
3001.909 48810676 48245160 47696584 47165060 46650632 46152480 45670136 
3005.284 45203180 44751348 44314472 43892372 43484528 43089796 42707304 
3008.659 42335740 41974096 41621432 41277468 40941460 40613020 40291268 
3012.035 39975312 39664304 39357584 39055064 38756816 38463516 38175620 
3015.410 37893520 37617704 37348172 37085088 36828868 36579612 36337884 
3018.785 36103888 35877756 35659404 35448568 35245232 35049432 34861652 
3022.160 34682100 34511804 34351616 34202964 34067368 33946932 33844084 
3025.536 33761132 33699824 33660512 33642108 33641568 33653960 33672580 
3028.911 33690196 33698140 33688008 33652204 33584256 33479952 33338108 
3032.286 33160362 32951198 32716912 32464792 32201648 31933208 31663898 
3035.661 31396680 31133614 30875866 30624668 30380688 30144232 29915252 
3039.037 29693064 29476734 29264904 29057008 28852500 28651524 28454640 
3042.412 28262686 28076334 27896526 27723856 27559022 27402122 27253072 
3045.787 27111342 26975896 26846134 26721238 26600884 26485708 26376370 
3049.162 26273220 26176642 26085960 25999766 25916260 25834036 25752004 
3052.538 25669848 25587882 25506670 25426808 25348682 25272852 25199354 
3055.913 25128712 25061626 24998798 24940714 24887588 24839414 24795702 
3059.288 24756378 24721406 24691384 24666764 24648176 24635868 24629802 
3062.663 24629660 24635376 24646914 24664694 24689174 24720354 24757640 
3066.039 24799420 24843660 24887272 24927554 24961804 24987706 25003112 
3069.414 25006518 24996936 24973494 24936608 24887272 24827416 24759324 
3072.789 24685876 24608972 24530570 24451940 24374058 24297874 24224050 
3076.164 24153250 24085754 24021106 23958846 23897578 23836108 23773842 
3079.540 23710430 23646116 23582022 23518814 23457536 23398680 23342560 
3082.915 23289488 23239326 23191858 23146948 23103964 23062418 23022200 
3086.290 22983248 22946254 22912058 22881670 22855824 22834732 22817934 
3089.665 22804522 22793872 22784934 22777670 22772118 22768452 22766916 
3093.041 22767614 22770234 22774562 22780674 22788740 22798830 22811648 
3096.416 22827222 22845242 22865394 22886908 22909436 22932594 22956278 
3099.791 22980522 23005222 23030482 23056128 23082088 23108646 23136080 
3103.166 23164912 23195494 23227930 23262118 23297530 23333890 23370672 
3106.542 23407492 23444178 23480374 23515770 23550014 23582616 23613578 
3109.917 23642932 23671344 23699686 23729222 23761068 23796102 23834568 
3113.292 23876538 23921036 23967146 24013366 24058542 24101586 24142110 
3116.667 24180364 24216726 24251902 24285854 24318058 24347318 24372062 
3120.042 24390882 24403324 24410230 24413768 24416678 24421866 24431434 
3123.418 24446226 24465680 24488258 24512620 24537442 24562512 24588494 
3126.793 24616160 24646352 24679354 24714286 24749818 24784336 24816084 
3130.168 24844326 24868780 24890534 24911134 24932750 24957140 24985706 
3133.543 25018908 25056150 25096484 25138260 25180288 25221932 25263230 
3136.919 25304846 25347524 25391784 25437558 25484288 25530880 25576390 
3140.294 25620288 25662606 25704156 25745642 25787974 25831856 25877714 
3143.669 25925686 25976056 26029068 26084622 26142438 26201734 26261500 
3147.044 26320570 26378554 26435208 26491306 26547906 26605922 26665460 
3150.420 26725960 26786006 26844158 26899464 26952064 27003010 27054140 
3153.795 27107072 27162976 27221570 27281686 27341670 27399898 27455626 
3157.170 27509740 27563646 27619504 27679146 27743988 27813678 27887338 
3160.545 27962814 28038620 28113662 28187514 28260918 28335148 28411232 
3163.921 28489876 28570728 28653010 28735132 28815640 28894074 28970184 
3167.296 29044466 29117592 29190054 29261964 29332856 29402130 29469394 
3170.671 29535176 29600084 29665498 29732802 29802494 29874824 29948976 
3174.046 30023674 30097566 30169486 30238536 30305042 30368606 30430476 
3177.422 30491322 30552356 30614714 30679284 30746568 30816564 30888352 
3180.797 30961076 31033492 31105102 31175834 31246648 31318720 31393188 
3184.172 31470988 31551860 31635318 31719964 31804666 31888668 31971510 
3187.547 32053228 32134284 32215208 32296258 32378216 32461402 32546564 
3190.923 32634072 32724310 32817386 32913384 33011936 33112980 33216086 
3194.298 33320788 33426270 33531636 33635736 33737676 33837132 33934572 
3197.673 34031028 34128332 34227660 34329852 34434860 34541620 34649332 
3201.048 34757148 34865096 34974004 35084956 35198484 35314700 35432604 
3204.424 35550500 35666668 35779700 35888840 35993720 36094960 36192904 
3207.799 36287920 36380720 36472464 36564760 36659388 36758324 36862588 
3211.174 36972256 37085916 37202064 37318712 37434524 37549028 37662444 
3214.549 37775200 37887804 37999828 38111008 38220700 38329004 38436688 
3217.925 38544796 38654452 38766304 38880004 38994496 39108580 39221492 
3221.300 39332988 39444512 39557116 39672220 39790296 39910728 40032132 
3224.675 40152960 40271712 40387840 40501672 40614296 40726332 40838724 
3228.050 40951328 41063560 41174800 41284060 41390696 41494688 41596380 
3231.426 41696120 41794936 41893628 41992672 42092104 42191632 42290600 
3234.801 42388456 42484540 42579008 42672284 42765252 42858828 42953516 
3238.176 43049988 43148236 43248516 43351236 43456400 43564300 43674608 
3241.551 43786300 43897800 44007420 44113512 44216332 44316784 44417192 
3244.927 44520596 44629304 44744476 44865852 44991664 45119392 45246864 
3248.302 45372384 45495776 45617540 45739268 45862244 45987908 46116884 
3251.677 46249812 46386204 46525740 46667344 46809776 46952068 47093556 
3255.052 47234576 47375564 47518264 47663892 47813568 47967436 48124916 
3258.427 48284860 48445600 48606104 48765596 48923956 49081816 49239292 
3261.803 49396788 49554672 49713028 49872404 50033176 50196236 50362492 
3265.178 50532640 50706652 50884088 51064280 51246072 51428428 51610412 
3268.553 51791732 51972448 52153016 52334148 52516548 52700488 52885892 
3271.928 53072116 53258316 53443728 53628284 53812544 53998008 54186288 
3275.304 54378712 54576136 54778388 54984800 55194204 55406116 55620696 
3278.679 55838508 56060956 56288904 56522524 56761296 57004844 57251888 
3282.054 57502292 57755868 58012964 58273732 58538304 58806520 59078168 
3285.429 59353596 59633112 59917796 60208412 60505580 60808824 61117692 
3288.805 61431480 61749956 62073376 62402808 62739232 63083268 63434592 
3292.180 63792424 64155392 64522848 64894700 65271944 65655804 66047020 
3295.555 66445896 66851468 67262296 67677232 68095856 68518768 68947680 
3298.930 69383896 69828496 70281720 70743112 71211896 71687328 72169808 
3302.306 72659568 73157488 73664256 74180152 74705904 75242072 75789440 
3305.681 76348984 76921232 77506040 78102160 78707656 79320816 79940928 
3309.056 80568360 81204720 81852328 82512776 83186712 83873104 84570240 
3312.431 85276840 85991712 86715648 87449704 88195648 88954496 89727056 
3315.807 90512832 91311152 92121312 92942208 93773096 94612704 95458936 
3319.182 96310536 97165880 98024832 98888304 99757216 100632712 101514416 
3322.557 102400504 103288328 104175360 105059944 105942144 106822840 
3325.450 107703072 108582752 109460168 110331368 111192088 112038848 
3328.343 112869056 113682120 114477432 115254120 116010080 116741688 
3331.236 117445048 118117056 118756184 119362136 119935488 120475448 
3334.129 120980352 121446968 121872144 122253744 122591872 122888608 
3337.022 123146840 123368600 123553648 123700096 123803720 123860616 
3339.916 123868104 123825048 123732304 123590464 123400024 123160784 
3342.809 122870984 122529256 122134600 121686536 121185408 120630968 
3345.702 120022976 119360880 118644528 117874800 117054632 116187736 
3348.595 115278960 114332856 113353232 112342288 111302104 110234032 
3351.488 109139904 108022232 106883480 105726408 104553392 103366936 
3354.381 102169624 100965440 99758552 98554000 97356896 96171168 94999488 
3357.756 93844032 92705960 91586528 90487536 89410512 88356912 87327296 
3361.131 86321328 85337656 84374952 83431848 82508128 81604048 80720600 
3364.507 79858288 79017528 78198584 77401488 76626496 75874576 75146496 
3367.882 74442832 73763008 73105456 72467960 71847784 71242744 70651320 
3371.257 70072744 69506560 68952224 68408248 67872816 67343888 66819584 
3374.632 66298924 65781964 65269440 64762288 64261140 63766136 63277260 
3378.008 62794208 62316360 61843816 61375756 60911740 60450204 59989804 
3381.383 59529128 59066968 58603332 58138556 57673448 57208572 56744268 
3384.758 56280004 55815564 55350708 54885980 54422576 53962328 53506540 
3388.133 53056692 52612884 52174948 51741560 51312220 50885688 50461736 
3391.509 50040684 49622832 49209232 48800664 48398184 48002000 47612200 
3394.884 47228000 46848716 46472968 46100120 45729992 45363300 45001408 
3398.259 44645612 44296460 43954076 43617232 43283732 42951284 42618112 
3401.634 42283400 41947272 41611000 41275680 40942876 40613676 40288364 
3405.010 39967248 39650076 39336836 39027156 38720916 38417756 38117336 
3408.385 37819300 37523412 37229428 36937656 36647708 36360076 36074544 
3411.760 35791216 35510404 35232548 34957664 34686228 34418148 34153420 
3415.135 33892048 33634160 33380218 33130396 32885004 32643430 32404810 
3418.510 32167178 31928964 31688992 31447474 31206272 30967978 30736004 
3421.886 30512330 30297828 30091140 29889910 29691148 29492372 29292482 
3425.261 29091550 28890710 28691308 28494864 28301834 28112530 27926310 
3428.636 27742716 27561000 27380700 27201038 27021312 26840776 26658908 
3432.011 26475846 26292018 26109006 25927726 25749686 25575546 25405518 
3435.387 25239596 25077352 24918572 24762868 24610232 24459896 24311644 
3438.762 24164284 24017254 23869572 23721382 23572472 23423544 23274876 
3442.137 23126854 22979476 22832496 22685252 22537464 22388194 22237160 
3445.512 22084330 21929880 21775140 21621532 21471042 21325478 21185632 
3448.888 21051432 20921548 20794486 20668154 20541340 20413276 20284106 
3452.263 20154348 20024454 19894706 19765134 19635738 19507214 19380494 
3455.638 19257448 19139008 19026312 18918180 18813084 18708532 18601724 
3459.013 18490518 18374428 18253706 18129874 18004384 17879622 17757000 
3462.389 17638142 17524074 17415040 17311340 17212218 17116288 17022412 
3465.764 16928902 16835206 16741151 16647184 16553514 16460344 16366439 
3469.139 16270628 16171742 16069371 15964584 15859479 15757149 15659377 
3472.514 15567155 15479486 15393653 15306430 15215038 15117971 15015814 
3475.890 14910562 14804477 14700372 14600062 14504228 14412388 14323821 
3479.265 14236779 14149891 14061377 13970624 13877495 13783393 13689928 
3482.640 13599936 13515363 13437778 13366767 13300859 13237523 13174025 
3486.015 13108863 13041115 12971160 12900226 12829167 12758426 12687664 
3489.391 12616366 12543989 12470568 12396817 12324170 12253887 12187261 
3492.766 12124904 12067122 12013230 11962785 11914220 11866647 11818976 
3496.141 11770426 11721099 11671470 11623346 11578629 11538850 11504485 
3499.516 11474818 11447602 11420013 11388821 11352631 11310901 11265128 
3502.892 11217456 11170708 11127261 11088645 11055506 11027806 11004730 
3506.267 10985121 10967654 10950868 10933708 10915530 10896741 10879074 
3509.642 10864295 10854715 10851114 10853560 10859912 10868202 10875813 
3513.017 10881588 10885325 10887737 10889912 10892188 10894192 10894736 
3516.393 10892460 10886922 10878497 10868847 10860762 10856073 10855598 
3519.768 10858689 10863310 10866266 10864601 10855394 10836913 10808413 
3523.143 10770097 10723125 10668823 10609468 10546693 10482093 10416384 
3526.518 10349462 10280380 10208493 10132718 10052886 9969713 9884318 
3529.894 9798331 9713207 9630065 9549751 9473209 9400575 9331678 9265567 
3533.751 9200244 9133171 9061677 8983971 8899142 8808751 8715775 8623528 
3537.608 8534716 8451123 8372680 8298272 8226442 8156514 8088253 8022432 
3541.466 7959658 7899862 7842201 7784884 7725450 7662180 7594131 7521372 
3545.323 7445053 7366826 7288580 7212369 7139809 7072515 7011427 6957048 
3549.181 6908130 6863088 6818960 6772715 6721866 6664966 6602254 6534976 
3553.038 6465791 6396853 6330447 6267985 6210640 6159621 6115329 6077493 
3556.896 6044935 6015100 5984663 5950164 5909017 5860182 5804805 5745877 
3560.753 5686956 5631568 5582060 5539203 5502021 5467996 5433235 5393747 
3564.610 5344703 5282147 5203672 5109252 5001780 4888371 4777403 4676578 
3568.468 4591649 4524078 4472085 4431480 4397338 4364805 4330468 4291515 
3572.325 4246242 4193814 4134768 4070246 4003527 3938823 3880314 3831708 
3576.183 3793736 3764858 3740293 3714526 3682412 3641279 3591463 3536041 
3580.040 3479723 3426453 3378799 3337761 3302135 3270619 3241642 3214637 
3583.897 3188968 3163702 3136968 3105364 3065386 3014102 2951047 2879062 
3587.755 2803821 2733194 2673781 2629976 2602742 2589975 2587176 2589175 
3591.612 2590909 2587742 2576476 2555111 2523249 2482126 2433642 2380899 
3595.470 2327530 2276566 2231036 2192937 2163333 2141855 2126904 2115917 
3599.327 2105628 2093476 2077861 2058884 2038710 2020834 2008551 2003957 
3603.185 2007053 2015941 2026626 2034649 2035614 2025961 2003757 1967808 
3607.042 1918850 1858582 1790272 1718479 1648395 1584939 1531668 1489707 
3610.899 1457557 1432591 1410684 1388944 1366075 1342277 1319278 1299005 
3614.757 1281824 1267468 1253246 1236930 1215598 1188220 1154099 1114434 
3618.614 1071052 1026611 983836 945746 915862 896305 889266 894744 911379 
3622.954 936415 966866 999179 1030431 1058297 1080485 1093207 1091712 
3626.811 1069457 1020467 942060 839300 725943 620944 543075 501342 493978 
3631.151 511095 539359 567161 585939 592575 588030 576948 564042 553691 
3635.490 547487 545463 545795 547221 549245 551501 554056 556743 558302 
3639.830 557241 552364 543406 531430 518459 507611 501607 502536 511095 
3644.170 526719 547487 570312 590983 604918 606876 593239 561587 512687 
3648.509 450094 380213 311273 250333 203888 175413 165668 172364 190860 
3652.849 215159 238000 252289 252190 234354 199380 153106 105047 64848 39928 
3657.671 32373 39464 55867 75817 94972 111311 123972 133550 140080 143129 
3662.492 141737 135937 126424 116084 108726 108494 117442 135174 158575 
3666.832 181612 196794 197026 176640 134081 72602 2087 -63877 -111812 
3671.172 -132350 -123870 -92036 -48107 -6461 19416 16964 -18985 -84947 
3675.511 -166367 -243731 -301150 -331147 -336908 -326413 -308765 -290024 
3679.369 -273435 -258434 -243665 -227538 -210151 -192532 -176336 -161564 
3683.226 -147023 -130097 -108136 -80607 -49764 -20973 -1590 1093 -18157 
3687.566 -60399 -121286 -192499 -264362 -328565 -380212 -417685 -441022 
3691.423 -450488 -447178 -432482 -409409 -382165 -356111 -335650 -323863 
3695.281 -320453 -323234 -327141 -327141 -319526 -302872 -278634 -250619 
3699.138 -223530 -202169 -190015 -189021 -198957 -217271 -240221 -263401 
3702.995 -283104 -296547 -302805 -302044 -295554 -285488 -273336 -260653 
3706.853 -248434 -237373 -227935 -221543 -219457 -223862 -236545 -258534 
3710.710 -289163 -325850 -363692 -397525 -422617 -435957 -437215 -428344 
3714.568 -412951 -394414 -376438 -360812 -348165 -337736 -327737 -316480 
3718.425 -302971 -287872 -272971 -261282 -255719 -258169 -268402 -283932 
3722.282 -301050 -315685 -324857 -327969 -326313 -323036 -321811 -325122 
3726.140 -333597 -345384 -356409 -362765 -361739 -352535 -337372 -320619 
3729.997 -307474 -302309 -307507 -321844 -341874 -361937 -377861 -388488 
3733.855 -396301 -405536 -420962 -443305 -469619 -493052 -505927 -503147 
3737.712 -484513 -453434 -415004 -374187 -334425 -296746 -261613 -230154 
3741.570 -206210 -195612 -206939 -246414 -313897 -398055 -477960 -529722 
3745.427 -539451 -508409 -450753 -384813 -327704 -291945 -283932 -302309 
3749.284 -340252 -387561 -433938 -472731 -501690 -520422 -528265 -523599 
3753.142 -504702 -470910 -425365 -372896 -320288 -273534 -236910 -211741 
3756.999 -197202 -190280 -187829 -187994 -189187 -190843 -191671 -190015 
3760.857 -183590 -171434 -154675 -136292 -121088 -113403 -115688 -127613 
3764.714 -145235 -162525 -174316 -177330 -172660 -164247 -157358 -156596 
3768.572 -164181 -179251 -198493 -216708 -229690 -235088 -232273 -223696 
3772.429 -211277 -197665 -184053 -170805 -157060 -141359 -122413 -100119 
3776.286 -75737 -52911 -36280 -30482 -38665 -60664 -92599 -127182 -156364 
3780.626 -174448 -179185 -172792 -160107 -147255 -139074 -137948 -143811 
3784.483 -154112 -165638 -175939 -183225 -187431 -188524 -186504 -180907 
3788.341 -171335 -157291 -139538 -119332 -98131 -77228 -57450 -38864 -21271 
3792.680 -5433 7388 14811 14214 4141 -15009 -40156 -65799 -85609 -95316 
3797.502 -93129 -82197 -68184 -59372 -63778 -87133 -130230 -187531 -246877 
3801.842 -292673 -312440 -300885 -261779 -205779 -146328 -97635 -70967 
3805.699 -71994 -99788 -145102 -193492 -230021 -244857 -236214 -208164 
3809.557 -167692 -121121 -72888 -24286 24685 74392 123143 166928 199612 
3813.896 214695 207037 175844 126855 71741 24884 -2948 -6924 8382 34261 
3818.718 57524 66770 52454 11663 -51255 -123671 -188293 -230485 -242903 
3823.058 -226511 -189121 -141161 -92599 -50162 -17030 7786 28628 50532 77573 
3827.879 110880 147869 183999 213568 231701 235746 226032 205413 179126 
3832.219 152609 131131 117641 112637 114360 119000 121386 116183 99811 71343 
3837.041 33168 -8912 -47478 -76466 -92467 -96376 -92467 -85245 -79315 -77029 
3841.863 -78487 -81535 -84317 -84086 -79713 -70404 -56788 -39129 -18157 5699 
3846.684 32008 60506 90498 122381 155824 190661 225800 258124 282161 289820 
3851.506 271784 219701 131893 16501 -106214 -211111 -278700 -301878 -286680 
3855.846 -245751 -192499 -136822 -85113 -39593 -364 33897 63986 90133 112007 
3860.667 128479 139284 144455 144720 140676 133451 123939 113664 105511 
3865.007 103291 110085 127220 152973 181546 204717 213667 200805 163746 
3869.347 106041 39099 -22895 -68548 -93063 -99390 -95051 -88624 -86040 
3873.686 -88558 -92367 -90579 -76599 -45987 828 59347 121850 180651 228386 
3878.508 259782 272414 267573 249471 224938 201203 184396 177237 179225 
3882.848 186286 192949 192385 179756 154034 119033 83174 56928 48179 59777 
3887.669 88278 125761 162022 188374 197987 189302 165768 135539 108030 92221 
3892.491 92718 109554 139583 177966 219900 261672 300430 334119 361477 
3896.831 380877 391091 391655 382800 366020 344067 319960 296120 274469 
3901.170 254643 235547 215192 191921 165403 136865 109090 85427 69785 64317 
3905.992 69719 84930 107765 134942 163414 190960 216187 238531 258422 276492 
3910.814 293998 311041 328217 345493 362571 379285 395004 409132 420508 
3915.154 428004 430923 429098 423394 415301 406910 399614 394242 390560 
3919.493 388239 386713 386282 387078 389731 394407 400211 405517 408668 
3923.833 408005 403428 395900 388239 382866 381440 384525 390859 399150 
3928.172 407607 415600 422929 430193 437390 443957 448734 449729 446080 
3932.512 437788 426246 413875 403063 394673 388736 383861 379019 373382 
3936.852 367777 363765 363433 367811 376333 386813 396331 401704 401173 
3941.191 394971 384790 373680 365025 360780 361841 367645 376731 387443 
3945.531 398254 407673 415169 419945 421868 420973 417988 413610 409166 
3949.870 405418 403262 402864 404357 407275 411288 415500 419281 421536 
3954.210 421404 418319 412549 405053 397558 392351 391224 395236 404025 
3958.550 416097 429331 441437 450558 456097 457689 456163 452448 447573 
3962.889 442299 437755 434538 433377 434604 438352 444223 451752 460144 
3967.229 468934 478155 488007 498423 509436 520416 529904 536605 539558 
3971.568 538198 533222 525824 517795 510862 506649 505687 508407 514478 
3975.908 522871 532989 543473 553160 561587 568189 572900 576052 578375 
3980.248 580299 582422 584977 587963 591547 596059 601434 608203 615868 
3984.587 624296 632458 639294 643807 645333 643741 639195 632326 623665 
3988.927 613976 603856 593969 584911 577379 571640 567890 565833 564838 
3993.266 564175 563113 561753 559563 557075 554122 550937 547221 543274 
3997.606 539259 535743 533620 533122 534615 537202 540288 
##END=
