
##TITLE=1731a_3_d
##JCAMP-DX=5.01  $$ Nicolet v. 1
##DATATYPE=INFRARED SPECTRUM
##ORIGIN=UniL
##OWNER=Nicolet
##LONGDATE=2011/09/22
##TIME=10:39:57
##SPECTROMETER/DATA SYSTEM=Nicolet iS5
##DATA PROCESSING=
Ratio against background
%Transmittance->Absorbance
Truncated
ElementMultiply or ElementDivide
##COMMENTS=
Number of sample scans: 32
Collection length: 51.19 sec
Sample gain: 2.0
Background collected on: Jeu Sep 22 10:31:57 2011 (GMT+02:00);
Number of background scans: 32
Background gain: 2.0
Sample spacing:  1.000
Number of scan points: 12415
Resolution points: 8192
Number of FFT points: 65536
Apodization: N-B fort;
Phase correction: Mertz;
Laser frequency: 15798.0 cm-1
Number of rejected sample scans: 0
Number of rejected background scans: 0
Bench serial number: ASB1000141;
##RESOLUTION=4.000
##XUNITS=1/CM
##YUNITS=ABSORBANCE
##FIRSTX=649.893372
##LASTX=4000.122314
##FIRSTY=0.106193
##MAXX=4000.122314
##MINX=649.893372
##MAXY=0.275513
##MINY=-0.000416
##XFACTOR=1.000000
##YFACTOR=1.000000E-009
##NPOINTS=6950
##DELTAX=0.482117
##ZPD=6100
##XYDATA=(X++(Y..Y))
649.893 106193496 105618768 105114096 104680336 104295920 103931624 
652.786 103561240 103176712 102787496 102416024 102083312 101801656 
655.679 101570088 101377512 101211040 101061856 100927616 100810664 
658.571 100710000 100620840 100531040 100426856 100300608 100151824 99988944 
661.946 99825344 99674216 99545104 99441032 99359760 99293832 99228368 
665.321 99137720 98983096 98712928 98272800 97638288 96846400 96005160 
668.696 95240576 94636272 94200664 93886152 93619216 93328944 92968024 
672.071 92515056 91980576 91393952 90792928 90204160 89636096 89081840 
675.446 88528728 87969872 87409104 86859776 86336200 85846656 85388552 
678.820 84951120 84521888 84094208 83670336 83259344 82870520 82507288 
682.195 82164736 81832288 81498624 81158744 80816768 80483448 80170496 
685.570 79884056 79622568 79377896 79140520 78905344 78673896 78453624 
688.945 78252456 78073240 77911376 77755920 77595760 77424576 77245344 
692.320 77069152 76910512 76781632 76686936 76623096 76581752 76555664 
695.694 76541400 76540960 76558672 76596576 76650288 76709392 76759288 
699.069 76787320 76787600 76762608 76720896 76672392 76624472 76578624 
702.444 76531600 76479120 76419024 76353568 76287832 76227296 76173704 
705.819 76124232 76073256 76015592 75949912 75880776 75817480 75770928 
709.194 75749824 75760912 75809240 75901528 76049336 76267416 76569064 
712.569 76957584 77419552 77918160 78395992 78788928 79037440 79100488 
715.943 78966776 78652216 78195768 77646520 77061512 76502712 76032208 
719.318 75723480 75652240 75881720 76447904 77331328 78444928 79622088 
722.693 80648856 81303952 81391912 80808704 79560160 77768240 75631104 
726.068 73383760 71247384 69369904 67824744 66610680 65677464 64952144 
729.443 64365344 63869380 63434020 63044800 62694208 62375456 62081596 
732.817 61807828 61553556 61322328 61119864 60950400 60812940 60701808 
736.192 60607816 60523176 60443540 60370048 60306772 60257932 60225612 
739.567 60208256 60201788 60201676 60205324 60211760 60221200 60233036 
742.942 60245296 60254392 60257324 60252904 60242896 60230600 60219792 
746.317 60211380 60202932 60189152 60164528 60125788 60073392 60011336 
749.692 59945640 59881476 59822108 59768568 59721232 59680936 59650488 
753.066 59633572 59632620 59647752 59676336 59714352 59757848 59806176 
756.441 59861888 59930044 60016012 60122552 60249328 60393352 60550792 
759.816 60719152 60899044 61093472 61306912 61543060 61804084 62091224 
763.191 62406328 62754660 63149096 63611784 64179936 64905464 65847820 
766.566 67070848 68619184 70496768 72641240 74911736 77100808 78941896 
769.940 80183448 80644152 80260808 79122512 77453208 75569432 73771288 
773.315 72289312 71225560 70539288 70077104 69628368 69010048 68102296 
776.690 66887372 65435328 63875788 62348300 60958904 59770812 58793508 
780.065 58000164 57343572 56778440 56271368 55802412 55365652 54962916 
783.440 54600520 54285888 54027348 53833808 53713128 53672708 53717592 
786.815 53850988 54074480 54389340 54797412 55302576 55910180 56626588 
790.189 57459440 58417824 59511952 60755924 62167416 63766220 65574756 
793.564 67612104 69891112 72414912 75174656 78149032 81303632 84599064 
796.939 87991984 91444264 94935536 98472808 102101464 105901000 109984128 
800.314 114468816 119437336 124898536 130738424 136707184 142384624 
803.206 147242144 150733936 152356544 151810320 149067136 144403408 
806.099 138330224 131486448 124519680 117900880 111888904 106505240 
808.992 101589640 96883176 92134416 87196576 82051128 76810016 71653488 
812.367 66787744 62379588 58522264 55243196 52510456 50261444 48420040 
815.742 46917516 45698184 44714800 43930316 43313456 42836448 42477928 
819.116 42222376 42058664 41979532 41979096 42051948 42194188 42403980 
822.491 42682556 43033268 43460428 43967124 44553632 45218148 45957116 
825.866 46767264 47644960 48585168 49579928 50615916 51677476 52750208 
829.241 53828480 54922564 56064232 57311700 58740132 60440644 62508404 
832.616 65018600 68011328 71460872 75260040 79191336 82929712 86097624 
835.990 88274848 89104336 88379088 86077992 82393152 77671680 72371816 
839.365 66942028 61752060 57078068 53060664 49735688 47062500 44960096 
842.740 43332640 42085608 41141832 40434676 39907964 39519084 39233500 
846.115 39027332 38886564 38802608 38769388 38780364 38827428 38902836 
849.490 39002068 39125180 39277056 39463852 39690624 39958168 40262620 
852.865 40598212 40960684 41349292 41768268 42224276 42724160 43273664 
856.239 43876428 44536968 45263892 46070608 46978168 48012992 49203852 
859.614 50584232 52190680 54061872 56239912 58759556 61635076 64840644 
862.989 68293376 71844928 75269296 78304872 80679416 82146160 82548392 
866.364 81835568 80082072 77464496 74242968 70718120 67162112 63813456 
869.739 60841908 58337776 56334060 54814404 53735400 53037376 52657620 
873.113 52537376 52616324 52837988 53149328 53499528 53849412 54174876 
876.488 54470464 54750124 55042792 55386844 55815636 56350692 56989956 
879.863 57706064 58442688 59122056 59663412 59988888 60045616 59818040 
883.238 59332248 58652136 57861780 57057096 56320100 55707516 55251548 
886.613 54958400 54818760 54816244 54935500 55164632 55494324 55915948 
889.987 56418832 56989164 57613360 58278736 58976480 59701160 60449520 
893.362 61217444 61999872 62790036 63581444 64369380 65150544 65921052 
896.737 66673340 67392880 68058376 68645384 69129192 69493536 69732624 
900.112 69852080 69866080 69793432 69654744 69468888 69255008 69033512 
903.487 68825136 68653176 68541616 68511160 68581384 68769112 69088008 
906.862 69551592 70171264 70956864 71915224 73049784 74360640 75846400 
910.236 77506472 79342648 81358656 83558616 85944296 88513496 91261480 
913.611 94184032 97283384 100572648 104078800 107840536 111899280 116293176 
916.986 121044136 126149240 131566912 137206976 142928176 148511696 
919.879 153675648 158099632 161431392 163374176 163747040 162539616 
922.771 159948032 156367296 152372736 148589904 145653088 144120224 
925.664 144350976 146491104 150412624 155742624 161852864 167943664 
928.557 173215472 176908288 178483504 177706816 174629392 169542432 
931.450 162855024 155029872 146480240 137544352 128512576 119616360 
934.342 111055696 103019256 95660544 89105424 83446336 78728784 74965872 
937.717 72143440 70229376 69177176 68920880 69373168 70402072 71827528 
941.092 73439320 74987296 76226736 76958064 77036504 76408512 75109232 
944.467 73256352 71018112 68581776 66135220 63825280 61753740 59976832 
947.841 58506228 57325232 56399248 55691316 55165460 54790796 54543076 
951.216 54400340 54342324 54352012 54414352 54519184 54661808 54840868 
954.591 55056372 55307804 55592036 55904568 56240892 56598276 56976772 
957.966 57378396 57805000 58256496 58729816 59219640 59721120 60231136 
961.341 60750284 61280928 61825672 62384640 62954932 63530624 64106188 
964.716 64678600 65248804 65821068 66400528 66991240 67594688 68210016 
968.090 68835888 69472968 70124840 70797048 71494856 72221648 72977416 
971.465 73760216 74568152 75402152 76266784 77169392 78117424 79115832 
974.840 80165312 81263360 82406456 83591880 84819336 86089992 87403952 
978.215 88758648 90147760 91561664 92990600 94426936 95864984 97300424 
981.590 98727944 100138512 101520688 102861680 104151096 105383040 106556264 
984.964 107671272 108725520 109710704 110611384 111409656 112088304 
987.857 112637008 113055400 113352968 113547488 113659784 113716136 
990.750 113743904 113771672 113831008 113950144 114151864 114450656 
993.643 114849568 115342568 115917384 116561896 117265960 118023088 
996.535 118829360 119679160 120563608 121471680 122391496 123314320 
999.428 124237608 125162960 126093728 127029792 127964672 128885520 
1002.321 129777088 130625520 131423800 132173512 132883832 133568288 
1005.213 134242592 134925072 135635488 136398272 137242688 138198112 
1008.106 139291504 140542336 141958288 143536384 145264992 147129104 
1010.999 149110480 151188592 153339424 155529872 157720848 159872944 
1013.891 161951040 163936256 165828896 167648368 169423728 171183696 
1016.784 172949136 174727296 176514288 178300880 180080608 181854208 
1019.677 183633856 185441056 187309520 189284128 191417376 193773024 
1022.570 196417088 199406480 202784816 206570528 210756368 215310528 
1025.462 220187280 225335904 230699312 236217712 241819456 247406336 
1028.355 252860032 258040048 262790048 266965472 270432672 273073728 
1031.249 274794240 275512800 275168736 273734368 271224960 267709584 
1034.142 263301216 258155200 252444416 246335104 239995648 233581280 
1037.035 227234320 221100288 215312272 209986768 205228496 201112576 
1039.928 197690112 194989408 193010176 191719808 191037104 190829744 
1042.821 190892736 190950224 190703584 189838080 188090640 185311040 
1045.714 181472464 176687744 171170032 165209968 159111904 153143120 
1048.607 147533888 142438752 137941152 134068352 130797920 128075288 
1051.500 125825824 123972736 122443856 121175424 120119696 119238248 
1054.393 118497552 117867064 117312928 116797960 116287112 115746544 
1057.286 115148624 114474072 113708640 112844656 111880552 110822432 
1060.179 109686736 108500312 107302352 106137776 105051464 104086672 
1063.072 103276520 102644528 102205256 101963456 101914056 102038760 
1065.965 102305216 102662744 103042480 103371600 103574272 103588528 
1068.858 103378496 102934112 102273520 101433256 100462808 99413200 98327352 
1072.234 97240440 96173904 95136912 94128592 93141592 92167192 91199056 
1075.609 90238096 89293696 88383840 87528816 86749632 86062392 85475640 
1078.984 84991128 84605384 84311856 84101808 83964144 83884672 83843880 
1082.359 83818760 83787696 83733928 83652816 83554688 83465896 83423096 
1085.735 83468144 83644536 83988384 84528256 85284224 86265312 87468792 
1089.110 88878136 90463864 92182224 93979360 95804080 97608872 99359888 
1092.485 101037984 102633272 104138472 105542328 106824152 107956376 
1095.378 108912440 109674272 110244704 110652472 110956688 111235360 
1098.271 111575072 112055536 112722856 113575672 114549680 115526608 
1101.164 116337440 116788688 116712432 115982424 114550288 112451608 
1104.057 109801488 106769664 103539784 100301528 97213256 94387736 91900360 
1107.433 89782624 88033048 86626608 85523648 84678064 84038848 83559744 
1110.808 83197376 82911472 82667624 82433376 82177264 81872656 81496384 
1114.183 81032224 80474032 79824928 79096752 78306024 77472896 76617168 
1117.558 75756928 74909448 74089480 73309424 72578144 71899824 71273352 
1120.934 70693048 70150856 69638824 69150448 68681584 68228120 67782568 
1124.309 67332552 66858924 66338292 65749428 65077564 64320812 63491500 
1127.684 62616124 61730516 60870684 60071032 59356068 58737820 58217164 
1131.059 57784144 57422040 57108300 56820244 56537244 56243648 55932004 
1134.435 55603860 55269872 54946668 54653916 54411684 54234640 54132540 
1137.810 54107920 54157048 54269816 54430988 54622612 54823536 55012628 
1141.185 55172004 55287184 55349316 55355000 55304980 55202292 55051404 
1144.560 54858048 54629152 54373488 54102588 53828560 53563844 53319184 
1147.936 53101808 52916164 52764012 52646136 52563408 52517076 52508436 
1151.311 52537864 52604020 52703704 52833084 52988480 53167488 53368900 
1154.686 53592144 53835760 54097036 54371912 54655608 54943660 55232732 
1158.061 55520604 55804256 56079880 56341412 56580572 56789616 56960944 
1161.437 57089256 57171416 57205092 57187744 57115936 56984784 56789352 
1164.812 56526152 56193108 55790772 55321016 54787600 54194848 53548740 
1168.187 52858344 52135008 51392848 50648716 49918192 49215504 48552188 
1171.562 47935912 47372940 46868864 46429048 46060220 45769012 45560828 
1174.938 45439520 45407552 45466524 45619380 45871228 46229868 46705308 
1178.313 47308056 48047856 48933780 49974396 51178484 52557424 54123832 
1181.688 55891788 57875708 60087052 62535152 65223852 68150272 71299080 
1185.063 74635312 78103264 81612920 85044160 88260800 91106600 93433544 
1188.438 95120240 96075136 96255944 95669504 94372376 92459344 90051528 
1191.814 87288848 84302408 81211744 78119880 75102256 72215984 69501392 
1195.189 66982584 64673760 62579692 60697276 59016712 57522644 56196804 
1198.564 55018120 53965516 53020864 52166580 51388072 50672692 50008524 
1201.939 49385612 48796292 48236316 47705200 47205948 46743760 46322940 
1205.315 45945840 45611028 45314012 45048560 44808356 44589172 44388600 
1208.690 44206092 44041960 43896256 43769952 43664900 43585396 43538768 
1212.065 43534008 43581956 43691388 43869280 44119676 44443984 44842480 
1215.440 45314564 45858744 46471824 47147328 47876088 48646460 49446800 
1218.816 50267468 51102744 51950940 52813552 53694308 54598116 55530544 
1222.191 56499356 57514776 58588316 59732864 60958976 62272648 63673512 
1225.566 65154128 66700616 68292056 69904112 71507392 73068640 74555728 
1228.941 75939144 77197256 78322016 79319744 80212104 81030464 81815488 
1232.317 82612632 83467344 84430288 85554352 86891632 88497488 90422232 
1235.692 92706904 95383968 98472808 101981392 105906752 110236592 114947256 
1239.067 119998072 125334232 130881352 136548576 142244736 147877488 
1241.960 153362352 158629008 163610928 168241744 172454720 176174128 
1244.853 179320400 181815840 183580976 184541520 184634928 183810464 
1247.746 182043888 179343536 175753744 171347920 166216368 160456368 
1250.639 154153872 147386432 140229888 132761288 125074072 117282024 
1253.532 109505744 101878440 94531304 87573568 81100152 75176864 69836080 
1256.908 65082604 60893748 57227772 54027876 51231868 48779456 46610608 
1260.283 44674512 42930000 41343204 39891256 38558988 37335788 36214728 
1263.658 35189572 34253548 33399936 32622356 31915482 31274990 30696780 
1267.033 30176020 29706794 29282238 28896094 28544614 28227468 27947762 
1270.409 27710682 27522272 27386770 27306772 27283802 27319934 27419166 
1273.784 27588714 27836748 28171462 28597340 29113092 29708392 30361996 
1277.159 31043280 31709522 32309358 32792374 33110120 33228960 33137296 
1280.534 32846764 32390852 31815216 31172274 30507566 29853564 29230846 
1283.910 28647312 28104436 27602026 27141110 26724830 26356900 26039942 
1287.285 25774824 25560926 25397684 25285602 25225760 25218982 25263896 
1290.660 25355602 25487134 25650164 25838080 26047364 26276776 26525752 
1294.035 26792138 27071172 27356242 27641536 27925534 28212474 28512768 
1297.411 28841806 29215252 29648044 30153076 30740166 31416840 32186732 
1300.786 33046830 33982044 34961220 35939876 36858080 37651528 38264048 
1304.161 38651372 38791596 38686792 38361688 37858124 37227440 36528648 
1307.536 35816764 35140096 34537708 34033144 33635916 33341900 33138156 
1310.912 33007324 32932148 32900192 32902696 32934148 32989054 33060882 
1314.287 33141338 33222810 33299110 33367910 33429634 33486250 33538722 
1317.662 33586224 33626032 33656000 33675584 33687796 33697572 33709924 
1321.037 33727612 33749528 33771628 33788564 33796804 33796124 33790180 
1324.413 33784628 33786920 33804968 33847164 33924468 34050060 34237880 
1327.788 34500396 34843844 35265140 35751528 36283056 36838824 37399852 
1331.163 37954804 38498596 39030488 39550040 40054628 40538628 40995204 
1334.538 41418100 41804132 42153328 42467988 42751396 43006084 43235560 
1337.914 43444756 43641044 43836364 44043944 44275508 44539940 44840576 
1341.289 45176928 45547288 45951628 46392252 46873776 47400840 47976580 
1344.664 48602104 49278040 50004956 50784184 51614856 52488244 53380664 
1348.039 54252396 55042564 55677380 56085872 56204388 55993436 55444928 
1351.415 54582636 53460064 52149468 50740800 49323288 47978244 46777080 
1354.790 45768132 44977628 44408788 44045300 43857476 43809500 43869424 
1358.165 44010352 44211964 44460720 44745544 45058152 45395080 45759844 
1361.540 46165564 46632484 47184300 47837948 48594396 49434584 50320448 
1364.916 51200516 52011476 52689040 53170600 53397188 53327764 52943604 
1368.291 52256560 51306888 50159456 48891732 47573384 46263704 45003280 
1371.666 43813016 42704488 41686124 40770548 39978040 39331900 38849820 
1375.041 38536144 38378844 38355028 38437916 38609252 38864060 39212788 
1378.417 39678680 40295416 41107408 42164576 43524044 45243480 47360932 
1381.792 49874592 52712796 55731548 58701328 61336524 63355000 64484836 
1385.167 64526960 63393304 61138060 57975212 54237980 50336928 46634552 
1388.542 43376904 40682736 38549868 36906632 35650480 34684144 33924612 
1391.917 33307194 32787870 32336128 31934134 31575840 31264096 31006552 
1395.293 30810020 30676048 30599248 30569634 30575072 30605718 30656490 
1398.668 30728394 30827486 30962358 31141374 31369400 31646114 31966448 
1402.043 32321886 32701872 33094778 33491262 33883628 34266456 34635552 
1405.418 34986432 35314160 35615092 35889452 36143712 36389980 36645328 
1408.794 36926652 37246032 37608532 38011760 38448600 38911824 39397964 
1412.169 39908000 40445444 41013336 41611256 42235452 42882636 43552796 
1415.544 44253784 45001440 45818240 46729112 47753872 48900256 50154400 
1418.919 51477332 52807564 54073808 55212072 56171804 56922976 57457892 
1422.295 57791560 57967600 58056856 58155412 58357712 58735540 59323284 
1425.670 60114520 61079820 62184660 63406648 64736016 66169792 67704104 
1429.045 69326992 71022216 72777984 74597464 76500856 78515072 80664816 
1432.420 82958432 85388960 87939192 90599200 93379512 96310696 99436904 
1435.796 102790136 106367600 110111304 113928688 117730296 121452976 
1438.689 125061568 128523168 131789792 134769456 137326144 139310592 
1441.582 140562976 140948400 140381440 138824944 136304112 132903096 
1444.475 128775240 124122992 119167880 114150616 109284216 104743040 
1447.368 100663832 97121664 94126704 91620816 89502480 87651400 85963080 
1450.743 84383208 82915480 81619080 80574784 79857808 79500072 79477872 
1454.118 79712680 80088608 80481808 80768008 80865544 80766368 80553552 
1457.494 80369840 80354248 80607768 81173280 82056968 83247672 84721672 
1460.869 86442488 88351392 90374496 92408144 94318400 95962336 97192360 
1464.244 97898240 98044808 97687616 96955160 95995688 94950832 93924520 
1467.619 92980256 92155600 91460872 90880864 90370464 89855720 89242704 
1470.995 88432784 87364856 86050480 84595280 83165000 81932672 81021480 
1474.370 80478976 80300392 80456208 80915840 81654112 82646984 83864008 
1477.745 85258048 86767024 88325160 89863424 91327224 92684424 93928472 
1481.120 95081680 96188456 97311120 98516920 99875968 101467784 103374968 
1484.496 105684312 108473088 111784104 115597816 119800560 124191296 
1487.389 128461120 132219512 135060304 136576672 136454656 134557984 
1490.282 130968568 125989736 120051064 113616096 107056256 100602592 
1493.175 94384896 88442568 82784320 77444736 72494352 68049968 64251996 
1496.550 61215308 58994700 57571592 56879312 56827080 57326744 58306436 
1499.925 59701576 61448804 63483568 65728308 68096552 70500896 72831272 
1503.301 74959808 76731880 77930568 78289280 77518120 75389344 71886256 
1506.676 67299080 62162636 57010132 52186008 47804432 43829620 40181676 
1510.051 36799764 33657968 30768938 28161598 25854644 23850706 22130386 
1513.426 20661310 19407798 18337064 17420556 16629487 15936090 15318203 
1516.802 14762414 14270129 13852180 13518610 13268643 13084822 12933644 
1520.177 12779173 12596855 12390476 12193292 12051485 11996267 12028150 
1523.552 12120373 12234903 12340328 12420718 12482025 12544297 12631375 
1526.927 12755662 12912753 13085881 13257985 13421203 13580381 13748440 
1530.302 13938051 14153383 14387111 14622815 14843493 15042878 15231167 
1533.678 15433305 15673013 15961628 16291095 16641743 16989990 17318030 
1537.053 17618266 17890394 18139514 18368830 18575442 18749596 18881842 
1540.428 18974078 19042550 19109440 19191230 19288172 19385554 19460744 
1543.803 19495674 19485382 19442862 19392206 19359776 19360990 19394666 
1547.179 19447160 19500422 19542670 19573274 19604124 19652830 19734446 
1550.554 19852388 19998848 20159068 20321360 20482600 20649356 20834810 
1553.929 21050528 21300456 21577342 21866216 22148586 22409056 22634356 
1557.304 22812170 22932666 22992156 23003544 22997188 23013956 23082998 
1560.680 23209962 23382282 23576390 23766912 23928876 24045338 24110692 
1564.055 24131744 24126454 24116646 24118854 24136646 24160536 24172482 
1567.430 24154896 24096682 23998380 23872302 23739544 23622500 23536094 
1570.805 23487090 23474498 23493804 23538472 23599444 23664346 23714942 
1574.181 23729852 23690868 23591118 23444002 23282496 23147822 23067168 
1577.556 23044318 23061684 23093446 23115112 23110114 23072690 23004804 
1580.931 22912546 22801696 22675686 22535650 22382472 22219372 22051840 
1584.306 21885416 21722780 21560696 21390806 21202960 20990572 20755036 
1587.682 20506914 20262926 20041214 19857696 19721894 19638824 19610988 
1591.057 19640280 19727408 19868380 20051728 20254804 20446790 20596508 
1594.432 20676842 20673888 20588934 20437206 20242410 20028862 19820342 
1597.807 19636052 19492314 19406342 19394424 19471486 19648878 19931094 
1601.183 20317020 20801298 21377998 22039568 22775784 23570618 24397084 
1604.558 25215892 25982458 26645626 27157968 27483054 27597154 27494878 
1607.933 27188058 26704148 26079452 25352370 24563774 23751444 22950306 
1611.308 22192626 21501436 20888450 20352992 19882704 19457900 19055948 
1614.684 18657202 18248004 17825176 17399312 16993228 16635960 16351679 
1618.059 16153859 16042039 16005011 16024023 16078243 16147943 16217725 
1621.434 16281292 16342975 16417330 16522432 16672317 16871030 17112256 
1624.809 17384102 17676136 17983248 18304818 18641256 18989758 19341796 
1628.185 19683822 20002910 20291500 20550164 20786492 21010116 21227208 
1631.560 21437414 21632188 21797924 21918520 21978570 21966788 21879038 
1634.935 21721806 21512334 21275680 21037834 20816038 20616000 20432586 
1638.310 20254386 20066544 19855476 19612652 19337292 19038084 18729670 
1641.686 18428252 18145212 17882280 17631412 17376930 17100434 16784576 
1645.061 16420014 16009102 15568597 15126754 14716482 14367246 14095980 
1648.436 13906335 13789927 13731238 13707846 13690510 13644485 13526882 
1651.811 13296725 12937672 12483594 12021371 11642813 11394876 11265774 
1655.187 11214158 11195764 11179648 11149697 11101256 11037390 10963849 
1658.562 10885563 10803895 10716706 10619688 10508909 10382378 10241128 
1661.937 10089477 9934658 9786334 9653746 9545381 9465760 9414662 9386796 
1665.794 9372169 9357950 9329816 9275282 9187011 9065297 8918826 8762497 
1669.652 8613254 8484098 8381800 8306850 8254842 8218777 8188725 8153544 
1673.509 8100271 8017741 7901415 7758303 7607146 7470704 7367163 7301552 
1677.367 7266780 7248249 7231403 7207719 7176828 7146276 7126841 7125965 
1681.224 7142301 7163927 7169586 7136272 7047223 6904124 6731423 6568916 
1685.082 6449985 6385555 6366221 6372946 6388447 6400216 6402031 6392280 
1688.939 6371937 6343492 6310612 6278977 6255480 6247009 6257867 6286843 
1692.796 6326211 6361648 6376174 6354688 6291886 6198507 6101148 6030857 
1696.654 6005962 6024742 6067815 6108205 6117480 6075174 5976668 5840502 
1700.511 5703373 5600487 5549304 5544304 5568166 5600554 5625560 5632877 
1704.369 5617772 5581020 5528967 5471485 5418305 5376772 5350540 5338866 
1708.226 5338900 5346011 5356410 5367480 5379188 5392640 5410153 5432967 
1712.083 5460949 5492323 5524739 5555614 5583738 5608307 5628211 5640497 
1715.941 5640765 5624721 5591659 5547425 5505477 5482491 5490746 5534571 
1719.798 5609549 5706193 5813738 5923090 6029883 6133509 6236656 6343223 
1723.656 6456307 6576956 6704132 6835621 6969203 7102826 7233795 7358131 
1727.513 7470805 7565740 7639113 7690003 7722381 7742551 7756819 7767074 
1731.371 7768659 7749500 7693409 7587724 7431469 7244812 7063624 6927084 
1735.228 6857769 6854403 6899848 6971358 7049614 7120172 7175683 7214963 
1739.085 7241915 7263039 7284469 7310617 7342495 7378857 7417110 7454423 
1742.943 7487458 7513315 7529530 7534554 7527744 7508999 7478896 7437806 
1746.800 7385429 7321197 7243464 7151026 7041667 6913853 6766523 6600807 
1750.658 6420930 6235177 6054510 5889872 5748093 5631232 5534706 5449709 
1754.515 5364897 5270106 5159477 5033891 4901406 4774689 4665224 4578623 
1758.373 4512795 4458796 4405271 4341277 4260696 4163002 4053590 3941799 
1762.230 3837090 3746710 3674025 3618792 3578734 3550104 3528458 3508248 
1766.087 3484099 3451768 3410122 3362436 3315524 3277196 3252258 3239773 
1769.945 3232696 3220545 3192774 3143810 3076899 3003859 2940038 2897107 
1773.802 2878862 2881163 2895773 2914719 2933333 2950680 2968261 2987644 
1777.660 3008463 3027815 3041829 3047334 3044131 3035055 3025312 3019440 
1781.517 3019040 3022209 3024712 3022543 3013902 2999989 2985075 2974066 
1785.375 2970496 2975400 2987411 3004426 3024745 3047835 3073428 3100492 
1789.232 3125888 3144711 3150585 3138537 3106565 3058112 3001256 2945609 
1793.089 2899709 2867088 2847677 2838138 2834570 2834069 2834803 2835270 
1796.947 2833969 2829434 2820729 2807289 2790415 2772374 2755802 2742897 
1800.804 2734294 2729393 2726659 2725359 2725992 2729626 2737596 2750133 
1804.662 2766239 2783479 2799519 2813025 2824331 2834703 2846076 2858449 
1808.519 2870723 2880429 2884899 2882798 2875426 2866154 2858750 2856348 
1812.376 2859884 2868255 2879229 2890769 2902211 2914486 2929096 2947477 
1816.234 2969762 2995051 3021842 3049136 3076765 3105598 3137135 3172213 
1820.091 3210999 3252492 3295892 3339864 3383474 3425184 3463124 3494687 
1823.949 3517735 3531765 3539114 3545394 3556785 3578567 3611910 3654343 
1827.806 3699488 3740159 3771375 3792499 3808075 3825691 3852534 3892316 
1831.664 3943538 4001052 4059075 4113561 4163002 4208969 4254573 4302691 
1835.521 4355300 4412835 4475467 4544134 4621017 4708933 4810503 4926606 
1839.378 5055580 5194584 5339571 5487390 5635999 5784087 5930984 6076081 
1843.236 6219077 6360606 6502417 6647134 6795971 6947621 7096932 7235783 
1847.093 7354626 7444615 7500808 7522349 7512843 7477211 7420447 7344786 
1850.951 7250068 7134857 6999137 6845719 6680477 6511061 6343459 6181299 
1854.808 6024104 5870325 5718413 5569105 5426123 5293785 5175438 5071000 
1858.666 4976475 4886461 4795862 4702267 4607119 4514001 4426995 4347803 
1862.523 4276189 4210240 4148918 4092789 4044661 4007606 3982994 3968281 
1866.380 3957849 3944072 3920668 3885429 3841970 3797546 3760513 3736616 
1870.238 3726791 3728295 3736817 3748247 3760446 3771910 3781101 3785346 
1874.095 3781001 3764724 3735480 3695277 3648663 3601719 3558690 3521075 
1877.953 3486571 3451735 3413094 3370183 3325340 3282170 3244480 3213002 
1881.810 3185397 3157360 3125354 3087444 3045299 3002524 2963090 2929263 
1885.667 2900743 2875226 2849845 2822997 2794817 2766472 2739930 2716423 
1889.525 2696185 2679582 2667780 2662579 2666513 2680949 2704820 2734561 
1893.382 2764538 2789881 2808156 2820195 2829567 2840239 2854581 2871357 
1897.240 2887801 2900609 2908548 2913585 2919856 2931165 2948712 2969662 
1901.097 2988812 3000256 3001090 2993116 2981572 2972865 2971063 2975934 
1904.955 2983474 2987077 2982073 2967861 2947711 2928096 2914819 2910917 
1908.812 2916187 2927829 2942340 2957919 2974166 2992148 3012267 3033621 
1912.669 3054442 3073695 3091315 3109502 3130627 3156125 3183394 3206426 
1916.527 3217207 3209229 3181191 3138303 3091215 3050738 3023811 3010632 
1920.384 3006228 3002324 2992315 2974099 2949979 2925560 2906013 2894272 
1924.242 2889469 2889102 2891003 2895306 2903478 2917588 2937836 2960755 
1928.099 2980838 2992382 2992448 2982540 2967627 2953983 2946510 2947010 
1931.957 2953716 2964224 2976768 2992215 3012767 3039793 3071927 3104029 
1935.814 3129426 3142642 3142208 3132196 3120415 3114642 3118513 3130627 
1939.671 3145178 3155291 3157227 3151720 3144244 3142342 3149350 3165003 
1943.529 3184229 3201419 3212901 3220779 3229792 3245915 3271721 3305541 
1947.386 3341200 3372187 3395395 3411825 3427054 3446758 3474045 3506712 
1951.244 3538579 3562799 3576429 3581206 3583846 3591262 3606831 3628214 
1955.101 3648630 3659723 3655613 3636634 3608134 3578734 3555349 3541285 
1958.958 3535305 3533669 3534637 3538980 3550171 3571150 3601452 3635431 
1962.816 3664201 3679070 3676163 3657117 3628949 3599514 3574725 3554647 
1966.673 3536241 3514996 3489877 3463458 3442583 3432798 3436572 3451501 
1970.531 3472375 3494153 3516299 3541987 3577465 3626678 3687892 3753695 
1974.388 3814259 3863499 3902213 3939325 3987709 4056935 4147246 4247212 
1978.246 4337562 4399681 4421639 4402191 4349912 4278431 4200338 4123061 
1982.103 4049811 3979350 3911473 3846918 3788488 3739491 3701493 3673690 
1985.960 3654444 3642081 3637269 3642248 3659456 3687859 3723148 3757003 
1989.818 3782171 3793903 3795173 3792833 3797546 3816666 3852133 3899070 
1993.675 3948921 3993963 4030013 4057871 4080949 4102255 4121790 4136307 
1997.533 4140623 4132561 4113929 4091084 4071149 4059543 4055764 4054493 
2001.390 4048072 4029812 3999346 3961694 3925884 3900039 3888773 3891848 
2005.248 3905155 3925115 3950392 3983362 4026568 4078976 4133999 4180733 
2009.105 4207798 4209237 4187323 4151829 4116270 4092923 4086367 4094696 
2012.962 4110785 4128714 4145841 4166213 4196156 4240888 4300550 4368922 
2016.820 4435932 4493277 4536400 4567171 4592485 4617702 4646301 4678185 
2020.677 4711144 4744104 4779178 4820487 4871147 4931734 4995680 5052697 
2024.535 5093361 5113040 5114616 5108346 5106067 5117097 5143014 5177952 
2028.392 5210881 5233417 5241600 5238212 5230533 5227011 5233685 5252902 
2032.250 5285736 5333197 5397639 5482424 5586994 5706159 5828144 5938944 
2036.107 6025918 6083944 6115934 6132232 6143860 6159117 6179181 6199145 
2039.964 6212791 6215144 6207581 6196019 6189499 6194204 6210909 6234538 
2043.822 6258539 6275952 6284692 6287583 6290003 6297568 6313368 6336936 
2047.679 6365549 6396214 6426646 6456038 6482775 6504939 6519369 6523068 
2051.537 6516442 6503190 6490645 6487786 6500903 6531847 6576047 6625366 
2055.394 6671090 6707867 6734855 6756258 6777124 6801054 6828418 6856086 
2059.251 6880121 6897357 6907658 6912708 6914762 6914324 6909712 6897795 
2063.109 6876519 6846560 6811958 6778975 6752556 6734249 6720924 6706824 
2066.966 6686231 6656891 6621093 6584760 6554553 6533866 6521588 6512877 
2070.824 6500937 6481161 6453213 6421098 6391204 6369045 6357580 6355932 
2074.681 6361715 6371769 6384378 6399476 6417129 6435995 6453718 6466733 
2078.539 6472215 6470870 6466733 6465186 6472483 6491721 6521791 6558051 
2082.396 6594280 6625568 6650095 6669071 6685760 6702786 6720857 6738288 
2086.253 6752052 6759388 6759119 6751581 6737985 6719409 6695754 6666951 
2090.111 6633239 6596736 6561717 6533193 6516341 6513516 6523842 6543385 
2093.968 6567604 6591455 6612447 6629504 6642457 6651474 6655343 6653796 
2097.826 6647167 6638521 6632868 6635897 6651642 6680847 6720116 6764066 
2101.683 6806068 6842218 6872076 6898670 6926040 6957991 6996308 7040522 
2105.541 7088816 7139539 7191718 7246194 7302900 7361939 7421795 7480615 
2109.398 7535835 7586544 7632807 7675130 7713814 7748589 7778273 7802021 
2113.255 7820575 7835757 7851176 7870643 7895881 7927093 7962054 7998131 
2117.113 8033571 8068979 8106685 8149391 8197740 8250283 8302021 8348259 
2120.970 8385348 8413522 8436223 8460110 8491329 8533668 8587433 8650027 
2124.828 8717667 8787347 8857071 8927213 8997502 9067260 9134186 9195777 
2128.685 9250098 9297724 9340988 9383680 9429391 9479542 9534136 9591549 
2132.542 9650527 9711174 9774948 9843271 9915674 9989106 10059295 10121186 
2136.400 10172774 10215786 10254765 10295851 10342675 10394800 10447404 
2139.775 10493362 10526120 10542075 10542110 10529650 10508875 10481177 
2143.150 10446657 10402741 10348478 10284485 10213479 10140077 10067909 
2146.526 9997956 9929980 9862151 9793586 9726456 9664046 9608690 9560386 
2150.383 9514357 9463016 9398205 9315022 9213815 9099605 8978897 8855212 
2154.240 8727539 8591184 8440717 8277198 8111816 7963978 7859003 7817000 
2158.098 7845406 7932999 8054734 8180385 8283479 8351637 8383490 8387679 
2161.955 8373626 8349104 8316847 8277603 8231068 8178697 8123226 8067932 
2165.813 8013387 7959051 7902056 7840109 7773347 7703831 7634729 7568876 
2169.670 7506100 7444042 7378588 7307820 7231201 7153249 7079655 7015940 
2173.528 6964725 6925198 6893149 6864165 6834072 6801222 6764941 6724794 
2177.385 6679737 6627856 6568378 6502854 6435928 6373854 6322311 6283751 
2181.242 6257127 6236891 6216623 6192120 6162377 6130821 6101619 6077997 
2185.100 6059113 6042079 6022323 5997462 5967833 5938205 5914290 5900048 
2188.957 5896354 5899847 5906262 5910528 5909655 5903340 5892827 5878318 
2192.815 5860653 5838420 5812025 5783147 5756386 5736711 5728217 5731977 
2196.672 5745004 5761960 5777842 5790434 5800608 5812596 5829219 5850074 
2200.530 5871131 5885136 5885606 5870325 5842215 5809037 5780159 5761926 
2204.387 5755782 5758300 5763437 5765619 5763807 5759307 5756722 5758568 
2208.244 5764780 5771831 5775693 5773174 5765619 5757729 5756218 5765855 
2212.102 5787546 5817532 5848697 5874926 5892189 5900720 5903407 5904617 
2215.959 5906833 5910394 5914491 5917145 5918925 5921276 5926516 5935921 
2219.817 5948820 5962055 5972267 5976533 5975022 5969848 5964238 5960443 
2223.674 5957823 5954060 5945058 5928565 5904617 5876236 5848126 5825021 
2227.531 5809037 5799936 5795638 5793623 5792583 5793523 5797653 5806115 
2231.389 5818641 5833047 5846413 5856387 5862600 5866530 5870325 5876639 
2235.246 5886144 5899309 5914693 5931655 5950432 5972032 5997462 6026993 
2239.104 6059281 6091336 6120538 6144834 6163923 6179148 6192658 6206136 
2242.961 6220354 6234740 6249026 6263211 6278574 6296828 6319924 6348435 
2246.819 6381419 6416995 6452675 6486676 6518023 6546277 6570800 6590714 
2250.676 6604676 6611875 6612447 6609655 6606829 6608376 6616821 6631456 
2254.533 6648211 6661938 6667725 6663082 6648782 6628495 6606425 6585803 
2258.391 6567267 6549069 6528753 6504099 6474569 6441880 6409026 6378897 
2262.248 6353848 6335120 6322614 6317100 6318479 6327522 6343391 6364876 
2266.106 6388783 6411985 6431421 6446184 6456879 6465253 6473055 6480656 
2269.963 6487181 6490948 6489871 6483717 6473089 6460847 6449447 6440636 
2273.821 6434683 6430547 6426546 6421905 6416793 6412456 6410639 6412590 
2277.678 6418576 6428092 6440434 6454962 6471575 6490679 6512137 6534976 
2281.535 6558051 6579176 6596837 6610395 6620118 6626981 6632162 6635964 
2285.393 6638454 6639463 6639092 6638117 6637579 6638689 6641179 6643736 
2289.250 6643635 6638487 6627115 6610294 6590580 6571843 6557815 6550381 
2293.108 6549776 6554350 6561919 6570699 6579714 6589268 6599966 6611572 
2296.965 6623717 6634618 6643164 6648076 6649455 6648446 6645956 6642928 
2300.823 6639732 6635526 6630042 6622775 6614230 6604979 6596165 6588225 
2304.680 6581127 6574736 6568546 6562962 6558925 6557815 6560372 6566797 
2308.537 6575946 6585770 6594550 6600908 6604776 6607031 6609184 6612447 
2312.395 6617258 6623314 6629369 6634248 6636839 6636872 6634080 6628697 
2316.252 6621026 6611303 6599731 6586745 6572751 6558522 6544461 6531141 
2320.110 6518763 6507294 6496665 6486307 6475174 6461520 6442822 6416760 
2323.967 6381587 6337071 6285163 6229396 6174106 6123596 6080853 6046782 
2327.824 6020744 6000251 5983218 5967799 5953590 5941262 5931823 5925912 
2331.682 5923930 5925609 5930412 5938105 5949022 5963197 5980430 5999882 
2335.539 6020341 6040567 6059886 6078097 6096108 6114959 6135357 6157504 
2339.397 6181332 6206203 6232421 6260320 6291080 6325303 6362791 6402367 
2343.254 6442250 6481497 6520411 6561717 6609823 6668802 6742192 6830403 
2347.112 6930720 7037996 7145771 7247204 7335856 7406258 7454457 7477884 
2350.969 7476300 7451727 7408583 7352604 7290601 7228540 7170293 7118521 
2354.826 7073828 7036615 7006982 6985365 6972873 6969809 6975533 6988968 
2358.684 7008127 7031598 7058337 7088344 7121721 7158436 7197479 7237737 
2362.541 7278134 7317895 7358131 7400629 7447749 7500841 7559537 7622050 
2366.399 7685585 7747577 7806879 7863693 7919298 7975148 8031511 8088118 
2370.256 8144091 8198754 8252714 8307627 8366026 8430379 8501702 8579930 
2374.114 8663852 8751745 8842666 8936108 9032514 9131988 9234359 9338821 
2377.971 9443917 9548361 9651645 9753802 9855405 9956864 10057770 10157104 
2381.828 10253408 10345560 10433082 10516751 10597754 10677278 10755831 
2385.204 10832327 10904963 10971257 11029505 11078924 11120258 11155510 
2388.579 11186584 11215450 11243434 11271113 11298454 11325355 11351339 
2391.954 11376270 11399875 11421714 11441785 11460257 11477948 11495741 
2395.329 11515203 11537047 11561853 11589791 11620453 11654010 11691110 
2398.705 11732400 11778835 11830825 11888304 11950286 12015888 12084156 
2402.080 12154855 12228326 12305456 12386896 12472750 12562543 12655630 
2405.455 12751363 12849609 12950677 13055285 13163847 13276638 13393421 
2408.830 13513893 13637954 13766292 13899766 14038585 14182583 14330362 
2412.206 14479117 14625522 14766527 14899657 15023600 15137630 15241463 
2415.581 15334816 15417649 15489958 15552044 15604934 15650101 15688952 
2418.956 15722895 15752614 15778555 15801715 15823260 15845321 15870409 
2422.331 15900791 15937705 15981359 16030658 16084226 16141513 16202660 
2425.707 16269354 16344041 16429132 16526356 16636373 16759161 16893764 
2429.082 17039264 17194980 17360100 17534216 17716618 17906796 18104518 
2432.457 18310140 18524126 18747280 18979894 19221290 19469926 19724216 
2435.832 19982404 20243904 20509276 20779888 21056892 21341208 21632468 
2439.208 21929532 22230952 22535686 22842762 23152330 23464426 23778496 
2442.583 24093740 24409002 24723126 25036248 25348682 25661728 25976654 
2445.958 26293920 26612438 26931192 27247498 27559234 27864622 28162622 
2449.333 28451702 28731274 29000434 29258524 29506096 29744226 29975176 
2452.708 30201488 30425322 30648206 30870458 31091220 31309356 31523320 
2456.084 31731978 31934098 32128360 32313604 32487646 32649360 32797482 
2459.459 32931254 33050332 33154282 33242520 33313848 33367052 33401400 
2462.834 33417754 33418112 33406448 33387698 33367374 33350628 33342398 
2466.209 33347194 33368982 33411920 33479810 33575232 33700252 33855332 
2469.585 34039664 34251684 34489708 34752048 35037144 35343708 35669616 
2472.960 36012624 36369624 36737232 37112080 37490760 37870020 38245084 
2476.335 38611680 38964372 39297876 39607860 39891000 40145548 40370784 
2479.710 40566204 40731060 40864096 40964180 41030268 41063048 41064360 
2483.086 41036788 40983772 40908764 40814368 40703512 40579372 40444972 
2486.461 40303812 40158668 40010808 39860128 39704312 39540568 39365676 
2489.836 39177832 38976188 38761052 38533028 38292344 38037800 37768184 
2493.211 37481440 37175892 36851156 36507128 36144144 35762320 35361392 
2496.587 34940932 34501112 34043000 33569040 33082586 32588064 32089080 
2499.962 31588848 31089370 30592030 30097710 29607356 29121984 28642536 
2503.337 28169942 27704502 27247252 26799468 26363414 25942428 25540334 
2506.712 25159782 24802752 24469010 24156332 23861626 23581954 23315358 
2510.088 23061090 22819680 22591736 22377484 22176900 21989236 21814124 
2513.463 21652494 21505720 21375734 21264440 21171994 21097100 21037382 
2516.838 20989772 20951764 20922314 20901280 20889284 20886956 20894568 
2520.213 20911258 20936604 20969708 21010602 21059952 21118458 21185876 
2523.589 21261344 21342498 21426136 21508852 21587406 21659146 21722294 
2526.964 21775556 21817714 21848584 21867504 21874716 21870082 21854018 
2530.339 21826216 21786566 21734520 21670324 21594370 21508400 21414336 
2533.714 21314864 21212212 21108162 21003856 20899888 20797232 20696998 
2537.090 20600782 20510840 20428384 20354242 20287786 20227344 20170870 
2540.465 20115858 20060162 20002596 19942542 19880068 19815904 19751194 
2543.840 19687534 19626344 19569044 19516294 19468158 19423458 19380704 
2547.215 19338646 19296208 19252842 19209204 19165534 19121766 19077828 
2550.591 19033202 18987370 18940538 18893886 18848414 18806338 18768522 
2553.966 18735412 18706700 18681586 18659276 18639666 18622856 18609264 
2557.341 18598716 18590486 18582670 18573022 18559430 18539928 18513198 
2560.716 18478554 18435892 18385282 18327282 18263314 18195552 18126730 
2564.092 18060164 17998618 17944158 17897266 17857388 17823554 17794452 
2567.467 17769392 17748372 17732046 17720726 17714546 17713442 17716792 
2570.842 17724072 17734876 17749062 17766010 17785580 17806916 17829250 
2574.217 17852518 17876654 17902548 17931382 17963668 17999584 18038058 
2577.593 18077746 18116954 18154990 18191856 18228618 18266906 18307722 
2580.968 18351444 18398348 18447854 18499922 18554762 18612896 18674876 
2584.343 18740948 18810248 18882050 18955352 19029672 19105214 19182952 
2587.718 19263684 19348032 19435828 19526274 19618406 19711422 19804978 
2591.094 19899076 19993888 20088824 20182566 20273724 20360456 20441824 
2594.469 20517822 20589248 20657106 20722472 20785518 20845968 20902982 
2597.844 20956286 21005944 21053484 21100718 21149834 21202854 21261136 
2601.219 21325686 21396966 21475290 21560662 21652598 21750754 21853566 
2604.594 21959818 22068154 22178086 22289684 22404068 22522144 22645386 
2607.970 22774912 22911324 23054940 23205944 23363434 23526648 23693914 
2611.345 23862816 24030632 24195148 24354644 24508730 24657926 24803664 
2614.720 24946996 25088550 25227868 25363750 25494968 25620568 25740088 
2618.095 25853800 25962478 26066434 26165908 26260760 26350528 26434962 
2621.471 26514270 26588696 26659224 26726240 26790482 26852266 26912050 
2624.846 26970292 27027516 27084080 27140262 27195678 27249792 27302292 
2628.221 27352822 27401590 27449556 27497456 27546100 27595458 27644998 
2631.596 27693872 27740774 27784890 27825726 27863562 27898328 27930658 
2634.972 27960482 27987976 28013032 28036216 28058024 28079232 28100758 
2638.347 28123100 28146998 28172770 28200488 28230756 28263890 28300030 
2641.722 28339888 28383712 28431536 28483826 28540898 28603002 28670354 
2645.097 28742780 28819534 28899952 28982582 29066962 29152492 29239740 
2648.473 29329204 29421524 29517266 29615976 29717154 29820132 29924270 
2651.848 30029284 30135282 30242302 30350166 30459086 30568460 30678430 
2655.223 30789674 30903080 31020076 31141730 31268370 31399530 31533904 
2658.598 31670100 31806554 31942800 32079090 32215956 32354332 32494642 
2661.974 32636500 32779832 32923746 33067818 33211470 33354848 33497560 
2665.349 33639604 33780688 33920744 34059948 34198984 34338564 34479408 
2668.724 34621988 34766264 34911704 35057656 35203908 35350820 35498900 
2672.099 35649188 35802728 35960176 36121532 36286444 36455020 36626944 
2675.475 36802072 36980448 37161852 37345828 37531756 37718960 37907112 
2678.850 38096396 38287424 38480964 38677996 38878988 39084284 39293960 
2682.225 39508084 39727076 39951700 40182980 40421512 40667892 40922452 
2685.600 41185068 41455172 41732556 42016508 42306708 42602396 42903372 
2688.976 43209276 43520164 43836144 44157636 44484840 44817760 45156228 
2692.351 45499932 45848764 46202856 46562844 46929588 47303732 47685416 
2695.726 48074128 48468716 48868072 49271212 49678104 50089504 50506100 
2699.101 50928644 51357532 51792140 52231484 52674676 53120756 53569356 
2702.477 54020372 54473504 54928132 55383232 55837564 56289700 56738300 
2705.852 57182448 57620816 58052388 58475520 58888552 59290124 59679264 
2709.227 60055848 60420348 60773492 61115292 61446096 61764932 62071424 
2712.602 62365016 62646172 62915260 63172892 63419068 63652448 63871064 
2715.978 64072124 64253152 64412072 64548104 64661340 64752788 64823912 
2719.353 64876340 64912660 64935944 64950140 64960180 64971732 64989968 
2722.728 65020136 65066056 65130644 65215728 65322316 65450808 65601192 
2726.103 65773560 65967136 66181600 66416204 66670516 66943692 67235024 
2729.479 67542816 67864920 68198928 68541808 68891256 69245024 69601648 
2732.854 69959848 70318496 70675960 71030176 71378352 71717888 72046632 
2736.229 72363048 72666304 72956368 73233208 73497400 73749496 73990664 
2739.604 74222800 74448184 74669784 74890520 75113168 75340112 75573648 
2742.979 75815432 76067176 76331280 76609216 76902608 77212056 77537296 
2746.355 77876696 78228176 78588400 78952912 79317320 79675544 80021312 
2749.730 80347992 80649616 80920664 81158504 81361256 81529248 81663344 
2753.105 81765168 81836008 81876944 81888304 81869896 81821008 81740048 
2756.480 81624800 81472728 81280936 81047272 80770072 80449384 80085624 
2759.856 79680552 79235952 78754016 78237544 77689936 77115568 76520216 
2763.231 75910208 75292240 74673168 74058912 73454624 72865088 72294752 
2766.606 71747824 71228680 70741552 70289360 69875080 69500264 69165872 
2769.981 68871800 68618096 68403904 68227848 68088024 67981536 67904392 
2773.357 67852832 67822272 67808520 67807976 67816376 67829624 67843536 
2776.732 67852984 67852904 67838416 67805264 67749648 67669560 67563448 
2780.107 67431144 67273512 67092888 66892704 66677584 66453116 66224360 
2783.482 65996064 65771908 65553872 65342956 65138764 64940364 64745864 
2786.858 64552524 64356624 64153664 63938708 63707276 63455796 63182668 
2790.233 62888028 62574140 62244504 61903652 61556152 61206800 60860200 
2793.608 60521540 60195772 59888052 59603432 59345848 59118524 58923804 
2796.983 58762820 58636168 58544176 58486740 58463996 58475368 58520596 
2800.359 58598896 58708420 58848028 59015424 59208284 59424068 59659036 
2803.734 59909964 60173092 60445140 60723036 61004732 61288256 61571696 
2807.109 61852948 62129032 62396304 62650272 62885956 63098440 63282660 
2810.484 63434212 63549304 63625208 63659816 63652836 63604264 63515820 
2813.860 63389584 63228616 63036792 62818712 62579496 62325352 62063320 
2817.235 61801068 61546572 61307944 61093552 60910712 60766248 60666032 
2820.610 60613912 60611972 60659596 60754704 60892336 61066548 61270932 
2823.985 61498088 61741056 61993224 62247600 62497532 62736852 62959032 
2827.361 63158788 63331960 63475356 63587548 63667992 63717520 63737588 
2830.736 63730992 63701516 63653752 63593140 63525216 63454540 63385212 
2834.111 63320076 63260392 63207304 63161468 63123540 63094644 63076028 
2837.486 63069320 63076720 63101584 63147752 63221372 63329084 63478732 
2840.862 63678384 63935668 64257800 64651528 65123676 65681860 66334092 
2844.237 67088016 67950032 68922128 69999784 71167792 72398632 73653504 
2847.612 74877488 76008088 76979856 77726712 78196480 78355312 78192792 
2850.987 77723624 76986272 76037576 74939808 73757936 72551952 71367568 
2854.363 70240824 69194856 68241304 67383976 66619644 65940448 65335444 
2857.738 64791792 64297372 63839980 63410096 62999980 62603572 62215520 
2861.113 61831172 61445104 61052096 60647176 60226300 59787428 59330808 
2864.488 58859640 58379012 57896680 57422224 56965400 56536568 56145372 
2867.864 55799624 55505656 55267312 55086232 54961860 54890984 54868496 
2871.239 54886844 54936440 55006312 55084616 55159852 55223064 55267352 
2874.614 55289140 55288272 55266412 55226376 55171104 55103312 55024852 
2877.989 54937644 54843496 54744336 54642720 54541272 54442332 54348140 
2881.365 54260580 54181148 54111144 54051852 54003900 53967464 53942220 
2884.740 53926948 53920756 53922784 53932652 53950808 53977784 54014588 
2888.115 54061684 54119628 54188276 54267116 54355916 54454388 54562236 
2891.490 54679920 54808612 54950392 55108392 55287184 55491876 55727892 
2894.865 56000336 56312668 56666264 57059480 57487620 57943060 58414260 
2898.241 58887832 59348240 59779480 60167572 60502344 60778904 60998708 
2901.616 61169796 61304852 61418580 61526568 61643556 61781204 61950192 
2904.991 62159464 62416696 62730080 63106984 63554516 64079924 64690792 
2908.366 65395184 66202588 67122240 68162184 69325784 70608640 71994488 
2911.742 73453608 74945400 76416456 77806216 79057480 80114304 80932848 
2915.117 81485712 81761688 81767768 81525608 81070032 80441456 79681080 
2918.492 78830248 77923112 76987928 76047008 75115848 74205464 73323032 
2921.867 72472576 71656216 70874664 70127960 69416552 68740896 68101752 
2925.243 67500040 66936536 66410684 65920704 65463336 65033728 64625652 
2928.618 64232328 63847268 63464120 63078060 62685788 62286840 61882632 
2931.993 61476940 61075624 60684820 60311492 59961880 59641024 59353332 
2935.368 59101592 58887564 58711948 58574060 58472676 58405580 58370216 
2938.744 58364876 58388184 58440148 58521696 58633856 58776852 58949460 
2942.119 59147760 59365448 59593888 59821540 60035916 60223408 60369404 
2945.494 60461476 60488744 60444644 60328092 60144436 59905436 59627188 
2948.869 59329440 59032504 58753560 58506796 58301168 58140448 58024172 
2952.245 57948668 57908304 57896116 57905620 57930792 57966120 58007588 
2955.620 58051932 58096552 58139996 58180872 58218680 58253844 58287336 
2958.995 58320988 58357104 58397696 58444624 58498760 58559800 58626616 
2962.370 58697992 58772224 58847764 58923728 58999176 59073424 59146320 
2965.746 59217628 59287772 59357508 59427636 59498996 59572076 59647372 
2969.121 59724920 59805604 59890868 59982576 60083360 60195660 60320896 
2972.496 60459040 60608808 60767204 60930728 61095456 61257652 61413464 
2975.871 61558636 61688388 61797020 61879044 61929172 61943236 61919128 
2979.247 61857188 61759736 61631260 61477816 61306532 61124788 60939840 
2982.622 60758056 60583892 60419092 60262424 60109652 59953588 59785528 
2985.997 59597348 59381556 59133676 58852052 58537924 58194472 57826156 
2989.372 57436936 57029480 56604808 56162564 55701148 55220016 54720096 
2992.748 54204760 53679796 53153036 52631812 52121932 51626048 51143000 
2996.123 50668152 50194936 49716556 49227752 48725892 48211320 47686748 
2999.498 47156340 46624072 46094080 45569220 45051644 44543100 44045116 
3002.873 43559136 43086724 42629080 42186740 41759880 41348272 40950852 
3006.249 40566784 40195048 39834708 39484572 39144256 38813188 38491176 
3009.624 38178224 37874648 37579880 37293508 37014684 36741812 36473936 
3012.999 36209940 35949376 35692208 35439144 35190648 34947324 34709624 
3016.374 34477760 34251968 34032712 33820048 33614180 33414998 33221916 
3019.750 33034458 32852016 32674614 32502714 32337342 32179598 32030824 
3023.125 31891842 31763382 31646152 31541280 31450718 31376772 31321820 
3026.500 31287524 31274028 31279228 31298634 31325166 31351234 31367478 
3029.875 31365588 31338270 31280440 31189220 31064848 30910054 30729390 
3033.250 30528574 30313886 30090428 29862438 29633002 29403974 29176696 
3036.626 28952404 28732194 28517332 28308730 28106696 27911046 27721030 
3040.001 27535404 27353386 27174582 26999132 26827594 26661022 26500182 
3043.376 26345986 26199094 26059994 25928640 25804922 25688268 25577550 
3046.751 25471814 25369864 25270956 25175126 25082618 24994376 24911098 
3050.127 24833204 24760166 24691138 24624786 24559916 24495794 24432310 
3053.502 24369258 24307616 24247420 24189226 24133108 24079030 24027024 
3056.877 23977300 23930348 23886586 23846960 23812026 23782136 23757568 
3060.252 23738250 23723588 23713158 23706336 23703150 23703712 23709204 
3063.628 23720962 23739964 23767088 23801980 23843004 23887950 23934094 
3067.003 23978562 24019320 24054620 24083128 24103582 24114440 24114160 
3070.378 24101164 24074758 24035078 23983636 23923100 23856972 23788436 
3073.753 23720648 23655878 23595388 23539836 23488942 23442010 23397946 
3077.129 23355008 23311862 23267010 23219752 23170014 23118570 23066820 
3080.504 23016158 22967842 22922466 22879888 22839446 22800298 22761818 
3083.879 22723656 22686020 22649260 22614318 22581788 22552436 22526750 
3087.254 22504976 22487178 22473116 22462368 22454412 22448794 22445098 
3090.630 22442934 22442270 22442828 22444538 22447260 22450960 22455566 
3094.005 22461428 22468964 22478908 22492028 22509058 22530380 22556206 
3097.380 22585976 22619136 22654740 22691676 22728264 22763670 22796630 
3100.755 22826872 22854498 22880552 22906224 22933050 22962008 22993484 
3104.131 23027582 23063674 23101064 23139434 23178682 23218596 23259250 
3107.506 23299906 23339974 23378364 23414172 23447358 23478556 23509334 
3110.881 23541306 23576182 23615362 23658818 23706264 23756448 23807968 
3114.256 23859456 23909482 23957378 24002546 24044464 24083548 24120008 
3117.632 24154826 24188212 24220686 24252042 24281616 24308596 24332040 
3121.007 24351806 24368170 24382716 24396980 24412962 24431960 24454814 
3124.382 24481350 24511042 24542842 24576080 24610232 24645126 24680862 
3127.757 24717478 24754730 24792124 24829066 24864604 24898114 24929450 
3131.133 24959280 24988058 25017328 25048288 25081706 25118108 25157254 
3134.508 25198898 25242440 25287534 25333966 25381736 25430778 25480740 
3137.883 25531022 25580818 25629250 25675718 25719978 25762164 25802776 
3141.258 25842722 25882320 25921922 25962302 26003916 26047856 26095390 
3144.634 26147468 26204762 26267202 26333806 26403060 26473312 26543152 
3148.009 26611594 26678390 26743366 26806764 26868410 26927808 26984642 
3151.384 27039012 27091450 27143154 27195678 27250638 27308960 27371030 
3154.759 27436178 27503210 27570498 27636912 27701360 27764014 27825372 
3158.135 27886562 27948786 28013280 28080398 28150144 28221562 28293772 
3161.510 28365850 28437374 28508664 28580918 28655312 28732796 28813694 
3164.885 28897474 28982864 29067990 29151678 29232900 29311444 29387310 
3168.260 29460742 29531700 29600190 29666102 29730000 29792948 29856438 
3171.635 29922032 29991116 30063938 30140220 30218538 30297580 30375926 
3175.011 30452794 30527544 30600136 30669966 30737428 30802372 30865334 
3178.386 30927524 30990112 31054276 31121156 31190394 31261638 31333856 
3181.761 31406156 31478432 31551328 31625554 31702142 31781778 31863992 
3185.136 31947900 32032360 32116264 32199256 32281410 32363004 32444798 
3188.512 32527212 32610282 32694406 32779760 32866846 32955848 33047366 
3191.887 33141266 33237654 33336136 33436756 33539366 33643612 33749100 
3195.262 33854468 33958504 34059376 34156252 34249068 34339284 34429192 
3198.637 34521492 34618220 34720032 34826432 34936012 35046840 35157704 
3202.013 35268480 35379144 35490556 35603044 35715880 35828528 35939876 
3205.388 36048876 36155344 36259428 36361552 36462192 36561444 36659568 
3208.763 36756992 36854152 36952304 37052392 37155280 37260688 37368032 
3212.138 37476056 37583856 37691096 37798404 37906680 38016968 38129672 
3215.514 38244364 38359624 38473652 38585280 38693784 38799456 38903232 
3218.889 39006200 39109268 39213152 39318152 39424736 39533348 39644484 
3222.264 39758524 39875568 39994752 40115200 40235504 40355004 40472936 
3225.639 40589520 40705116 40820228 40934976 41049316 41162556 41274332 
3229.015 41384204 41492068 41597584 41701044 41802852 41903152 42002636 
3232.390 42101960 42201748 42302176 42402920 42503432 42602688 42699884 
3235.765 42795088 42888740 42982016 43076184 43172316 43270732 43371560 
3239.140 43474196 43578292 43683804 43790700 43898716 44007456 44115456 
3242.516 44221540 44324564 44424640 44523016 44621964 44724824 44833776 
3245.891 44950212 45073552 45202112 45333104 45464388 45594208 45722224 
3249.266 45849284 45976340 46104432 46234628 46366960 46501840 46638796 
3252.641 46777228 46916668 47055928 47194608 47332296 47469140 47605804 
3256.017 47743476 47883152 48025648 48171008 48318852 48468716 48619556 
3259.392 48771228 48923176 49075324 49227492 49379076 49529640 49678996 
3262.767 49827508 49976332 50126728 50280232 50437992 50600052 50765680 
3266.142 50933672 51102968 51272472 51441972 51611236 51780680 51950524 
3269.518 52120776 52291800 52463644 52636484 52810408 52984964 53159476 
3272.893 53333124 53505300 53675748 53845624 54016052 54189216 54366392 
3276.268 54548408 54734788 54924784 55117344 55312284 55510288 55712184 
3279.643 55919188 56131912 56349264 56570308 56793016 57016364 57239904 
3283.019 57464548 57691612 57922844 58159240 58401296 58648988 58902060 
3286.394 59160176 59423192 59691124 59963288 60239204 60518188 60799868 
3289.769 61084396 61372852 61666472 61966472 62273452 62587268 62907404 
3293.144 63233024 63563764 63899936 64241976 64590320 64945140 65305792 
3296.520 65670916 66039504 66411220 66786432 67166408 67552488 67945576 
3299.895 68345808 68752576 69165016 69582360 70004960 70433712 70870136 
3303.270 71315944 71771944 72239024 72716952 73205328 73703832 74212184 
3306.645 74730072 75257320 75793776 76339496 76894848 77460496 78037112 
3310.021 78625136 79224616 79834400 80452936 81078904 81711256 82350136 
3313.396 82996648 83652296 84318544 84996568 85686592 86388512 87102424 
3316.771 87827560 88563912 89310344 90065600 90827528 91594096 92363880 
3320.146 93136664 93913504 94695768 95484688 96280096 97080064 97881344 
3323.521 98681360 99478360 100272640 101065664 101858792 102652672 103445176 
3326.897 104232224 105009136 105771760 106517088 107244584 107953912 
3329.790 108644952 109316312 109965136 110588136 111182968 111748304 
3332.683 112284480 112792584 113272200 113721560 114137336 114515600 
3335.576 114853408 115150016 115407696 115629384 115818432 115975456 
3338.469 116099416 116186648 116233032 116235064 116191160 116101840 
3341.362 115968224 115791272 115571440 115307136 114997000 114638592 
3344.255 114230864 113772968 113264320 112705376 112096576 111439336 
3347.148 110735832 109989680 109204664 108385040 107534032 106653632 
3350.041 105745048 104808912 103846384 102859160 101850544 100823536 
3352.934 99781392 98726944 97662016 96588936 95510408 94429984 93352200 
3356.310 92281704 91222352 90176792 89146192 88130856 87130688 86146264 
3359.685 85178384 84228624 83298400 82388472 81498544 80628152 79776064 
3363.060 78941744 78124920 77326224 76546296 75785648 75045024 74324504 
3366.435 73624456 72945320 72287592 71651688 71037592 70444352 69870208 
3369.811 69313152 68771096 68241888 67724160 67216840 66718580 66228024 
3373.186 65743648 65264008 64787752 64314628 63844660 63379036 62918700 
3376.561 62464284 62015772 61573180 61135772 60702840 60274300 59849792 
3379.936 59428628 59009996 58592752 58175224 57755680 57333360 56907756 
3383.312 56479432 56049304 55619040 55189540 54762076 54337480 53915992 
3386.687 53498104 53083876 52673404 52266760 51863784 51464540 51068904 
3390.062 50677012 50288784 49904364 49523812 49147448 48775640 48409036 
3393.437 48048076 47692552 47342052 46995264 46650564 46306648 45962640 
3396.813 45619012 45277276 44940000 44609588 44287728 43974420 43668488 
3400.188 43366948 43066600 42764704 42459624 42150956 41839776 41527792 
3403.563 41217420 40910584 40608948 40313556 40024320 39741020 39462184 
3406.938 39186244 38911604 38636924 38361796 38086664 37811852 37538912 
3410.313 37267836 36998700 36730884 36463668 36196724 35930912 35667532 
3413.689 35408552 35155724 34909656 34670072 34435508 34204112 33974164 
3417.064 33744516 33514704 33284944 33055876 32828000 32601960 32378216 
3420.439 32157864 31941518 31730588 31525352 31325664 31130588 30938518 
3423.814 30747848 30557118 30365942 30174456 29983412 29793480 29605264 
3427.190 29418580 29233290 29049000 28865674 28683132 28501622 28320966 
3430.565 28140918 27961330 27781712 27602626 27424956 27250250 27079988 
3433.940 26915328 26756368 26602646 26452676 26305044 26158624 26012816 
3437.315 25867586 25723282 25580256 25438576 25297928 25157606 25016836 
3440.691 24875062 24731964 24587792 24442826 24297628 24152794 24008534 
3444.066 23865022 23721558 23577370 23431972 23284664 23136114 22987544 
3447.441 22841158 22699180 22563326 22433862 22309740 22188790 22068014 
3450.816 21945252 21818968 21688958 21556344 21422516 21289180 21157628 
3454.192 21028514 20902564 20779818 20660996 20546030 20434808 20326150 
3457.567 20218492 20109888 19998538 19883330 19764544 19643054 19520660 
3460.942 19398720 19278994 19162246 19048850 18938844 18831978 18727802 
3464.317 18625622 18524540 18424136 18323516 18223264 18123966 18026868 
3467.693 17932830 17842058 17753274 17664816 17574204 17479782 17380792 
3471.068 17278308 17174160 17070314 16968524 16869202 16771318 16673248 
3474.443 16573546 16471289 16366955 16261753 16157228 16055241 15956920 
3477.818 15862642 15772335 15685312 15600331 15515815 15429769 15340926 
3481.194 15247983 15151765 15053821 14957029 14864751 14779520 14702223 
3484.569 14632205 14567098 14503508 14439174 14372144 14301836 14229315 
3487.944 14155436 14080989 14005835 13929360 13851051 13770465 13688013 
3491.319 13605303 13523976 13445844 13372235 13303763 13240222 13180685 
3494.695 13124093 13069047 13014655 12960407 12906234 12853023 12802071 
3498.070 12754810 12712262 12674290 12639323 12605144 12568341 12525982 
3501.445 12476807 12420888 12360407 12298844 12240526 12188453 12144838 
3504.820 12109913 12082623 12060445 12040652 12020111 11997153 11970551 
3508.196 11940784 11909520 11879859 11854320 11835320 11823777 11819044 
3511.571 11818568 11820339 11821359 11820713 11818295 11814550 11810192 
3514.946 11805561 11799773 11791943 11780879 11766545 11749626 11732026 
3518.321 11715959 11702956 11693255 11685733 11678278 11667931 11652547 
3521.697 11630391 11600136 11561785 11515645 11462502 11403481 11340183 
3525.072 11274003 11206406 11138139 11069441 10999360 10927184 10851657 
3528.447 10772339 10689571 10604138 10517702 10431622 10347392 10265995 
3531.822 10188276 10114471 10044002 9976121 9908352 9838222 9762680 9679901 
3535.680 9589043 9491666 9390756 9289972 9192900 9101974 9017731 8940100 
3539.537 8867792 8799621 8734977 8673317 8613930 8555768 8497174 8436223 
3543.395 8371160 8301109 8226205 8148007 8068370 7989424 7912651 7839232 
3547.252 7769502 7703898 7642317 7585060 7531385 7480548 7431233 7381756 
3551.109 7330667 7276686 7219679 7159312 7096427 7031867 6966341 6901262 
3554.967 6838212 6779076 6725669 6678526 6637410 6600000 6563265 6523438 
3558.824 6478066 6426243 6368844 6308998 6249967 6194776 6145540 6102660 
3562.682 6064892 6030084 5994842 5955269 5906867 5845238 5767164 5671480 
3566.539 5560547 5440751 5321256 5211150 5118069 5044820 4990652 4951171 
3570.396 4920541 4893129 4863843 4829231 4787252 4737204 4680128 4617601 
3574.254 4552739 4489427 4431179 4380703 4338667 4303629 4271839 4238981 
3578.111 4201408 4157014 4106771 4053156 4000082 3950860 3907595 3870987 
3581.969 3840366 3814326 3791229 3769537 3747512 3722580 3691568 3651002 
3585.826 3597777 3530963 3452670 3367846 3283840 3208428 3146547 3101059 
3589.684 3070392 3051505 3039827 3030884 3020775 3005961 2983807 2952848 
3593.541 2912718 2864486 2810591 2754835 2701553 2654845 2617309 2590309 
3597.398 2573043 2562710 2555444 2546812 2532881 2511185 2481293 2445537 
3601.256 2408153 2374869 2350516 2338223 2338290 2348384 2363442 2377468 
3605.113 2384764 2380400 2361476 2326631 2277132 2215749 2147216 2077162 
3608.971 2011380 1954628 1909332 1875054 1848600 1825474 1800719 1771108 
3612.828 1735877 1697356 1659337 1626710 1601733 1584773 1573001 1562060 
3616.686 1547163 1524519 1492300 1451241 1404069 1355107 1308610 1268233 
3620.543 1236465 1214103 1200912 1196260 1198619 1206593 1219087 1235302 
3624.400 1254309 1274978 1295217 1310970 1316187 1303558 1265807 1199383 
3628.258 1107591 1002666 901949 823398 776228 760096 766735 784693 803414 
3632.597 814900 816029 807298 792460 775697 760561 748811 740248 733776 
3636.937 728565 724416 721794 721297 723089 726142 728831 729163 725943 
3641.277 718741 708552 697567 688042 682003 680509 683330 689171 695642 
3645.616 699724 697932 686815 663950 628045 579503 520682 455533 389698 
3649.956 328681 278945 245393 230508 234121 253251 282029 312566 336606 
3654.295 346952 338629 311107 269297 222717 181711 154697 145051 150852 
3658.635 166861 187148 206772 222784 233856 240221 241979 239459 232663 
3662.975 222121 209258 196728 187844 186452 194175 210518 232928 256367 
3667.314 273640 278614 265451 231701 179789 118205 59744 17826 2683 16865 
3672.136 55635 108196 159403 194573 199313 165867 96165 4241 -89287 -165737 
3676.958 -215152 -238665 -243764 -239625 -233167 -227637 -222570 -216079 
3680.815 -206210 -192532 -176502 -160041 -144307 -129104 -112475 -92036 
3684.673 -66461 -36744 -6924 16931 28197 21206 -6063 -51454 -108401 -169149 
3689.494 -225915 -274097 -311745 -338497 -354588 -360911 -358594 -349589 
3693.352 -337272 -325420 -317076 -314593 -317606 -324526 -331313 -334326 
3697.209 -331015 -320519 -304428 -285885 -268832 -256977 -252937 -258004 
3701.067 -271713 -291382 -313368 -333432 -347768 -353859 -350615 -338597 
3704.924 -319923 -297276 -273104 -249891 -229127 -211641 -197930 -188922 
3708.781 -185709 -190180 -204355 -229558 -264693 -306646 -349324 -385575 
3712.639 -409178 -416295 -406894 -384019 -353032 -319162 -287508 -261282 
3716.496 -241811 -228763 -220550 -215052 -210449 -205912 -201342 -197301 
3720.354 -194453 -193029 -192598 -192499 -191671 -190081 -188094 -187531 
3724.211 -190213 -198228 -212668 -233134 -257375 -281647 -301117 -311447 
3728.069 -310222 -297342 -275124 -248434 -223034 -204355 -196076 -198858 
3731.926 -210548 -225915 -240155 -250553 -257805 -264825 -275753 -292574 
3735.783 -313831 -334624 -348595 -350880 -340616 -319692 -292011 -261216 
3739.641 -229756 -197831 -165274 -132814 -103730 -84284 -83489 -109427 
3743.498 -164644 -241281 -320884 -379517 -400571 -381337 -332041 -268402 
3747.356 -206574 -160272 -138047 -142519 -170540 -214920 -266349 -316314 
3751.213 -359554 -392163 -411230 -414607 -401498 -372995 -333432 -288733 
3755.071 -245486 -209058 -183126 -168487 -164148 -167824 -176833 -189386 
3758.928 -203792 -217801 -228366 -231710 -224524 -205680 -177628 -145202 
3762.785 -115224 -94322 -86305 -91473 -106479 -124963 -140863 -149971 
3766.643 -152091 -150005 -148315 -150733 -159378 -173753 -191373 -208131 
3770.500 -220848 -227836 -228730 -225087 -218265 -209985 -201408 -192532 
3774.358 -182960 -171964 -158351 -141823 -123340 -105287 -91307 -85212 
3778.215 -89717 -105088 -128176 -152952 -172560 -181934 -179615 -167493 
3782.073 -150005 -132681 -119663 -112939 -111912 -114297 -117411 -119365 
3785.930 -119564 -119067 -118603 -118968 -119663 -119663 -118139 -114297 
3789.787 -108699 -101875 -94222 -85775 -75903 -64076 -50460 -36810 -25976 
3794.127 -21602 -26141 -40487 -62287 -86404 -105949 -115788 -113005 -99191 
3798.467 -79348 -61393 -53541 -62651 -91506 -137583 -191141 -238433 -266746 
3802.806 -269196 -246215 -205283 -157291 -114827 -88425 -84682 -104260 
3806.664 -140863 -182463 -215847 -231876 -227935 -206939 -175111 -138246 
3810.521 -100947 -64440 -28726 6925 41883 73530 96762 106108 97159 69255 
3815.343 27966 -15904 -48936 -61194 -48803 -16367 26706 67300 93315 94972 
3820.165 68095 16235 -49168 -111349 -155635 -173819 -166267 -139339 -102769 
3824.504 -65699 -34723 -12855 728 9542 18290 30318 46622 65610 83572 96795 
3829.808 102296 99015 88344 73431 58618 47848 44401 49637 63191 82909 104815 
3835.112 124303 135937 135473 120657 92851 56464 18522 -13617 -35054 -43966 
3839.934 -43005 -35783 -27268 -21271 -19979 -23557 -31277 -41018 -50957 
3844.273 -58808 -63148 -62188 -55429 -42707 -24551 -1491 25149 55536 89504 
3849.095 126955 167392 208496 245194 269728 272314 243437 178794 83505 
3853.435 -25876 -126354 -197864 -231313 -229591 -202070 -160504 -113767 
3857.292 -67985 -25843 12060 45992 75883 101501 122082 136633 145018 147537 
3862.114 144720 136997 124668 107964 87913 67698 51891 45396 51427 69653 
3866.936 95701 121585 138290 137760 116282 76712 28893 -14015 -41349 -48505 
3871.758 -38466 -18852 728 13121 15573 9774 1689 -2120 4108 21935 49538 
3877.062 82279 114791 141903 159834 166563 162917 151813 137925 126656 
3881.401 122414 127054 139748 156586 171867 178695 172132 150255 116746 
3885.741 79727 50134 36415 42181 65013 97391 129871 153901 162685 154498 
3890.563 132059 102561 74392 55735 51128 61368 84334 116614 154034 193512 
3895.384 232066 267208 296750 318468 330936 333257 326194 311140 290881 
3899.724 268402 246255 226231 208098 191291 173955 154862 133152 109654 
3904.063 86389 66405 52951 48212 53017 66273 85626 107765 129540 149128 
3908.885 166000 180684 194639 209590 226729 246056 266877 287765 307261 
3913.225 324271 338032 348345 354645 356569 353883 346753 336009 323210 
3917.564 310742 300132 292937 289721 290682 295556 304177 316247 331135 
3921.904 347516 363367 375803 382336 381275 372851 358757 342708 328747 
3926.244 319363 316247 318899 326095 336042 347350 359056 370364 380014 
3930.583 386481 387907 382833 371326 354811 336507 319562 306995 299303 
3934.923 296120 294926 293932 291743 288991 287101 288560 294661 305702 
3939.262 319861 334849 347881 356834 360880 360449 356967 352424 348113 
3943.602 345261 344399 345725 348710 352954 357000 360117 361012 359321 
3947.942 355110 349771 344531 341248 340552 342840 347483 353551 360183 
3952.281 366749 372619 377494 380545 380877 377593 370497 359984 347814 
3956.621 336175 327388 323177 323972 328946 336739 345261 353186 359421 
3960.960 363566 365522 365323 363367 360316 357099 354844 354811 357597 
3965.300 363135 370265 378025 384657 389532 393213 396862 402102 410061 
3969.640 420807 433112 444753 453709 458187 457855 453278 446180 438584 
3973.979 432150 428402 428070 431586 438617 448999 461470 474805 487841 
3978.319 499086 507744 513417 516800 518393 519454 520449 521876 523667 
3982.658 525757 527715 529771 531496 533022 533951 533951 532658 529937 
3986.998 525658 520582 514909 509370 504460 500413 497228 495039 493911 
3991.338 494011 495371 498058 501640 505687 509270 512156 513383 512853 
3995.677 510033 505289 498489 490495 482102 474141 467872 463660 461736 
4000.017 461636 463029 
##END=
