
##TITLE=1731a_1_b
##JCAMP-DX=5.01  $$ Nicolet v. 1
##DATATYPE=INFRARED SPECTRUM
##ORIGIN=UniL
##OWNER=Nicolet
##LONGDATE=2011/09/22
##TIME=09:57:51
##SPECTROMETER/DATA SYSTEM=Nicolet iS5
##DATA PROCESSING=
Ratio against background
%Transmittance->Absorbance
Truncated
ElementMultiply or ElementDivide
##COMMENTS=
Number of sample scans: 32
Collection length: 51.18 sec
Sample gain: 2.0
Background collected on: Jeu Sep 22 09:51:51 2011 (GMT+02:00);
Number of background scans: 32
Background gain: 2.0
Sample spacing:  1.000
Number of scan points: 12415
Resolution points: 8192
Number of FFT points: 65536
Apodization: N-B fort;
Phase correction: Mertz;
Laser frequency: 15798.0 cm-1
Number of rejected sample scans: 0
Number of rejected background scans: 0
Bench serial number: ASB1000141;
##RESOLUTION=4.000
##XUNITS=1/CM
##YUNITS=ABSORBANCE
##FIRSTX=649.893372
##LASTX=4000.122314
##FIRSTY=0.104519
##MAXX=4000.122314
##MINX=649.893372
##MAXY=0.261434
##MINY=-0.001060
##XFACTOR=1.000000
##YFACTOR=1.000000E-009
##NPOINTS=6950
##DELTAX=0.482117
##ZPD=6100
##XYDATA=(X++(Y..Y))
649.893 104518744 104097032 103705136 103347512 103015680 102696520 
652.786 102379408 102067392 101778200 101537056 101362448 101259152 
655.679 101211792 101193520 101175776 101139352 101080008 101005240 
658.571 100923600 100837952 100740584 100617920 100458384 100260160 
661.464 100034248 99801656 99586776 99408496 99273792 99178440 99108296 
664.839 99041656 98948472 98791872 98524984 98100824 97496256 96739696 
668.214 95920976 95151880 94517376 94040904 93693904 93417560 93145896 
671.589 92826408 92426184 91938976 91383160 90791008 90192536 89604488 
674.963 89029080 88458408 87885808 87312912 86751008 86217712 85727728 
678.338 85284984 84883024 84505584 84135232 83759048 83373512 82981936 
681.713 82593160 82216216 81857328 81521088 81212232 80934440 80692464 
685.088 80487232 80313904 80160576 80010720 79847496 79658824 79441904 
688.463 79202944 78954216 78708416 78473624 78253408 78046432 77851040 
691.838 77668024 77501960 77359008 77244472 77159928 77103064 77069664 
695.212 77057120 77066456 77101832 77168120 77264896 77383552 77508096 
698.587 77616168 77687488 77710112 77682728 77614504 77520104 77414520 
701.962 77307848 77204176 77103976 77006912 76914672 76831176 76760632 
705.337 76704640 76660376 76620448 76575544 76517960 76444072 76355968 
708.712 76260584 76168136 76092336 76050288 76061616 76150568 76339184 
712.086 76641552 77056096 77559120 78103816 78622752 79047336 79317672 
715.461 79396192 79276632 78978776 78542304 78012680 77441720 76884208 
718.836 76399704 76060904 75946440 76123680 76633016 77457368 78510664 
722.211 79627704 80596080 81199408 81249736 80650496 79412896 77658400 
725.586 75577752 73393928 71314304 69475728 67946624 66726192 65770520 
728.961 65016368 64405268 63897400 63468688 63106716 62802708 62546132 
732.335 62324548 62126436 61943964 61773984 61617244 61474340 61343812 
735.710 61220456 61097896 60971140 60838820 60704628 60575320 60457328 
739.085 60354896 60268244 60194292 60128720 60068900 60014224 59966864 
742.460 59930272 59907944 59902316 59914412 59943888 59988204 60043636 
745.835 60103524 60158972 60200416 60218040 60205252 60160036 60085716 
749.209 59989384 59881016 59770356 59665844 59572872 59495500 59436076 
752.584 59395916 59375136 59372440 59384712 59408036 59438772 59474752 
755.959 59516172 59564740 59623424 59694812 59779520 59877252 59986876 
759.334 60107980 60240956 60387104 60548508 60726964 60924208 61142600 
762.709 61385676 61659060 61971632 62337588 62777020 63322068 64018176 
766.083 64919092 66083900 67555160 69337016 71368472 73510704 75558192 
769.458 77244824 78314800 78575784 77942104 76472040 74354816 71879456 
772.833 69341136 66999012 65024720 63475892 62319536 61460068 60789120 
776.208 60208564 59656532 59110400 58573372 58060984 57586764 57156564 
779.583 56767448 56411056 56077088 55756112 55440900 55126788 54811960 
782.958 54498784 54194848 53911416 53662212 53460552 53315740 53232544 
786.332 53212320 53254716 53360468 53532884 53776504 54096324 54495668 
789.707 54975208 55534048 56172328 56893060 57704704 58620548 59657632 
793.082 60835272 62171316 63681380 65379084 67275528 69381288 71708312 
796.457 74270128 77084704 80176472 83575968 87324056 91471256 96070296 
799.832 101170672 106797376 112929640 119465648 126197664 132815896 
802.724 138880192 143891504 147372944 148922208 148340816 145677008 
805.617 141244672 135542992 129161832 122676984 116491312 110808744 
808.510 105618720 100755336 95977504 91068592 85923656 80567872 75149880 
811.885 69873712 64959416 60576656 56813936 53689584 51159472 49148120 
815.259 47564660 46325744 45362380 44615720 44041196 43604668 43280032 
818.634 43050868 42907728 42844564 42856232 42935488 43073476 43261220 
822.009 43492400 43764784 44080032 44441600 44852440 45312764 45821516 
825.384 46377616 46982416 47640892 48360444 49148228 50010160 50949284 
828.759 51968564 53075000 54283744 55622504 57134376 58873184 60902476 
832.133 63288756 66083328 69308912 72931328 76844624 80839760 84605424 
835.508 87777872 89949136 90769816 90034576 87718912 84009088 79246688 
838.883 73887424 68380632 63100740 58330652 54218760 50807988 48063140 
842.258 45905808 44239256 42965956 42003548 41280892 40738232 40331480 
845.633 40026796 39801916 39644848 39548264 39506020 39510808 39552908 
849.008 39623176 39715748 39829624 39968336 40137116 40339408 40574676 
852.382 40838576 41124964 41430312 41755432 42106488 42492032 42920928 
855.757 43400152 43933760 44525512 45181560 45911812 46731880 47662708 
859.132 48728080 49957560 51386096 53052272 55000556 57268824 59875768 
862.507 62801064 65969260 69241872 72406768 75217960 77420776 78785400 
865.882 79167832 78523728 76925464 74538960 71606952 68408480 65194936 
869.256 62186344 59538400 57332380 55595652 54309504 53430312 52899396 
872.631 52656684 52646808 52814300 53107724 53479628 53884484 54287648 
876.006 54668120 55022556 55365652 55727064 56144920 56652220 57269240 
879.381 57992476 58791116 59604380 60348196 60934808 61279824 61324388 
882.756 61050800 60485280 59696636 58776816 57832176 56956524 56216416 
886.131 55652448 55274876 55074424 55030192 55119636 55321692 55617720 
889.505 55991816 56428452 56912136 57431076 57976420 58544748 59136560 
892.880 59754652 60401236 61076464 61778912 62506868 63259624 64037532 
896.255 64839528 65660848 66488408 67301248 68073768 68777344 69389344 
899.630 69895312 70290528 70578616 70768888 70873728 70906576 70883560 
903.005 70823912 70748728 70682672 70650856 70675496 70777736 70976176 
906.379 71286112 71723824 72303592 73037120 73933304 74995680 76223896 
909.754 77614976 79166240 80877880 82752680 84795016 87008160 89392112 
913.129 91943768 94659304 97538480 100589352 103830608 107290640 111000408 
916.504 114988240 119268728 123833952 128640560 133600160 138576832 
919.397 143364432 147702160 151300032 153847072 155092192 154896192 
922.289 153280480 150452208 146794096 142845040 139178784 136366384 
925.182 134897952 135074144 136990624 140486368 145177888 150454928 
928.075 155570352 159806400 162517120 163290960 162008000 158813392 
930.967 154049344 148128032 141471360 134413472 127188208 119962216 
933.860 112848864 105946208 99363296 93210416 87598904 82630992 78378288 
937.235 74886624 72175792 70242576 69065672 68603312 68791048 69526856 
940.610 70666336 72036656 73426808 74623592 75444960 75746912 75458208 
943.985 74583656 73200032 71436072 69446448 67395624 65419568 63619384 
947.359 62057132 60754132 59703896 58881948 58258880 57805300 57494996 
950.734 57306896 57220852 57217112 57278200 57387624 57534144 57712272 
954.109 57921180 58162764 58438484 58748176 59089444 59458872 59853368 
957.484 60271672 60713964 61180248 61668800 62176440 62698536 63231296 
960.859 63773236 64325496 64891152 65471880 66067048 66672756 67282840 
964.233 67891568 68496968 69101256 69709976 70329288 70963848 71614600 
967.608 72279800 72957192 73646080 74348880 75070160 75815240 76587368 
970.983 77387472 78214688 79068560 79951048 80867056 81823456 82826696 
974.358 83880256 84983392 86132888 87325064 88558512 89834336 91155520 
977.733 92523096 93934768 95383232 96856960 98344184 99834640 101320776 
981.108 102796600 104255640 105688152 107082584 108426088 109708616 
984.000 110925936 112078648 113169680 114198968 115160808 116042408 
986.893 116827576 117501240 118055136 118490712 118819432 119059384 
989.786 119231968 119361528 119472504 119589960 119740712 119948720 
992.678 120232696 120603280 121060864 121596784 122197504 122850496 
995.571 123546688 124281944 125055168 125863760 126701328 127557576 
998.464 128419800 129277304 130124568 130961312 131789520 132610368 
1001.356 133420632 134212432 134976432 135704816 136396192 137055168 
1004.249 137692496 138320704 138952736 139602128 140283856 141016752 
1007.142 141825376 142735072 143770384 144948864 146277232 147752304 
1010.035 149362688 151093616 152928352 154847152 156826896 158834208 
1012.927 160828576 162767392 164610880 166334064 167931904 169419280 
1015.820 170823136 172173728 173496880 174808160 176114880 177422016 
1018.713 178736704 180073632 181456160 182912416 184476512 186187200 
1021.605 188084256 190212672 192617792 195336768 198396464 201803760 
1024.498 205545808 209589824 213892528 218408304 223087408 227879664 
1027.391 232726272 237546512 242242656 246696656 250774896 254351680 
1030.284 257307408 259532752 260936224 261434432 260958992 259470608 
1033.177 256967776 253499664 249161632 244094592 238464160 232438384 
1036.070 226195136 219904880 213727952 207830816 202365584 197466080 
1038.963 193250960 189802992 187172336 185375760 184392400 184160480 
1041.856 184564576 185440704 186556272 187615424 188307936 188314224 
1044.750 187369456 185322304 182144976 177948144 172941984 167415968 
1047.643 161675232 155990448 150598416 145662768 141277008 137479360 
1050.536 134256352 131561176 129324240 127472248 125934168 124647128 
1053.429 123563776 122646000 121860688 121178576 120566496 119988776 
1056.322 119411864 118803960 118139720 117402496 116580528 115668256 
1059.215 114665296 113577952 112421472 111220120 110009872 108831800 
1062.108 107727952 106738904 105896264 105223296 104734944 104436600 
1065.001 104323848 104378616 104568448 104841304 105127936 105354320 
1067.894 105444368 105335992 104993392 104407736 103598032 102602184 
1070.787 101472304 100262504 99020136 97786216 96588032 95439856 94345032 
1074.162 93296904 92284376 91295248 90322528 89367080 88438464 87552488 
1077.538 86728472 85984640 85333776 84783208 84333792 83981992 83719304 
1080.913 83533480 83408240 83322608 83253040 83178920 83084472 82965208 
1084.288 82829824 82699936 82605064 82577688 82650632 82850352 83197344 
1087.663 83707128 84388352 85244464 86271656 87459592 88790192 90240656 
1091.039 91788768 93414888 95104320 96846192 98626600 100422552 102198552 
1094.414 103902072 105471992 106851192 107994696 108887360 109549152 
1097.307 110039752 110446248 110870328 111412320 112138360 113066624 
1100.200 114147768 115272488 116272736 116948920 117121496 116648320 
1103.093 115464448 113592936 111139656 108271344 105173104 102039728 
1105.986 99035952 96280752 93854440 91791344 90090224 88723976 87649856 
1109.361 86817688 86173496 85669160 85261480 84912360 84590608 84267488 
1112.737 83915664 83512360 83037768 82479688 81835176 81111336 80323032 
1116.112 79489376 78631408 77768680 76916688 76089296 75297392 74549152 
1119.487 73850352 73203168 72605328 72050928 71532280 71041920 70574408 
1122.862 70126360 69695080 69274400 68853352 68413760 67932360 67387184 
1126.238 66761076 66048608 65257892 64411148 63540632 62680356 61864524 
1129.613 61119028 60458428 59886532 59396220 58972644 58594724 58241112 
1132.988 57892328 57534068 57160720 56775680 56391100 56023820 55693276 
1136.363 55417596 55209480 55076192 55018268 55030492 55102444 55219524 
1139.739 55365240 55520644 55667624 55791296 55880488 55929552 55937656 
1143.114 55907280 55842844 55748728 55629548 55490032 55336032 55175128 
1146.489 55015712 54866584 54735356 54627500 54546532 54494880 54474480 
1149.864 54487892 54537968 54626824 54754824 54919408 55116176 55339116 
1153.240 55582812 55844008 56120636 56412264 56718136 57035936 57362176 
1156.615 57691988 58020540 58343576 58657144 58957048 59238248 59493980 
1159.990 59716212 59897712 60032296 60115740 60146032 60121184 60038804 
1163.365 59895164 59685500 59405680 59053532 58629536 58137040 57581204 
1166.740 56968648 56306032 55600924 54862520 54101840 53332036 52568380 
1170.116 51825068 51114780 50447740 49830556 49267980 48764000 48323000 
1173.491 47950232 47651876 47432920 47297564 47248464 47287548 47417248 
1176.866 47641748 47966884 48400928 48952436 49630184 50442716 51398480 
1180.241 52506716 53778452 55225204 56858728 58690028 60726656 62972860 
1183.617 65427384 68082368 70917336 73893592 76952992 80005544 82934160 
1186.992 85609072 87884720 89627304 90732128 91127368 90790320 89746248 
1190.367 88067304 85858320 83244496 80363696 77339920 74282040 71280376 
1193.742 68397504 65678580 63153312 60837676 58740172 56862884 55202140 
1197.118 53749804 52492844 51414744 50494560 49709720 49037896 48455972 
1200.493 47943240 47481412 47054300 46649196 46257516 45874876 45501772 
1203.868 45142260 44802624 44488656 44204224 43949896 43723448 43521044 
1207.243 43338828 43174288 43026608 42896496 42784812 42692244 42619720 
1210.619 42568772 42542896 42548308 42592896 42685956 42836008 43049256 
1213.994 43329344 43677392 44092388 44572064 45112884 45709300 46352912 
1217.369 47033404 47738632 48456344 49177244 49895036 50607052 51314160 
1220.744 52018836 52725288 53439156 54168084 54922152 55712148 56549852 
1224.120 57443556 58397204 59407960 60466924 61559440 62665888 63764872 
1227.495 64833300 65847284 66787124 67638784 68398904 69077368 69699200 
1230.870 70303424 70934432 71642272 72475080 73472712 74671272 76100584 
1234.245 77784496 79744736 81998304 84556584 87424336 90598584 94069544 
1237.621 97819128 101823152 106048936 110449752 114969800 119540568 
1240.514 124085336 128534344 132826384 136916944 140779984 144400224 
1243.407 147765664 150859680 153653408 156102640 158150464 159722496 
1246.300 160734576 161101872 160739568 159582176 157594048 154773648 
1249.193 151155696 146803024 141799152 136232912 130197224 123791832 
1252.086 117116552 110282120 103408216 96608600 89997720 83679568 77734520 
1255.461 72228808 67204968 62680812 58654720 55105796 52000200 49293108 
1258.836 46935564 44879000 43073952 41477008 40051356 38765908 37598812 
1262.212 36535532 35566144 34684608 33885816 33164084 32513500 31927966 
1265.587 31401560 30929694 30507496 30130204 29792486 29488328 29212558 
1268.962 28962392 28737894 28542136 28380422 28258372 28180830 28150992 
1272.337 28171428 28245536 28378548 28579010 28856468 29220498 29677204 
1275.713 30225818 30856156 31545270 32260674 32956562 33578884 34075324 
1279.088 34396804 34509976 34403764 34090736 33605376 32994274 32311712 
1282.463 31605880 30912758 30257470 29651874 29100266 28603428 28161598 
1285.838 27774930 27444014 27167916 26944308 26770042 26642384 26559988 
1289.214 26522792 26530754 26582568 26674586 26801302 26956258 27134620 
1292.589 27333448 27552278 27790894 28048164 28320860 28604560 28895704 
1295.964 29193882 29503578 29833902 30197864 30609096 31080542 31624590 
1299.339 32251396 32969788 33784732 34693796 35681740 36716860 37753040 
1302.715 38728308 39575884 40237684 40667052 40840652 40760212 40451224 
1306.090 39957404 39332700 38638840 37932748 37263436 36669696 36174248 
1309.465 35785528 35499224 35302840 35179656 35113296 35091456 35105072 
1312.840 35147428 35212388 35292564 35379400 35465784 35546184 35618684 
1316.216 35683716 35742676 35795568 35840584 35873580 35891108 35891896 
1319.591 35878332 35855516 35829788 35805860 35785096 35765740 35743796 
1322.966 35715732 35680016 35638000 35593260 35551328 35519504 35506164 
1326.341 35522524 35582328 35699292 35886716 36152356 36496428 36911540 
1329.717 37384572 37901148 38448164 39016676 39601180 40196284 40794860 
1333.092 41385956 41954752 42486660 42968848 43393268 43757124 44061984 
1336.467 44311720 44510940 44665296 44781684 44869156 44939704 45006992 
1339.842 45082668 45176080 45292060 45432052 45597372 45791844 46023084 
1343.218 46302964 46644988 47062796 47568092 48169708 48874264 49685384 
1346.593 50601056 51609372 52681072 53770316 54808236 55711132 56396908 
1349.968 56788444 56833084 56511016 55836928 54859968 53652836 52309480 
1353.343 50925700 49589100 48377260 47343232 46517332 45907060 45500520 
1356.719 45272752 45192076 45229216 45357932 45556416 45808484 46099788 
1360.094 46419240 46761212 47127864 47530612 47988048 48522180 49147712 
1363.469 49864560 50652960 51473604 52273416 52985824 53542740 53877996 
1366.844 53931640 53665776 53070584 52172556 51028724 49721236 48341888 
1370.219 46969084 45665092 44467844 43391036 42434816 41593608 40865368 
1373.595 40255064 39773224 39428476 39220876 39138020 39158904 39259464 
1376.970 39422596 39643180 39929832 40303560 40794788 41444276 42297208 
1380.345 43405756 44822900 46586044 48699984 51110868 53701544 56277892 
1383.720 58592260 60392820 61429492 61510456 60539784 58547588 55712184 
1387.096 52326784 48763780 45360064 42351232 39857880 37887444 36379892 
1390.471 35243400 34387660 33733884 33218232 32796126 32434944 32114338 
1393.846 31826340 31572420 31360426 31198510 31090402 31032674 31016304 
1397.221 31029684 31063174 31113040 31182526 31281080 31421042 31613722 
1400.597 31864990 32173746 32532782 32931074 33355206 33791036 34227412 
1403.972 34655324 35068180 35461220 35830040 36170468 36480212 36760996 
1407.347 37020384 37271376 37531072 37816152 38138284 38502648 38906932 
1410.722 39344704 39808888 40296180 40807312 41346192 41916472 42519292 
1414.098 43153432 43817228 44512004 45244844 46029204 46884296 47830916 
1417.473 48885168 50051764 51315016 52634728 53949384 55188296 56288340 
1420.848 57200180 57895472 58367868 58634088 58738540 58752044 58770480 
1424.223 58887416 59173728 59663484 60349604 61200736 62178772 63256748 
1427.599 64419456 65660156 66974848 68356664 69799352 71303488 72884528 
1430.974 74572128 76398080 78386272 80539800 82842576 85263336 87774752 
1434.349 90366256 93042568 95822304 98718792 101725096 104799424 107881056 
1437.724 110914984 113863872 116707784 119425128 121981168 124307664 
1440.617 126303744 127857520 128846112 129159104 128718448 127477672 
1443.510 125439080 122656992 119249192 115384528 111255776 107077664 
1446.404 103043024 99308656 95992632 93152472 90783336 88818360 87155952 
1449.779 85683048 84307112 82984904 81729008 80603016 79689320 79063280 
1453.154 78756280 78743208 78942496 79231296 79475640 79541776 79346032 
1456.529 78893424 78297768 77739360 77386600 77353616 77680912 78364832 
1459.905 79382544 80699408 82268712 84020712 85869104 87697144 89358288 
1463.280 90702560 91584200 91907408 91661160 90930128 89868280 88640176 
1466.655 87396336 86243208 85243256 84431128 83812168 83364032 83032960 
1470.030 82736088 82371880 81833608 81051704 80026176 78847608 77666840 
1473.406 76645944 75904336 75492192 75410744 75636152 76140456 76897536 
1476.781 77878352 79045464 80344280 81705896 83059912 84333664 85469592 
1480.156 86433752 87218488 87846992 88366088 88842432 89346728 89951136 
1483.531 90733064 91768544 93134288 94896952 97093320 99709112 102654304 
1486.906 105768848 108806384 111454664 113388416 114278968 113870112 
1489.800 112048328 108875440 104595080 99555816 94137200 88644528 83268216 
1493.175 78115168 73217528 68583600 64243548 60258732 56728556 53769300 
1496.550 51473452 49880948 48969796 48679524 48931336 49649648 50772192 
1499.925 52240752 53995380 55974708 58105184 60307036 62501744 64591660 
1503.301 66463380 67978240 68940920 69111632 68234208 66118048 62773192 
1506.676 58491024 53776200 49116136 44814820 40961848 37510628 34377116 
1510.051 31496674 28839152 26409784 24229058 22309460 20649738 19230330 
1513.426 18022136 16994364 16119815 15374978 14735813 14178235 13682064 
1516.802 13234995 12838586 12503338 12240731 12052098 11923789 11826740 
1520.177 11728077 11603539 11453555 11305256 11199300 11165268 11205760 
1523.552 11300053 11416067 11527452 11620895 11702207 11789322 11902777 
1526.927 12052303 12232483 12427195 12620664 12806234 12988981 13181812 
1530.302 13396975 13638707 13899868 14165056 14417492 14650368 14872259 
1533.678 15105689 15372643 15684109 16033305 16402740 16770422 17119080 
1537.053 17441184 17735532 18006182 18256402 18484396 18682036 18841286 
1540.428 18963590 19062214 19155978 19258488 19368820 19472734 19548388 
1543.803 19578856 19559582 19503888 19436764 19386108 19369824 19389052 
1547.179 19432538 19483302 19529464 19569322 19613138 19677132 19775986 
1550.554 19913854 20084382 20274210 20472076 20674272 20885528 21115744 
1553.929 21374134 21662454 21973514 22293066 22604580 22894454 23150932 
1557.304 23363154 23521682 23622500 23676172 23709168 23758898 23852736 
1560.680 23996944 24181100 24383488 24580500 24747924 24868642 24936048 
1564.055 24956016 24945628 24926574 24916922 24921906 24933942 24936398 
1567.430 24911062 24845098 24736454 24594768 24439986 24295350 24178402 
1570.805 24099308 24060188 24057526 24084772 24131604 24183902 24220790 
1574.181 24219004 24158084 24029896 23848186 23647690 23472436 23352420 
1577.556 23292286 23273022 23265962 23242226 23181268 23073808 22919148 
1580.931 22722538 22489796 22225546 21932252 21612688 21272688 20922210 
1584.306 20572780 20234842 19913124 19605960 19307260 19011428 18717354 
1587.682 18430532 18160102 17915704 17702848 17522074 17370344 17245106 
1591.057 17146862 17079756 17048190 17052600 17086338 17135728 17184984 
1594.432 17221010 17238246 17240382 17237178 17240108 17256932 17291996 
1597.807 17346962 17425318 17535598 17690906 17907106 18198386 18573366 
1601.183 19034102 19577850 20199852 20893630 21649114 22450400 23270228 
1604.558 24069120 24801174 25415496 25865336 26117910 26156230 25983654 
1607.933 25621658 25106488 24480334 23784026 23056896 22333250 21642148 
1611.308 21009142 20450160 19970330 19562530 19210140 18890494 18579316 
1614.684 18256886 17910490 17539152 17155652 16785368 16459450 16203590 
1618.059 16032344 15945885 15933545 15977545 16056616 16151246 16245311 
1621.434 16331863 16414853 16509250 16634068 16804690 17026170 17292238 
1624.809 17590110 17907762 18239054 18582808 18939984 19309684 19684690 
1628.185 20052352 20399524 20716772 21002708 21262736 21505232 21736018 
1631.560 21955288 22155038 22322122 22440562 22494890 22473570 22373156 
1634.935 22201692 21978256 21729958 21483994 21257236 21054598 20869956 
1638.310 20691056 20502816 20290980 20046628 19768566 19464694 19149396 
1641.686 18839554 18547500 18276168 18019132 17761248 17484126 17169540 
1645.061 16806550 16395926 15952898 15505066 15085585 14724399 14439208 
1648.436 14234177 14101525 14025991 13985988 13953208 13893916 13766395 
1651.811 13531292 13172180 12721986 12264657 11889054 11640941 11508603 
1655.187 11451514 11425728 11400080 11358277 11295835 11216810 11128451 
1658.562 11037764 10947572 10856889 10762047 10658669 10543773 10416960 
1661.937 10280618 10139535 10000566 9871269 9758952 9668686 9602287 9556998 
1665.794 9525770 9498067 9460815 9401355 9311366 9188568 9039450 8877159 
1669.652 8718750 8578274 8464096 8377984 8316611 8272267 8234783 8192304 
1673.509 8131767 8041772 7918017 7767647 7609641 7466862 7358098 7289119 
1677.367 7253269 7236154 7222947 7203947 7177064 7148028 7125763 7116804 
1681.224 7119565 7122395 7104982 7045035 6927488 6756427 6559362 6378359 
1685.082 6247513 6176425 6153269 6156496 6167149 6172224 6165805 6147489 
1688.939 6120000 6086699 6051217 6017956 5991718 5977911 5979960 5997933 
1692.796 6025986 6052494 6062877 6043456 5988661 5906531 5820152 5757695 
1696.654 5736241 5755748 5798963 5841275 5855514 5820756 5730466 5600520 
1700.511 5465077 5358725 5300360 5286708 5301567 5325617 5342925 5342992 
1704.369 5321021 5278256 5221143 5159511 5102144 5055345 5021489 4999233 
1708.226 4985458 4977011 4971347 4968130 4968398 4974162 4986999 5007076 
1712.083 5032651 5060441 5086924 5109688 5127960 5142276 5153341 5159980 
1715.941 5159142 5147037 5121958 5088298 5056183 5040160 5050887 5093293 
1719.798 5164238 5256389 5360603 5469271 5578905 5688803 5801481 5920000 
1723.656 6046984 6183147 6327925 6480017 6638117 6800683 6964960 7125763 
1727.513 7276146 7407100 7511359 7585566 7631391 7655334 7664844 7664709 
1731.371 7653007 7621140 7555221 7444075 7287131 7103634 6927959 6798731 
1735.228 6737884 6745725 6806607 6899444 7005837 7111381 7207450 7289793 
1739.085 7357491 7411785 7454154 7486784 7510348 7525755 7533374 7533779 
1742.943 7527508 7514798 7495582 7469491 7435581 7392540 7338653 7272070 
1746.800 7190774 7093261 6978126 6845012 6693903 6524918 6338819 6137676 
1750.658 5926314 5712101 5505410 5315990 5151128 5013076 4898289 4798944 
1754.515 4703942 4603268 4489394 4361324 4225062 4091485 3972628 3875300 
1758.373 3799719 3739324 3684484 3624706 3552843 3466764 3369382 3267281 
1762.230 3168108 3078267 3001290 2938203 2888168 2849244 2818461 2791716 
1766.087 2765038 2734228 2697919 2657945 2619342 2588075 2567710 2556978 
1769.945 2548945 2533981 2501654 2446804 2372304 2289756 2214517 2158437 
1773.802 2126571 2115484 2117848 2126605 2137659 2150446 2166662 2187342 
1777.660 2211220 2234166 2250419 2255249 2247389 2229437 2207790 2188907 
1781.517 2177019 2172224 2171624 2171091 2167795 2161601 2154475 2149480 
1785.375 2148881 2152877 2160402 2169826 2180815 2194169 2211153 2231802 
1789.232 2254083 2273035 2282061 2274967 2248721 2206025 2154475 2104063 
1793.089 2063678 2037845 2026027 2024329 2028157 2033783 2038777 2041873 
1796.947 2042239 2039343 2032419 2021500 2007718 1992972 1979824 1970804 
1800.804 1967076 1968574 1974599 1984318 1997066 2013078 2031919 2053192 
1804.662 2075064 2095540 2113020 2127037 2138592 2149413 2160935 2172557 
1808.519 2182014 2185877 2180915 2165963 2142454 2114352 2086517 2062680 
1812.376 2044569 2031320 2021466 2013444 2007286 2005089 2009083 2021300 
1816.234 2041840 2069238 2100767 2134063 2168028 2202661 2239295 2278731 
1820.091 2320668 2364108 2407919 2450869 2492823 2533714 2572943 2609609 
1823.949 2641810 2668646 2690650 2710988 2733728 2762571 2798485 2838738 
1827.806 2877327 2907514 2924793 2929230 2926861 2926995 2939238 2968695 
1831.664 3014268 3070358 3129693 3186699 3239005 3287879 3336425 3388282 
1835.521 3444754 3505509 3568779 3633594 3701192 3775118 3860222 3960657 
1839.378 4078173 4211579 4357342 4510686 4667200 4823134 4975168 5120953 
1843.236 5258536 5386937 5507222 5622136 5734663 5846413 5956345 6060356 
1847.093 6151488 6221866 6265127 6277363 6258606 6211346 6139256 6046144 
1850.951 5933805 5803529 5657113 5497692 5330614 5162629 4999333 4844443 
1854.808 4698583 4560206 4426760 4297204 4171968 4052654 3941063 3837624 
1858.666 3741128 3649465 3560995 3475482 3394627 3320565 3254128 3194443 
1862.523 3138337 3081671 3022276 2960488 2899275 2843608 2797185 2760603 
1866.380 2731294 2704020 2673581 2637843 2598808 2561811 2533781 2519550 
1870.238 2520150 2532981 2553478 2576709 2599142 2617842 2630943 2636176 
1874.095 2631576 2615909 2589742 2555478 2517151 2479027 2443805 2411518 
1877.953 2379866 2345652 2306211 2261510 2214084 2167228 2124540 2086883 
1881.810 2053691 2022498 1991242 1960020 1930565 1905771 1887866 1876785 
1885.667 1870462 1864572 1855754 1841945 1823444 1802050 1780257 1760329 
1889.525 1743030 1729590 1721107 1719211 1725931 1742298 1767149 1796993 
1893.382 1826971 1852892 1872392 1886602 1898116 1910163 1923908 1937055 
1897.240 1945442 1944776 1933593 1913858 1891261 1871527 1859348 1855488 
1901.097 1857052 1859414 1858782 1854656 1848933 1846370 1849897 1860479 
1904.955 1876552 1894456 1910663 1923842 1934192 1943545 1952598 1961285 
1908.812 1966677 1967209 1961651 1950934 1938519 1927769 1920813 1918484 
1912.669 1919282 1921013 1923542 1926937 1932196 1939518 1946307 1948471 
1916.527 1941348 1922477 1893624 1861644 1835123 1820649 1819684 1827337 
1920.384 1835256 1835390 1823311 1800586 1774003 1752544 1741932 1744194 
1924.242 1755505 1769844 1781954 1790272 1796294 1803813 1815259 1830665 
1928.099 1847169 1861544 1871793 1879314 1887633 1900379 1918583 1939850 
1931.957 1958589 1969373 1969606 1961651 1950834 1943611 1944077 1951333 
1935.814 1961152 1967942 1968241 1963182 1956991 1954894 1959188 1967742 
1939.671 1974532 1972502 1958422 1933460 1905072 1883307 1875321 1883707 
1943.529 1905038 1932761 1960319 1985150 2007485 2029755 2054557 2080857 
1947.386 2105994 2126238 2140423 2148981 2155607 2162700 2170625 2176253 
1951.244 2173988 2159869 2134996 2103864 2075331 2056554 2049996 2051161 
1955.101 2051660 2041274 2014576 1973600 1925672 1881610 1848933 1829467 
1958.958 1818653 1809536 1796860 1779925 1764088 1756204 1760895 1777563 
1962.816 1799688 1818420 1827703 1824842 1813196 1797625 1782453 1768147 
1966.673 1752511 1732517 1708333 1684151 1667852 1666156 1682221 1711826 
1970.531 1746390 1775633 1792900 1796061 1789540 1779093 1769678 1762824 
1974.388 1758599 1757535 1764088 1787045 1836521 1918583 2030255 2159037 
1978.246 2285426 2391827 2466364 2507119 2520450 2516017 2501654 2481426 
1982.103 2455867 2423213 2384664 2344519 2309342 2284959 2274001 2273901 
1985.960 2279130 2283360 2283027 2279297 2276299 2278331 2287324 2300815 
1989.818 2314605 2324499 2330328 2335891 2348051 2373736 2414650 2467130 
1993.675 2523183 2573310 2609542 2629709 2634076 2626042 2609075 2584942 
1997.533 2554478 2520683 2486424 2457900 2439640 2434775 2440606 2451435 
2001.390 2458566 2454334 2437274 2409619 2377401 2348151 2325764 2310808 
2005.248 2301880 2297650 2298016 2308210 2332027 2372171 2425379 2483059 
2009.105 2534181 2570376 2587809 2589309 2582042 2575109 2574176 2582142 
2012.962 2598442 2621576 2650911 2688183 2733794 2787614 2846276 2903478 
2016.820 2953582 2994317 3027081 3058212 3093350 3135533 3182026 3226120 
2020.677 3260037 3278799 3283640 3281536 3281336 3290751 3312152 3342235 
2024.535 3374324 3401740 3419540 3427855 3427889 3421042 3408319 3388917 
2028.392 3362770 3333854 3309748 3300166 3313754 3356059 3425284 3516132 
2032.250 3620931 3732907 3849492 3969619 4091485 4211545 4323239 4419798 
2036.107 4497362 4558298 4609463 4660669 4719886 4787587 4858314 4921714 
2039.964 4967359 4989312 4989010 4972654 4949026 4925467 4903651 4882239 
2043.822 4859118 4833721 4809498 4792612 4790133 4805611 4840489 4890616 
2047.679 4951640 5020081 5094098 5171213 5249280 5322464 5383448 5427900 
2051.537 5454306 5467660 5478699 5499168 5537726 5596022 5667385 5739699 
2055.394 5801280 5844197 5868646 5881072 5890610 5904515 5925508 5951171 
2059.251 5977138 5999041 6016545 6030723 6044901 6059617 6071982 6076048 
2063.109 6065934 6038081 5994976 5943345 5892592 5850812 5821764 5804100 
2066.966 5793254 5784155 5774047 5762665 5752155 5744433 5740102 5737819 
2070.824 5735234 5730365 5724087 5719219 5719118 5727109 5743694 5766828 
2074.681 5793926 5822234 5850779 5880165 5911200 5943714 5976198 6005794 
2078.539 6029614 6046782 6058643 6068051 6078770 6093117 6111397 6132232 
2082.396 6153908 6174980 6195784 6218169 6242908 6269565 6295853 6317470 
2086.253 6330313 6332431 6323589 6306140 6283482 6257631 6229597 6199616 
2090.111 6167385 6134551 6104643 6082432 6072587 6078602 6100476 6134988 
2093.968 6177870 6223345 6266136 6302946 6330649 6347358 6352973 6348804 
2097.826 6338079 6326480 6320025 6324060 6340601 6368306 6402469 6438147 
2101.683 6471306 6501946 6533058 6569723 6616080 6673479 6739533 6809872 
2105.541 6878976 6943614 7002403 7056686 7107979 7156752 7202700 7244543 
2109.398 7281706 7315570 7349268 7386339 7429278 7478053 7529530 7579261 
2113.255 7623500 7660662 7692128 7721099 7751018 7783535 7817944 7852087 
2117.113 7882756 7909547 7933876 7958983 7988682 8025470 8069249 8118534 
2120.970 8170256 8222356 8273955 8325359 8376362 8427034 8475922 8521165 
2124.828 8562054 8599025 8634007 8669734 8708439 8750799 8795631 8841584 
2128.685 8887000 8932320 8979674 9030891 9087493 9148501 9211481 9272404 
2132.542 9329782 9383444 9435791 9490582 9549276 9611129 9673464 9731133 
2136.400 9781996 9826190 9866354 9906488 9949236 9993006 10032880 10063093 
2140.257 10078014 10075674 10058617 10030744 9995786 9955576 9908251 9849711 
2144.115 9778573 9695012 9603676 9511580 9425023 9346303 9275079 9205760 
2147.972 9133104 9053456 8965976 8870869 8770138 8663277 8548130 8421494 
2151.830 8282804 8133017 7977949 7823376 7672904 7526024 7379093 7226586 
2155.687 7069214 6916243 6785235 6700229 6682765 6740812 6865781 7032473 
2159.544 7208461 7361434 7471075 7530778 7545005 7524642 7482334 7429177 
2163.402 7374072 7323421 7281403 7250607 7229550 7212166 7190774 7156112 
2167.259 7101142 7024661 6930585 6826735 6722707 6625803 6539449 6464076 
2171.117 6396651 6333439 6272455 6211783 6150379 6088144 6024944 5961618 
2174.974 5900519 5846480 5802891 5772369 5753264 5739263 5721166 5690918 
2178.832 5644088 5582866 5515746 5452326 5401933 5369459 5352116 5344300 
2182.689 5338430 5329843 5317298 5303713 5291706 5282986 5276814 5270106 
2186.546 5259475 5244585 5226844 5209976 5197803 5192170 5191298 5192841 
2190.404 5192505 5187911 5178791 5166418 5152235 5138387 5125747 5115320 
2194.261 5109252 5110827 5122729 5147205 5182479 5223457 5261789 5289694 
2198.119 5300829 5295328 5277217 5252533 5228621 5209876 5196898 5189286 
2201.976 5184659 5182680 5184256 5191834 5206052 5226341 5250118 5273125 
2205.833 5291672 5303915 5310287 5312770 5313306 5313273 5312669 5312132 
2209.691 5312065 5314715 5323369 5339906 5364125 5393848 5424042 5449407 
2213.548 5467660 5478867 5486316 5494806 5507658 5525545 5547089 5569005 
2217.406 5588168 5604816 5620491 5638147 5659630 5684338 5708610 5727780 
2221.263 5737450 5735805 5724624 5708207 5691857 5679436 5673058 5672151 
2225.121 5675106 5680511 5686822 5694241 5703373 5713612 5724590 5735032 
2228.978 5744064 5751350 5758501 5766190 5775794 5788049 5802455 5817667 
2232.835 5832980 5846917 5859511 5870997 5881845 5892894 5905590 5921377 
2236.693 5941900 5968505 6000923 6036602 6071949 6101686 6122352 6132602 
2240.550 6134719 6133476 6134988 6144128 6162713 6189331 6220018 6249799 
2244.408 6276120 6298105 6317268 6336365 6357815 6381822 6408286 6435659 
2248.265 6462731 6488695 6513886 6537465 6559094 6577359 6591455 6600975 
2252.123 6608208 6615710 6627519 6645922 6670888 6698883 6725332 6744345 
2255.980 6751782 6746263 6728899 6702012 6668802 6631590 6592128 6551828 
2259.837 6512271 6476015 6445848 6423855 6411278 6407714 6410909 6418138 
2263.695 6427386 6437205 6447328 6457989 6469390 6480757 6491150 6499760 
2267.552 6505847 6509985 6512978 6515669 6518326 6520781 6522328 6522194 
2271.410 6521084 6519301 6518292 6519133 6521791 6525860 6530704 6535446 
2275.267 6540425 6546984 6555999 6568243 6583987 6601715 6619983 6637881 
2279.125 6654670 6670955 6687577 6705243 6723616 6742124 6758984 6773355 
2282.982 6784596 6793346 6800044 6805597 6810141 6813675 6816031 6817478 
2286.839 6818724 6821349 6826095 6833130 6841006 6847705 6850431 6847840 
2290.697 6839458 6826735 6811925 6797452 6784966 6775576 6769417 6766321 
2294.554 6766489 6770494 6778572 6790923 6806540 6823907 6840939 6855817 
2298.412 6867700 6876519 6883016 6888066 6891937 6895236 6897525 6899040 
2302.269 6900421 6902407 6906009 6911698 6919307 6927959 6936915 6945702 
2306.126 6954489 6964355 6976678 6992335 7012000 7035235 7061334 7089927 
2309.984 7120947 7154933 7192392 7233256 7276450 7320287 7362546 7401169 
2313.841 7435311 7464873 7490593 7513450 7534183 7552895 7569314 7583408 
2317.699 7595142 7604921 7614126 7623028 7633246 7645285 7659549 7675905 
2321.556 7693780 7711318 7725012 7731353 7725517 7704168 7666496 7614193 
2325.414 7552591 7488267 7428705 7379835 7344887 7324028 7314559 7312537 
2329.271 7313986 7315738 7316817 7316985 7317356 7319175 7323859 7332048 
2333.128 7344786 7362209 7384418 7410302 7438413 7466862 7494133 7519653 
2336.986 7544027 7568674 7595479 7625456 7658942 7694826 7731892 7768659 
2340.843 7804551 7839805 7874456 7908568 7940220 7966846 7985307 7993508 
2344.701 7991719 7982877 7972549 7967791 7975519 8000292 8044236 8106515 
2348.558 8184066 8271423 8363121 8452744 8534276 8603521 8657802 8696506 
2352.416 8721657 8736126 8743497 8746741 8747790 8747621 8747147 8747384 
2356.273 8749683 8755296 8765404 8779841 8797524 8816629 8834855 8850984 
2360.130 8864139 8874285 8881860 8887373 8891499 8895015 8899311 8906007 
2363.988 8916695 8932997 8954746 8980960 9009307 9037487 9063538 9087087 
2367.845 9108571 9129111 9150057 9171783 9194321 9217639 9241366 9265837 
2371.703 9291563 9318374 9345186 9370747 9392789 9409955 9422145 9430881 
2375.560 9438804 9448827 9462982 9481676 9503926 9527701 9550970 9573088 
2379.417 9594225 9615803 9639381 9666247 9696605 9730488 9767323 9806838 
2383.275 9848626 9892691 9937777 9983139 10026708 10067434 10104704 10139738 
2387.132 10174403 10211478 10253035 10299516 10349564 10400704 10450187 
2390.508 10496282 10538783 10578843 10618466 10659586 10703053 10748598 
2393.883 10795777 10843300 10890795 10938466 10986277 11034603 11083071 
2397.258 11131000 11177473 11222591 11266625 11310493 11355761 11403142 
2400.633 11452807 11504588 11557429 11611026 11665480 11721201 11778938 
2404.009 11839508 11903390 11970620 12041402 12116114 12195338 12279619 
2407.384 12368759 12461838 12556745 12651365 12743379 12831897 12917088 
2410.759 13000316 13083832 13169141 13257643 13348966 13442494 13536488 
2414.134 13629339 13719507 13805318 13885295 13958204 14023048 14079654 
2417.510 14129113 14172656 14212334 14250543 14288756 14328512 14370431 
2420.885 14415059 14463153 14515053 14571346 14632068 14696910 14765156 
2424.260 14836156 14909944 14987038 15068811 15156432 15251586 15354519 
2427.635 15465579 15584052 15709566 15841885 15981292 16127758 16281635 
2431.010 16442312 16609073 16780548 16956052 17134764 17316892 17502374 
2434.386 17691630 17884766 18081752 18282182 18486402 18693692 18903992 
2437.761 19115776 19327558 19537122 19742664 19943548 20140326 20334552 
2441.136 20528626 20724000 20920818 21117726 21311556 21499452 21679102 
2444.511 21849594 22011718 22167066 22317342 22463730 22606430 22745022 
2447.887 22879328 23009134 23134786 23256942 23375882 23491776 23604064 
2451.262 23712704 23817942 23920614 24022578 24125928 24232422 24343430 
2454.637 24459336 24580078 24705272 24834820 24968650 25107400 25251536 
2458.012 25401900 25558924 25723106 25894736 26073330 26258298 26447816 
2461.388 26639602 26831682 27022544 27212008 27401238 27592704 27789164 
2464.763 27993312 28206924 28431432 28667594 28916846 29180842 29462124 
2468.138 29762786 30084428 30426816 30788644 31167184 31560448 31966302 
2471.513 32383568 32811168 33247884 33690912 34137256 34582588 35023280 
2474.889 35456544 35880744 36294368 36696308 37083752 37453664 37801588 
2478.264 38123416 38415728 38676980 38906244 39103644 39268644 39400972 
2481.639 39499412 39563324 39592504 39588692 39554504 39493896 39411784 
2485.014 39312456 39200280 39078556 38949548 38815000 38674952 38528972 
2488.390 38375984 38214404 38042360 37858772 37662444 37452292 37227728 
2491.765 36987516 36730276 36454836 36160064 35845836 35512384 35160540 
2495.140 34790888 34403728 33999100 33576772 33137046 32681152 32211356 
2498.515 31730764 31243088 30751404 30258252 29765410 29273518 28783068 
2501.891 28294938 27810040 27330308 26857482 26393588 25940354 25499924 
2505.266 25073702 24663678 24271314 23897472 23542458 23205734 22885756 
2508.641 22580984 22290172 22012938 21749848 21502376 21271922 21060024 
2512.016 20867452 20694356 20540054 20404698 20287264 20187252 20104162 
2515.392 20036912 19983826 19943930 19915970 19899422 19894080 19900048 
2518.767 19917114 19944866 19981744 20026884 20078656 20136160 20198742 
2522.142 20266086 20337610 20412512 20489964 20569062 20648974 20729908 
2525.517 20811832 20894430 20976418 21055014 21126528 21187024 21232254 
2528.893 21260160 21269208 21259604 21232150 21187650 21127048 21051326 
2532.268 20961884 20861056 20751492 20636882 20520148 20403586 20288306 
2535.643 20174722 20062554 19951702 19842608 19736214 19633000 19533900 
2539.018 19439120 19348588 19261918 19179490 19101304 19027836 18958848 
2542.394 18893782 18831216 18769386 18706942 18642986 18577620 18512162 
2545.769 18447956 18386388 18328114 18272988 18220500 18169846 18120166 
2549.144 18070804 18021032 17970402 17918396 17865122 17810852 17757174 
2552.519 17705470 17657706 17615228 17578274 17546464 17518624 17493304 
2555.895 17469606 17446942 17425144 17404072 17383758 17363204 17341652 
2559.270 17318478 17293204 17266104 17237694 17208392 17178228 17146756 
2562.645 17113290 17077274 17038712 16998224 16957326 16917534 16880606 
2566.020 16847434 16819190 16796252 16778962 16767805 16762329 16761951 
2569.396 16765635 16771559 16778274 16784922 16791912 16800280 16811716 
2572.771 16827904 16849156 16875540 16905408 16937240 16969108 17000462 
2576.146 17030338 17059044 17086682 17113360 17139036 17164198 17189052 
2579.521 17215010 17243210 17274860 17311064 17352100 17397932 17448322 
2582.896 17502998 17561404 17623648 17689628 17758692 17830356 17903618 
2586.272 17977724 18051978 18126108 18200112 18274026 18348054 18422478 
2589.647 18498020 18575304 18655264 18738458 18824850 18913336 19001978 
2593.022 19088284 19170070 19245604 19314984 19379214 19439952 19498690 
2596.397 19556812 19614386 19670962 19725986 19779144 19830332 19880518 
2599.773 19930054 19979940 20030354 20081502 20133314 20186488 20241508 
2603.148 20299728 20362054 20429564 20502364 20580944 20664610 20753474 
2606.523 20846836 20944812 21046770 21152652 21262004 21374934 21491652 
2609.898 21613068 21739816 21872730 22011786 22156222 22304542 22454796 
2613.274 22605208 22754556 22902032 23047218 23190006 23330112 23466770 
2616.649 23599654 23728450 23853190 23974394 24092654 24208250 24321386 
2620.024 24431190 24537056 24638042 24733718 24824468 24910888 24994094 
2623.399 25074824 25153498 25230326 25304568 25376082 25444164 25508708 
2626.775 25569466 25626684 25680148 25730136 25776722 25819970 25860376 
2630.150 25898394 25934198 25968388 26001066 26032342 26062000 26089656 
2633.525 26114602 26136278 26153874 26167036 26175726 26180302 26181922 
2636.900 26181324 26179880 26178332 26177240 26176924 26177592 26179738 
2640.276 26184068 26191880 26204058 26221444 26244604 26273434 26307578 
2643.651 26346866 26390842 26439470 26492998 26551288 26613848 26679906 
2647.026 26748370 26818008 26888220 26958516 27029244 27100760 27173630 
2650.401 27247888 27323532 27400250 27477652 27555420 27633380 27711390 
2653.777 27789448 27867270 27944828 28021972 28098850 28175774 28253528 
2657.152 28332354 28413250 28496386 28581732 28669150 28758462 28849386 
2660.527 28941636 29035078 29129672 29225032 29320946 29417128 29513438 
2663.902 29609270 29704454 29798484 29891188 29982026 30071290 30158438 
2667.278 30243828 30327780 30410752 30493314 30575890 30659300 30744220 
2670.653 30831326 30921582 31015306 31112826 31214248 31319182 31427280 
2674.028 31538502 31652674 31770084 31891130 32016058 32144770 32276984 
2677.403 32412310 32550388 32691084 32834362 32980118 33128322 33278610 
2680.779 33430458 33583288 33736384 33889936 34044320 34200272 34358684 
2684.154 34519768 34683712 34850412 35019076 35189752 35362432 35537664 
2687.529 35715988 35898452 36085200 36276392 36471920 36671684 36875648 
2690.904 37083716 37295672 37511604 37731068 37953360 38178256 38405448 
2694.280 38635076 38867648 39103644 39343436 39587168 39834600 40085440 
2697.655 40339300 40596252 40856560 41120300 41387816 41658884 41932928 
2701.030 42209268 42486916 42765144 43043476 43321584 43599212 43876208 
2704.405 44152720 44428568 44703932 44978768 45253224 45527236 45800384 
2707.781 46072488 46343288 46612640 46881120 47149284 47418284 47688816 
2711.156 47961812 48237536 48516284 48797884 49082672 49370540 49661724 
2714.531 49955700 50251620 50547492 50840804 51128420 51407432 51675052 
2717.906 51929912 52171212 52400048 52617860 52827512 53032020 53234676 
2721.281 53438480 53646504 53861300 54085324 54320508 54568888 54831808 
2724.657 55109972 55403068 55709888 56028720 56357448 56694388 57038772 
2728.032 57390196 57749324 58116248 58490380 58869884 59251844 59632732 
2731.407 60008904 60378120 60738776 61090308 61432624 61765084 62086868 
2734.782 62396076 62690608 62969068 63230380 63474512 63701980 63913712 
2738.158 64110956 64294876 64467228 64630420 64787484 64941980 65097964 
2741.533 65258852 65427660 65606436 65797084 66001116 66220112 66455820 
2744.908 66709460 66981880 67272736 67580160 67901376 68232232 68567728 
2748.283 68902440 69230296 69545096 69840248 70109936 70348808 70553360 
2751.659 70721192 70851848 70945936 71004384 71028576 71019016 70976216 
2755.034 70899472 70787920 70639864 70453312 70225864 69955096 69639104 
2758.409 69276384 68866752 68411080 67911520 67371208 66793656 66183300 
2761.784 65545200 64884232 64206972 63520000 62830084 62144976 61472280 
2765.160 60818696 60191432 59596740 59039904 58525336 58056592 57635272 
2768.535 57262624 56938200 56660976 56429280 56240892 56093488 55984128 
2771.910 55909804 55866884 55851656 55860364 55889040 55933964 55991440 
2775.285 56057296 56127120 56196200 56259488 56311880 56349412 56368424 
2778.661 56366352 56342016 56295204 56226520 56138016 56032868 55914816 
2782.036 55789152 55660960 55534800 55414360 55301748 55197628 55101280 
2785.411 55011124 54925084 54840756 54754896 54663948 54563400 54448304 
2788.786 54314424 54157988 53976920 53771404 53543080 53295548 53033032 
2792.162 52760572 52483048 52205924 51934656 51674676 51431152 51209164 
2795.537 51012440 50844304 50706464 50600612 50527876 50489240 50486332 
2798.912 50520316 50592496 50703300 50852944 51040504 51264380 51522432 
2802.287 51812112 52130076 52472692 52836228 53216588 53609540 54011552 
2805.663 54419308 54829060 55238076 55642580 56038672 56421924 56787652 
2809.038 57130708 57446544 57730020 57976800 58182652 58344144 58458536 
2812.413 58524388 58541636 58511800 58437080 58321596 58169280 57985168 
2815.788 57775020 57544660 57301228 57052712 56807140 56573176 56359596 
2819.164 56174104 56023784 55914364 55849472 55831352 55859572 55932040 
2822.539 56044668 56191676 56367028 56563700 56774776 56993696 57213524 
2825.914 57428012 57630612 57815596 57978128 58114200 58222088 58301168 
2829.289 58352860 58379696 58385456 58374500 58351764 58321896 58289880 
2832.665 58259488 58233796 58214628 58202920 58198564 58201516 58211976 
2836.040 58230580 58258732 58298628 58352820 58424456 58517412 58636360 
2839.415 58787512 58977468 59214476 59507316 59864284 60294248 60805660 
2842.790 61406972 62107320 62915980 63841856 64891616 66067084 67362464 
2846.166 68759912 70227576 71719800 73173400 74516544 75674328 76571912 
2849.541 77151224 77374848 77232600 76742760 75949680 74918304 73719104 
2852.916 72425712 71105304 69809032 68576808 67434240 66394000 65459900 
2856.291 64628536 63891640 63237740 62653408 62125936 61642792 61193368 
2859.667 60769340 60363764 59971124 59586248 59203880 58818888 58426312 
2863.042 58021904 57602956 57168656 56720704 56263296 55803052 55349356 
2866.417 54912112 54502504 54131224 53807068 53536820 53324204 53170260 
2869.792 53073280 53029064 53031384 53071292 53138840 53222356 53309296 
2873.167 53388084 53449124 53485212 53493416 53473520 53428176 53360996 
2876.543 53275956 53176364 53064516 52942252 52811304 52673364 52530796 
2879.918 52386292 52242432 52101948 51967292 51840860 51724876 51621312 
2883.293 51531836 51457636 51398440 51353952 51322660 51303124 51294248 
2886.668 51295404 51306812 51329224 51363572 51410416 51470396 51543328 
2890.044 51628924 51726404 51835336 51955756 52088424 52235408 52399676 
2893.419 52585436 52797388 53040632 53319448 53636980 53994328 54389712 
2896.794 54818612 55273184 55741756 56210836 56664864 57088308 57468668 
2900.169 57797392 58071820 58295828 58478928 58635148 58778828 58925512 
2903.545 59088420 59278240 59504884 59776972 60102692 60491180 60950856 
2906.920 61490492 62119056 62845364 63679308 64631880 65713160 66931248 
2910.295 68286904 69771448 71360736 73013560 74675928 76279424 77749256 
2913.670 79017208 80021480 80718680 81087848 81130504 80869768 80343720 
2917.046 79603456 78702576 77690976 76615544 75512696 74410264 73329192 
2920.421 72283016 71280064 70324808 69418536 68560440 67748600 66981152 
2923.796 66256972 65576300 64940252 64350128 63806780 63308804 62852828 
2927.171 62432800 62041572 61670400 61311300 60956464 60599244 60234256 
2930.547 59857856 59468028 59065264 58651760 58232624 57813404 57400860 
2933.922 57001440 56620548 56262616 55931136 55628604 55356660 55116404 
2937.297 54907788 54729980 54581544 54460924 54366840 54299216 54258892 
2940.672 54247140 54264972 54311868 54385468 54481020 54591464 54707692 
2944.048 54820116 54917976 54990288 55027072 55019396 54960768 54848952 
2947.423 54686420 54481168 54245492 53995304 53747628 53517256 53316528 
2950.798 53153448 53031348 52950224 52907296 52898052 52917100 52958576 
2954.173 53016780 53085372 53159024 53232884 53303076 53367028 53423568 
2957.549 53473072 53516732 53557060 53597092 53639792 53688232 53744512 
2960.924 53809652 53883920 53965816 54053804 54145636 54239104 54332596 
2964.299 54424904 54515276 54603000 54687736 54769068 54846544 54919636 
2967.674 54987920 55051064 55109932 55165684 55221332 55281008 55349020 
2971.050 55430060 55527908 55643820 55777244 55924728 56081876 56242964 
2974.425 56402648 56556644 56700880 56832440 56948284 57045424 57121600 
2977.800 57174704 57204336 57211556 57198968 57170356 57129880 57081320 
2981.175 57028268 56973068 56917500 56862240 56807476 56752080 56693068 
2984.551 56625868 56544004 56439660 56305088 56132964 55918284 55658700 
2987.926 55355152 55011800 54635088 54233248 53814568 53386508 52955092 
2991.301 52524516 52097164 51674564 51257708 50847432 50444948 50050760 
2994.676 49664652 49284500 48906380 48524548 48132504 47724316 47295792 
2998.052 46845280 46373964 45885592 45385336 44878892 44371684 43867996 
3001.427 43371120 42883440 42406392 41940996 41488456 41049352 40624300 
3004.802 40213768 39818004 39437112 39070800 38718852 38380620 38055596 
3008.177 37742956 37441600 37150772 36869084 36595508 36328448 36066660 
3011.552 35808772 35553808 35300972 35050076 34800940 34553924 34309624 
3014.928 34068512 33831404 33599324 33372990 33153568 32941762 32737992 
3018.303 32542244 32354012 32172672 31997368 31827804 31663970 31506400 
3021.678 31355828 31213108 31078942 30954032 30839188 30735826 30645858 
3025.053 30571696 30516062 30481086 30468112 30476608 30504546 30547378 
3028.429 30598714 30651194 30696318 30725372 30730634 30705670 30646500 
3031.804 30551964 30423864 30266494 30085564 29887390 29678270 29462904 
3035.179 29245164 29027710 28812594 28601304 28395102 28195220 28002536 
3038.554 27817176 27638820 27466850 27300208 27137864 26979106 26823328 
3041.930 26670392 26520364 26373484 26230454 26091908 25958784 25831998 
3045.305 25711926 25598918 25493108 25393926 25301194 25214630 25134048 
3048.680 25059308 24990514 24926994 24868114 24812892 24759992 24708604 
3052.055 24657960 24607780 24558374 24510026 24463228 24418396 24376232 
3055.431 24336876 24300922 24268896 24241252 24218198 24200016 24186598 
3058.806 24177876 24173674 24173674 24177666 24185372 24196442 24211018 
3062.181 24229376 24251692 24278882 24311890 24351594 24398488 24452642 
3065.556 24512866 24577658 24644808 24711656 24775424 24833520 24883694 
3068.932 24923660 24951770 24966930 24968544 24956752 24932362 24896956 
3072.307 24852466 24801456 24746310 24689736 24634220 24581796 24534182 
3075.682 24492358 24456076 24424354 24395438 24367296 24337576 24304532 
3079.057 24267320 24225802 24180818 24133598 24086070 24039840 23996524 
3082.433 23957166 23922154 23891418 23864356 23839958 23817452 23796450 
3085.808 23776922 23759842 23746578 23738214 23735694 23739266 23748014 
3089.183 23760858 23776082 23792110 23808072 23823228 23837894 23852350 
3092.558 23867016 23882632 23899398 23917814 23937876 23960004 23984408 
3095.934 24011546 24041908 24075772 24113424 24154686 24199000 24245316 
3099.309 24292442 24339154 24384574 24428490 24471324 24514024 24557638 
3102.684 24602904 24650000 24698432 24747116 24795070 24841380 24885622 
3106.059 24927976 24968826 25008660 25047970 25087110 25126184 25165680 
3109.435 25205990 25247708 25291396 25337476 25386372 25438050 25492792 
3112.810 25550594 25611396 25674734 25739770 25805204 25869026 25929342 
3116.185 25984850 26034768 26079240 26119386 26156126 26190472 26222958 
3119.560 26253544 26282268 26309372 26335494 26362148 26390314 26421264 
3122.936 26454962 26491060 26528324 26565376 26601484 26636254 26670604 
3126.311 26705698 26742802 26783080 26827030 26874086 26923366 26973428 
3129.686 27022650 27069408 27112998 27153278 27190878 27227494 27264962 
3133.061 27305078 27348834 27396828 27447966 27501514 27556198 27611524 
3136.437 27667458 27724174 27782206 27841376 27900764 27959174 28015506 
3139.812 28069440 28121686 28173794 28227750 28285460 28347562 28413744 
3143.187 28482764 28552716 28622468 28691060 28758604 28825236 28891242 
3146.562 28956726 29020874 29083188 29143634 29202528 29261042 29320734 
3149.938 29382844 29447940 29515850 29585398 29655208 29724002 29791172 
3153.313 29857148 29922566 29988452 30055522 30123918 30192926 30261450 
3156.688 30328348 30392984 30455922 30518266 30581826 30648562 30719646 
3160.063 30795472 30875154 30956878 31038474 31118272 31195556 31270682 
3163.438 31345110 31420548 31498526 31579904 31664256 31750586 31837322 
3166.814 31922866 32006248 32086976 32165072 32240830 32314890 32387816 
3170.189 32460470 32533568 32607962 32684546 32763716 32845620 32929822 
3173.564 33015724 33102144 33188474 33273746 33357714 33439870 33520576 
3176.939 33600148 33679380 33759700 33842256 33928372 34018556 34112452 
3180.315 34208804 34305932 34401968 34495840 34587184 34676680 34765512 
3183.690 34854720 34945028 35036644 35129356 35222916 35317396 35413404 
3187.065 35511488 35612284 35715408 35820072 35924900 36028428 36130028 
3190.440 36229568 36328156 36427344 36528864 36634404 36744660 36859924 
3193.816 36979832 37103060 37228416 37353772 37477536 37597980 37714260 
3197.191 37826528 37935892 38044204 38153408 38265168 38379860 38497076 
3200.566 38615664 38734392 38852392 38969484 39086316 39204156 39323956 
3203.941 39446436 39571636 39699124 39827880 39957152 40086020 40213548 
3207.317 40339408 40463444 40585736 40706860 40827804 40949360 41072008 
3210.692 41196108 41320792 41445296 41568812 41691268 41813252 41935740 
3214.067 42060124 42187032 42316528 42447528 42578420 42708000 42834984 
3217.442 42959628 43082660 43205032 43328060 43452264 43578000 43705092 
3220.818 43833468 43963020 44093708 44225316 44357664 44490272 44622628 
3224.193 44754688 44886352 45017904 45149500 45281208 45412556 45542980 
3227.568 45672084 45799572 45925552 46050312 46174480 46297988 46420048 
3230.943 46540048 46656796 46769440 46878056 46983040 47085544 47186664 
3234.319 47287624 47389684 47494272 47602552 47715480 47833800 47956704 
3237.694 48082940 48209732 48335040 48457120 48576016 48693016 48810416 
3241.069 48930480 49054328 49181512 49310444 49439000 49566076 49691512 
3244.444 49816880 49944472 50075820 50211452 50350508 50491284 50632220 
3247.820 50772268 50912100 51053024 51196752 51344180 51495388 51649336 
3251.195 51804572 51960088 52115360 52270460 52426144 52582668 52740296 
3254.570 52898536 53057476 53217264 53378456 53542220 53708928 53878816 
3257.945 54051292 54225440 54400228 54575308 54750916 54927756 55106508 
3261.321 55287296 55469212 55651316 55832176 56011116 56188280 56364200 
3264.696 56540304 56717532 56896348 57077088 57259452 57442988 57627552 
3268.071 57812984 57998952 58185036 58370976 58556992 58743468 58931624 
3271.446 59122816 59317852 59517196 59720092 59924944 60129896 60333804 
3274.822 60536128 60737480 60938924 61141452 61345796 61552028 61759816 
3278.197 61969340 62181068 62395960 62615132 62839352 63068784 63302592 
3281.572 63540020 63780532 64024092 64271396 64523384 64780592 65043004 
3284.947 65309608 65579420 65851792 66126532 66404424 66686548 66973648 
3288.323 67265936 67562632 67863056 68166440 68473024 68783984 69100560 
3291.698 69424368 69755880 70094936 70440496 70791544 71147448 71507632 
3295.073 71872184 72241256 72614256 72990976 73371208 73755232 74144144 
3298.448 74539440 74942328 75353520 75772592 76197672 76627760 77061512 
3301.823 77499744 77944208 78397184 78861032 79337200 79825160 80323672 
3305.199 80830816 81344792 81864368 82389344 82920056 83457264 84002296 
3308.574 84556384 85121352 85698584 86289528 86894216 87511872 88140432 
3311.949 88777464 89421464 90071552 90728736 91394808 92071336 92759248 
3315.324 93457824 94165312 94879672 95599672 96325544 97058568 97800576 
3318.700 98552632 99314480 100084024 100858056 101633432 102407472 103178520 
3322.075 103946056 104710104 105471024 106228832 106984400 107737936 
3324.968 108490264 109241008 109989040 110731896 111465416 112185248 
3327.861 112887576 113570168 114232072 114873608 115495264 116095904 
3330.754 116673848 117225728 117748416 118239280 118696384 119118840 
3333.647 119505528 119854872 120164744 120433248 120659752 120844880 
3336.540 120991472 121102064 121178616 121221064 121226800 121191976 
3339.433 121112880 120987352 120814728 120596496 120333880 120027952 
3342.326 119678336 119283512 118842216 118353800 117819080 117239312 
3345.219 116616112 115950136 115241288 114489336 113695208 112861408 
3348.113 111992752 111094336 110171168 109226688 108261904 107276984 
3351.006 106271024 105244784 104200424 103141880 102073464 100999472 
3353.899 99922880 98845664 97769864 96697304 95630648 94573320 93528504 
3357.274 92498496 91485168 90489328 89511480 88552336 87613376 86696024 
3360.649 85801200 84929120 84078928 83248752 82436616 81640992 80860760 
3364.024 80095856 79346392 78612152 77893504 77190768 76504888 75838080 
3367.400 75192704 74570672 73973144 73398912 72845456 72308992 71785312 
3370.775 71271744 70766280 70268672 69778992 69297216 68822656 68353992 
3374.150 67890208 67430064 66973612 66520960 66072100 65626664 65183192 
3377.525 64740480 64297260 63853488 63410440 62970296 62535456 62107396 
3380.901 61686136 61270208 60857228 60444416 60029748 59612212 59191768 
3384.276 58769228 58345584 57922164 57500324 57081168 56666264 56256696 
3387.651 55853204 55455960 55064080 54676084 54290316 53905380 53520068 
3391.026 53134608 52749236 52365136 51983800 51606196 51233884 50867768 
3394.402 50508480 50156260 49810932 49471080 49135652 48803152 48472792 
3397.777 48143832 47816636 47491280 47168492 46848124 46529872 46213544 
3401.152 45899108 45586588 45276580 44969764 44666360 44366324 44069244 
3404.527 43774572 43481632 43190652 42901800 42615628 42332564 42052824 
3407.903 41775640 41500668 41227112 40954312 40682480 40411620 40141948 
3411.278 39873244 39605136 39337196 39069204 38800800 38532668 38265420 
3414.653 38000228 37737936 37479344 37225384 36976764 36734096 36497616 
3418.028 36266992 36041132 35818560 35597756 35377240 35156840 34937196 
3421.404 34719568 34505344 34295320 34089156 33885636 33682784 33478842 
3424.779 33273354 33066676 32860272 32655682 32454510 32257068 32063146 
3428.154 31871908 31681862 31492398 31302944 31113502 30924250 30735542 
3431.529 30547450 30360576 30175736 29993848 29816618 29645136 29479924 
3434.905 29320626 29165958 29013894 28862060 28708796 28552928 28394536 
3438.280 28234080 28072550 27910694 27749216 27588078 27427320 27266444 
3441.655 27105556 26944660 26783998 26623924 26464366 26305466 26146870 
3445.030 25988368 25829922 25671958 25515244 25361046 25210414 25063942 
3448.406 24921870 24783212 24646318 24509850 24372130 24232494 24091008 
3451.781 23948308 23805376 23663226 23522170 23381828 23242050 23102112 
3455.156 22961938 22822158 22683716 22547622 22415162 22286160 22160406 
3458.531 22036432 21912806 21788064 21661444 21533086 21404102 21276270 
3461.906 21151506 21031260 20916368 20806410 20699882 20594668 20488504 
3465.282 20379556 20266676 20149906 20029798 19907922 19785282 19663264 
3468.657 19542772 19424636 19308714 19195386 19084406 18975152 18866650 
3472.032 18758038 18648104 18536262 18422790 18308792 18195518 18084344 
3475.407 17976514 17872130 17771014 17672166 17575136 17479368 17384722 
3478.783 17290928 17197290 17102778 17005424 16904270 16798974 16690118 
3482.158 16580157 16472735 16370533 16275616 16188456 16107161 16029214 
3485.533 15951386 15870856 15785977 15696270 15602083 15505135 15407385 
3488.908 15310857 15217303 15128709 15045690 14968243 14895474 14825322 
3492.284 14755421 14683440 14607908 14528313 14445511 14360978 14277045 
3495.659 14195831 14119118 14047449 13981505 13920943 13865008 13812980 
3499.034 13763317 13714755 13665582 13614056 13558775 13499059 13434736 
3502.409 13366699 13296725 13227651 13162208 13103467 13053373 13012402 
3505.785 12979592 12952077 12926305 12898690 12866436 12829031 12787704 
3509.160 12745324 12705302 12670128 12641131 12617492 12597162 12577925 
3512.535 12558041 12537236 12515752 12494677 12474625 12455428 12435890 
3515.910 12414375 12389487 12360781 12328737 12294719 12260533 12227678 
3519.286 12197314 12169541 12143610 12118431 12092469 12063579 12030195 
3522.661 11990681 11944326 11890994 11831745 11768248 11702139 11634271 
3526.036 11564541 11492067 11415320 11333211 11245236 11152995 11058020 
3529.411 10962761 10869255 10778351 10690828 10606888 10525917 10448117 
3532.787 10372944 10299041 10224504 10146522 10062585 9971307 9873303 
3536.162 9771084 9668721 9570547 9478967 9394955 9317053 9242753 9168974 
3540.019 9094327 9018712 8943414 8870497 8801244 8736093 8674196 8613558 
3543.877 8552185 8488693 8422473 8353697 8283648 8213577 8144631 8077856 
3547.734 8013656 7951660 7891022 7829921 7766534 7699446 7627378 7550771 
3551.592 7471446 7391968 7314626 7241679 7173662 7110067 7049783 6991830 
3555.449 6935433 6880525 6827442 6775812 6725264 6674656 6622574 6568479 
3559.306 6512137 6454491 6397055 6341845 6289970 6242303 6198843 6159151 
3563.164 6122084 6086027 6048026 6004081 5949794 5880703 5793825 5689508 
3567.021 5572294 5449474 5330279 5222484 5130441 5054373 4991457 4936928 
3570.879 4886360 4835563 4781925 4724575 4663315 4598647 4531210 4462478 
3574.736 4393489 4326117 4261968 4201943 4146878 4096502 4049945 4005968 
3578.594 3963533 3921437 3878977 3835352 3789725 3741529 3690967 3639107 
3582.451 3588356 3541786 3501902 3470238 3445790 3424850 3401273 3369048 
3586.308 3322602 3260270 3184462 3101927 3021742 2951647 2896507 2857449 
3590.166 2832202 2815893 2802987 2789114 2770340 2744531 2711288 2671047 
3594.023 2625342 2576009 2524849 2473395 2423013 2374569 2328563 2285792 
3597.881 2247022 2212619 2183413 2159603 2140856 2126838 2116383 2108425 
3601.738 2102132 2096972 2092710 2089214 2086384 2083421 2079060 2070803 
3605.595 2056154 2031853 1995802 1946673 1885570 1815925 1742664 1671877 
3609.453 1608717 1555908 1513546 1479367 1449711 1420390 1388778 1353545 
3613.310 1315622 1277438 1241449 1209883 1183136 1160046 1137787 1113072 
3617.168 1082079 1042055 992404 934822 873263 813805 762586 723819 698695 
3621.507 685520 680741 679945 679779 678817 678053 680177 687677 701848 
3625.847 720600 738622 746687 735303 696804 630136 543240 451022 371127 
3630.187 315650 287466 282393 291644 306067 317407 321021 314721 299436 
3634.526 277287 250598 221391 190695 159006 127419 97524 71641 51592 38801 
3639.348 32638 31180 31180 29258 23128 12193 -2186 -16765 -27798 -32105 
3644.170 -27765 -14910 4042 25215 43739 54243 52255 34725 530 -49300 -111051 
3649.474 -179085 -246679 -305918 -349953 -374816 -379417 -365877 -339590 
3653.331 -307573 -277408 -256414 -250487 -262243 -290918 -331379 -376537 
3657.188 -419009 -453798 -478688 -494244 -502716 -506655 -508673 -510957 
3661.046 -514664 -520654 -528993 -538922 -548849 -557751 -563277 -563906 
3664.903 -558512 -546831 -529358 -507581 -484513 -464290 -452507 -454692 
3668.761 -475014 -515094 -569995 -629090 -679908 -710408 -715040 -695522 
3672.618 -660256 -621481 -592132 -584323 -604672 -651621 -713716 -774446 
3676.476 -819823 -842972 -845585 -834936 -819228 -804510 -794291 -789065 
3680.333 -787213 -787213 -787808 -788900 -790983 -794026 -797036 -798194 
3684.190 -795746 -788271 -776563 -762969 -750929 -744248 -745802 -755924 
3688.048 -773189 -794655 -816913 -838309 -858680 -878455 -897732 -915257 
3691.905 -928482 -934368 -931194 -919026 -900411 -879579 -861524 -850049 
3695.763 -847338 -852463 -862681 -873958 -882522 -886192 -885134 -881034 
3699.620 -876702 -874321 -875313 -879711 -885696 -891516 -895616 -897732 
3703.478 -898757 -900113 -903354 -909206 -917142 -925870 -933310 -937509 
3707.335 -937145 -931921 -922531 -910992 -900113 -892574 -890954 -896542 
3711.192 -909206 -926102 -943493 -956354 -960288 -952915 -934467 -907388 
3715.050 -876272 -846015 -821840 -806627 -801038 -803055 -808545 -812282 
3718.907 -809736 -799053 -780962 -758769 -737235 -720795 -712360 -712526 
3722.765 -719175 -728966 -739286 -747820 -754998 -762043 -770874 -782517 
3726.622 -796308 -809372 -817706 -817806 -808115 -789462 -765549 -742098 
3730.479 -724202 -716660 -720961 -735151 -754700 -774546 -790719 -802923 
3734.337 -813076 -823725 -837020 -852000 -865790 -874421 -875214 -868005 
3738.194 -854910 -839070 -822667 -806263 -789627 -771337 -751756 -733663 
3742.052 -723210 -729164 -759033 -815821 -892442 -972388 -1033280 -1059625 
3745.909 -1048419 -1007959 -951957 -894591 -847933 -818996 -810265 -819393 
3749.767 -840426 -866517 -891979 -913174 -928119 -934731 -931061 -915554 
3753.624 -888573 -852265 -811654 -772462 -740179 -718612 -709317 -711335 
3757.481 -721788 -737698 -756056 -775174 -794225 -811654 -824916 -831530 
3761.339 -829215 -817276 -797697 -774182 -751889 -735151 -726683 -726485 
3765.196 -732174 -739650 -745042 -747192 -746729 -746464 -749639 -758405 
3769.054 -772793 -790719 -808016 -820385 -824982 -821013 -809835 -794324 
3772.911 -777787 -762440 -749540 -738790 -728437 -716561 -701675 -683150 
3776.769 -662936 -644177 -630447 -625252 -630116 -643780 -662705 -682025 
3780.626 -697739 -707729 -712327 -713915 -715503 -719902 -728139 -739749 
3784.483 -753212 -765913 -775769 -781359 -782616 -779143 -771800 -760852 
3788.341 -747820 -733961 -721159 -711533 -706273 -705546 -707729 -710342 
3792.198 -710673 -706770 -698830 -688575 -679378 -674416 -675706 -682290 
3796.056 -691222 -697176 -695191 -682687 -660587 -632862 -606757 -591205 
3799.913 -593720 -618867 -665318 -724302 -781160 -821047 -833878 -817739 
3803.771 -778051 -725393 -672828 -632796 -614400 -621381 -650331 -690825 
3807.628 -729594 -756056 -764987 -757379 -737864 -711798 -682918 -652812 
3811.485 -620885 -585514 -546996 -507317 -471804 -447145 -440161 -454261 
3815.343 -487889 -532369 -574859 -603713 -611786 -599246 -572377 -541039 
3819.200 -515855 -506125 -517411 -548915 -593455 -639016 -673754 -690031 
3823.058 -686623 -667700 -640373 -612448 -589749 -575852 -570822 -571252 
3826.915 -572112 -568439 -557188 -538458 -514399 -489379 -467865 -452805 
3830.772 -445358 -444067 -445987 -447344 -445027 -437248 -424305 -408251 
3834.630 -392096 -379682 -374253 -378391 -392825 -416162 -445325 -475776 
3838.487 -502716 -523401 -536638 -542893 -544415 -543985 -543521 -544779 
3842.345 -548651 -555170 -563906 -573502 -582039 -587797 -588095 -581278 
3846.202 -566388 -543422 -513538 -478456 -440459 -401299 -362600 -325883 
3850.060 -293236 -267938 -255818 -263700 -298468 -364387 -457737 -564833 
3853.917 -666112 -742660 -784038 -790057 -767666 -726584 -675508 -621712 
3857.774 -570193 -524029 -485142 -454162 -431157 -415368 -405338 -399015 
3861.632 -394745 -390905 -387859 -386667 -388753 -395109 -404312 -412852 
3865.489 -416030 -409906 -393089 -368625 -343000 -323930 -319692 -334922 
3869.347 -368658 -413216 -456810 -488981 -504106 -503742 -493582 -481832 
3873.204 -474849 -475478 -482031 -488981 -490007 -479979 -457373 -424173 
3877.062 -385376 -346874 -314262 -291879 -281812 -283005 -292375 -304991 
3880.919 -315420 -319228 -314659 -302507 -286514 -271812 -264892 -270620 
3884.776 -291581 -325519 -365579 -402292 -426689 -433739 -423511 -400836 
3888.634 -372697 -346874 -330022 -325949 -334889 -353396 -376272 -397360 
3892.491 -412323 -418579 -416096 -405338 -387098 -362202 -331280 -295355 
3896.349 -256448 -217867 -183126 -156165 -140266 -136391 -143281 -158252 
3900.206 -176932 -195744 -212734 -227306 -240883 -254891 -270885 -288733 
3904.063 -307474 -324492 -337107 -343828 -343828 -337471 -326247 -311811 
3907.921 -296249 -280985 -267276 -255620 -246248 -238598 -231247 -222703 
3911.778 -211277 -196009 -176932 -155867 -135099 -117974 -107374 -104889 
3915.636 -110521 -122379 -137385 -152489 -165340 -175011 -181635 -186173 
3919.493 -188756 -188756 -184947 -175873 -161498 -143115 -123572 -106844 
3923.351 -96608 -94686 -100583 -111713 -123704 -132714 -136027 -132979 
3927.208 -124698 -113535 -101212 -89353 -78884 -70039 -63579 -60631 -62486 
3931.548 -70205 -83556 -101146 -119994 -136855 -149176 -155702 -157358 
3935.405 -156165 -154443 -154211 -155635 -158252 -160041 -159544 -155768 
3939.262 -149176 -141459 -134801 -131157 -131522 -135563 -141823 -148050 
3943.120 -152091 -152091 -147487 -138743 -126917 -114198 -102239 -93129 
3946.977 -88193 -88193 -93328 -102769 -114926 -128176 -140399 -150005 
3950.835 -155437 -156265 -152323 -144473 -133708 -121849 -110587 -101146 
3954.692 -94355 -90446 -89055 -89518 -90810 -92467 -93759 -94521 -94156 
3959.032 -92566 -89055 -83589 -76300 -68283 -61094 -56788 -56423 -60664 
3963.371 -68813 -78586 -87796 -93957 -95415 -91837 -83821 -72325 -59339 
3967.711 -45987 -33298 -22066 -12491 -5069 -165 2219 2485 1259 -530 -1921 
3973.015 -2319 -1855 -198 2186 5235 9045 13618 18886 24486 29722 33798 36183 
3978.801 37244 37144 37211 38304 40425 43010 44998 44666 41055 34328 25248 
3984.105 15606 7422 2186 497 2418 7455 14512 23061 32041 40889 48610 54707 
3989.891 58750 60904 62064 63489 66471 71774 79462 88510 97458 104517 108759 
3995.195 109786 108030 104252 99148 92685 84963 76380 67068 58386 52189 
4000.017 49737 51924 
##END=
