
##TITLE=1731a_3_c
##JCAMP-DX=5.01  $$ Nicolet v. 1
##DATATYPE=INFRARED SPECTRUM
##ORIGIN=UniL
##OWNER=Nicolet
##LONGDATE=2011/09/22
##TIME=10:37:49
##SPECTROMETER/DATA SYSTEM=Nicolet iS5
##DATA PROCESSING=
Ratio against background
%Transmittance->Absorbance
Truncated
ElementMultiply or ElementDivide
##COMMENTS=
Number of sample scans: 32
Collection length: 51.20 sec
Sample gain: 2.0
Background collected on: Jeu Sep 22 10:31:57 2011 (GMT+02:00);
Number of background scans: 32
Background gain: 2.0
Sample spacing:  1.000
Number of scan points: 12415
Resolution points: 8192
Number of FFT points: 65536
Apodization: N-B fort;
Phase correction: Mertz;
Laser frequency: 15798.0 cm-1
Number of rejected sample scans: 0
Number of rejected background scans: 0
Bench serial number: ASB1000141;
##RESOLUTION=4.000
##XUNITS=1/CM
##YUNITS=ABSORBANCE
##FIRSTX=649.893372
##LASTX=4000.122314
##FIRSTY=0.103175
##MAXX=4000.122314
##MINX=649.893372
##MAXY=0.282056
##MINY=-0.001246
##XFACTOR=1.000000
##YFACTOR=1.000000E-009
##NPOINTS=6950
##DELTAX=0.482117
##ZPD=6100
##XYDATA=(X++(Y..Y))
649.893 103175152 102591392 102084744 101665128 101318888 101018120 
652.786 100730936 100438168 100137888 99843856 99574112 99343304 99155176 
656.161 99002696 98874288 98760184 98656032 98563184 98481880 98409432 
659.536 98336656 98251320 98145272 98017480 97875368 97732680 97602200 
662.911 97490664 97393912 97297400 97177576 97004624 96741768 96348216 
666.285 95785656 95036104 94129048 93161424 92275152 91585872 91132680 
669.660 90873600 90726856 90602912 90427952 90157632 89774520 89291376 
673.035 88738080 88154112 87569312 86998048 86440184 85888808 85338584 
676.410 84791952 84257792 83747552 83268336 82820360 82397080 81989656 
679.785 81591496 81200880 80818800 80446952 80083344 79722160 79356256 
683.159 78981040 78599568 78222064 77864160 77540312 77257696 77014432 
686.534 76800528 76603176 76410928 76218952 76028976 75845696 75672672 
689.909 75509616 75351472 75192192 75027976 74860992 74699216 74553448 
693.284 74433392 74343144 74280784 74239976 74214544 74201184 74200872 
696.659 74217056 74251616 74300480 74354112 74397528 74415856 74400320 
700.034 74349832 74271112 74175120 74072784 73970896 73871480 73774040 
703.408 73677960 73585512 73501640 73431512 73378000 73339312 73308640 
706.783 73277616 73238976 73190896 73137016 73085888 73048328 73036720 
710.158 73063544 73142976 73292168 73528992 73867072 74308232 74835792 
713.533 75409488 75966608 76438224 76759008 76883656 76797248 76514768 
716.908 76075904 75531024 74940792 74371928 73893832 73590424 73550184 
720.282 73847984 74528384 75571440 76879272 78262336 79477072 80272368 
723.657 80427976 79829224 78485544 76536856 74205464 71752400 69420200 
727.032 67369928 65681048 64352816 63332768 62544220 61913928 61389952 
730.407 60937856 60539060 60183292 59862456 59569796 59301216 59055924 
733.782 58836076 58644024 58479952 58340088 58218188 58107724 58005012 
737.156 57910048 57826196 57756512 57701752 57659448 57624976 57594028 
740.531 57564520 57538152 57518292 57507588 57506000 57510240 57515532 
743.906 57518520 57519316 57521512 57529644 57547044 57571368 57595656 
747.281 57608784 57601592 57568796 57512168 57438452 57357676 57278884 
750.656 57207400 57145112 57091480 57046064 57009980 56985840 56976280 
754.031 56982704 57004580 57040016 57087100 57145452 57216168 57301756 
757.405 57404260 57524344 57660996 57812720 57978768 58160036 58359492 
760.780 58580884 58828144 59103492 59408416 59744160 60113420 60522832 
764.155 60987004 61529124 62189056 63023232 64097592 65484248 67234720 
767.530 69354352 71772376 74327768 76782616 78830760 80182528 80625792 
770.905 80080960 78638752 76542504 74142144 71777456 69722384 68123608 
774.279 66979176 66170796 65512644 64831988 64001592 62979564 61801068 
777.654 60553952 59340148 58238764 57296992 56521056 55889076 55363508 
781.029 54907900 54495444 54109348 53744928 53404348 53094808 52825564 
784.404 52607572 52451528 52366816 52360540 52436912 52597212 52841204 
787.779 53168464 53580000 54078984 54671580 55365352 56170260 57097532 
791.154 58159504 59371220 60750400 62316248 64090832 66094860 68345456 
794.528 70853720 73621344 76640408 79892704 83355560 87004400 90821320 
797.903 94805480 98982848 103414776 108191632 113430016 119242560 125695688 
801.278 132765648 140284896 147930992 155181600 161391040 165898032 
804.171 168099136 167643296 164512912 159059952 151914480 143850848 
807.063 135643360 127848264 120768472 114429568 108646832 103124736 97577800 
810.438 91841088 85896240 79871552 73971608 68428728 63429996 59078892 
813.813 55405252 52370816 49901984 47908124 46305432 45024264 44005072 
817.188 43201484 42576336 42098200 41744888 41501252 41356652 41303740 
820.563 41335264 41443292 41621176 41864000 42170780 42543300 42985304 
823.938 43499728 44087032 44746092 45474324 46270416 47133480 48062436 
827.312 49053960 50100884 51194104 52326336 53499080 54728924 56052924 
830.687 57533236 59247780 61289588 63755200 66720084 70222784 74230664 
834.062 78623464 83158288 87471792 91139624 93686504 94705040 93955992 
837.437 91409824 87279896 81957128 75959976 69797320 63890912 58558096 
840.812 53963752 50153988 47087500 44674588 42806388 41373636 40285928 
844.186 39464904 38845072 38377720 38023912 37757560 37563768 37434052 
847.561 37362476 37342940 37367384 37427800 37519004 37640108 37794968 
850.936 37988616 38225116 38504424 38822284 39172792 39551928 39959800 
854.311 40401768 40885428 41418688 42008040 42657260 43371412 44159360 
857.686 45035216 46021060 47144928 48437524 49935588 51679640 53713316 
861.060 56084968 58834972 61981224 65496736 69290688 73198896 76969688 
864.435 80310552 82917360 84514648 84928512 84105752 82133592 79213000 
867.810 75637056 71741032 67825216 64150208 60898360 58164200 55978360 
871.185 54318400 53133300 52355080 51914228 51747196 51790944 51988508 
874.560 52288100 52641500 53012252 53378716 53737016 54101764 54501528 
877.935 54973140 55547676 56242816 57050676 57935868 58831600 59646952 
881.309 60288232 60665500 60717588 60427012 59823932 58983388 58003800 
884.684 56997928 56063556 55268968 54654440 54229424 53984200 53899224 
888.059 53954972 54135056 54425504 54814288 55287484 55829128 56424152 
891.434 57059140 57725632 58419416 59139220 59883564 60649420 61432012 
894.809 62225992 63027024 63831880 64637108 65435900 66215368 66956216 
898.183 67636184 68232192 68728160 69116760 69400496 69589088 69695584 
901.558 69734800 69720016 69666056 69589512 69509592 69449328 69433504 
904.933 69485256 69627240 69879400 70259048 70782848 71465400 72318584 
908.308 73351592 74569064 75972328 77561176 79335496 81297528 83451360 
911.683 85801640 88351432 91101088 94049672 97198080 100555560 104141968 
915.058 107991384 112148696 116659888 121566576 126891896 132631320 
917.950 138737104 145105920 151575424 157892256 163729264 168713056 
920.843 172433952 174547968 174847792 173326528 170217056 165979168 
923.736 161274544 156815264 153315888 151399040 151461264 153658416 
926.628 157840224 163584000 170181520 176733840 182345536 186173264 
929.521 187634464 186498688 182865664 177102224 169694672 161171280 
932.414 151983168 142479232 132940400 123577824 114570816 106092800 98292072 
935.789 91297984 85213176 80095104 75968776 72829552 70650776 69388640 
939.163 68978008 69330448 70311408 71736336 73387808 75005096 76329272 
942.538 77145680 77293288 76704248 75404480 73507408 71183088 68625584 
945.913 66033372 63564532 61331488 59399336 57785316 56475620 55435928 
949.288 54628136 54014476 53561748 53243932 53037824 52921928 52878216 
952.663 52891016 52949440 53048416 53186216 53362456 53576216 53823160 
956.037 54097860 54394708 54710284 55044712 55400848 55782216 56190508 
959.412 56623640 57077052 57545116 58023680 58511532 59009804 59520352 
962.787 60043220 60575588 61112276 61648100 62180420 62710636 63243448 
966.162 63784444 64338372 64906896 65489180 66083208 66688912 67308640 
969.537 67947432 68610064 69299824 70016840 70759336 71524856 72313736 
972.912 73129488 73978760 74868824 75804824 76788864 77819848 78895640 
976.286 80014784 81177640 82385304 83637712 84931088 86258240 87607944 
979.661 88969296 90333584 91694560 93048144 94390208 95713664 97009136 
983.036 98265944 99475480 100632880 101737664 102790512 103789576 104727304 
986.411 105589736 106360320 107022936 107568024 107995376 108313480 
989.304 108538512 108689552 108790256 108865560 108941648 109047728 
992.196 109210248 109450880 109783480 110211096 110728096 111322568 
995.089 111983232 112700736 113469776 114287592 115149968 116049464 
997.982 116975816 117917360 118864648 119813960 120765584 121721744 
1000.874 122682392 123641696 124588544 125509632 126393184 127233728 
1003.767 128033104 128800200 129547312 130288288 131039616 131819456 
1006.660 132650968 133563024 134585120 135744896 137062848 138547840 
1009.552 140197632 142001248 143943936 146006688 148167680 150400352 
1012.445 152667760 154926112 157130976 159242752 161239840 163122432 
1015.338 164913024 166646208 168358160 170078416 171821840 173591504 
1018.231 175384112 177196896 179033632 180908128 182842784 184870176 
1021.123 187033632 189382624 191977584 194881552 198149872 201825888 
1024.016 205929200 210454512 215372352 220638624 226204432 232013776 
1026.909 238007392 244113760 250232160 256239024 261984464 267297024 
1029.802 272013792 275978784 279049920 281110016 282056128 281809376 
1032.695 280330656 277629920 273779808 268905120 263181536 256808912 
1035.588 249983696 242908848 235774512 228755328 222028992 215754896 
1038.481 210071232 205100448 200928864 197612784 195178416 193615168 
1041.374 192870272 192830288 193322368 194089888 194796576 195085392 
1044.267 194586096 192993904 190139520 186001808 180723536 174563120 
1047.160 167867664 160996320 154261984 147931520 142182496 137109008 
1050.053 132741048 129052104 125980528 123442728 121353408 119632336 
1052.947 118208616 117029216 116051064 115237488 114555896 113970552 
1055.840 113442408 112935016 112412288 111844536 111210408 110494320 
1058.733 109687240 108786384 107796624 106732720 105619816 104495688 
1061.626 103404056 102389896 101497040 100759592 100202184 99839728 99676720 
1065.001 99706400 99907824 100245096 100662664 101086320 101437736 101635984 
1068.376 101615512 101339440 100799928 100020192 99043696 97929080 96735680 
1071.751 95514000 94304856 93132800 92008184 90929480 89887184 88869264 
1075.127 87865088 86871512 85893936 84947448 84051584 83228440 82497152 
1078.502 81870296 81353944 80948056 80648376 80446880 80331728 80287352 
1081.877 80292264 80321160 80350384 80360544 80344920 80311512 80284768 
1085.252 80299560 80395912 80615544 80992456 81553552 82317496 83293624 
1088.628 84482248 85872624 87443912 89163200 90989040 92881104 94801272 
1092.003 96721272 98623392 100493880 102317088 104069288 105713088 107202384 
1095.378 108493376 109552520 110373192 110982144 111444648 111851480 
1098.271 112306584 112909016 113720088 114747536 115926296 117127048 
1101.164 118159816 118802920 118860640 118182000 116703368 114458248 
1104.057 111572032 108235080 104656048 101052288 97606424 94449344 91668896 
1107.433 89302648 87349864 85782384 84555824 83618032 82911624 82384696 
1110.808 81989136 81680816 81423120 81181992 80925384 80626472 80261688 
1114.183 79814728 79278936 78657344 77962008 77209920 76421704 75617344 
1117.558 74814696 74029880 73276080 72563896 71900608 71289200 70728328 
1120.934 70211888 69732344 69282176 68855648 68449240 68059544 67679048 
1124.309 67294832 66885748 66425352 65888540 65256736 64524500 63702328 
1127.684 62816800 61905180 61006448 60158512 59389076 58712784 58132420 
1131.059 57639052 57216620 56843320 56496976 56157700 55810400 55447864 
1134.435 55071640 54691944 54324184 53986712 53697868 53471120 53315104 
1137.810 53232056 53218500 53265208 53358372 53481240 53613624 53735516 
1141.185 53829568 53882196 53885868 53838760 53743312 53604140 53426340 
1144.560 53215424 52977068 52718520 52449284 52180480 51923492 51688856 
1147.936 51483824 51312516 51176468 51076280 51012628 50987364 51002528 
1151.311 51059320 51156788 51291936 51459948 51656200 51877264 52121600 
1154.686 52388948 52678568 52988256 53314164 53650776 53992268 54334288 
1158.061 54673456 55006988 55331740 55642840 55933208 56195560 56422528 
1161.437 56608128 56748648 56840980 56882484 56869604 56797472 56661356 
1164.812 56457468 56184248 55842692 55435632 54967952 54445332 53874428 
1168.187 53264496 52626200 51973044 51320500 50683492 50075932 49509476 
1171.562 48992272 48530808 48130948 47798252 47539184 47360524 47267788 
1174.938 47265348 47356384 47543400 47830288 48223280 48731080 49364636 
1178.313 50135392 51053808 52130116 53373960 54795528 56408232 58226484 
1181.688 60266496 62544720 65074064 67864832 70920776 74237864 77796984 
1185.063 81556472 85450224 89372856 93184256 96726280 99818544 102291208 
1188.438 104007016 104865480 104824520 103901024 102170000 99749960 96787768 
1191.814 93449232 89886528 86235888 82612280 79097856 75753768 72622480 
1195.189 69728616 67086668 64701484 62569172 60678948 59013332 57551508 
1198.564 56268804 55140364 54143912 53258088 52464652 51748092 51093532 
1201.939 50488456 49923176 49391292 48891360 48425632 47999188 47616712 
1205.315 47280900 46990056 46739884 46523340 46333740 46166336 46018664 
1208.690 45890120 45781016 45691080 45620488 45570140 45543608 45547692 
1212.065 45591888 45687732 45845560 46073556 46376804 46757004 47214260 
1215.440 47747176 48353296 49028140 49764188 50550880 51375540 52224872 
1218.816 53088292 53959060 54834812 55717008 56609676 57518748 58450916 
1222.191 59415592 60424616 61490908 62628604 63848920 65157556 66553168 
1225.566 68026288 69560464 71131600 72712336 74271072 75773696 77188984 
1228.941 78490744 79663440 80707032 81637912 82489024 83302096 84127752 
1232.317 85018896 86025272 87199208 88591952 90252288 92230528 94571096 
1235.692 97309544 100471992 104071976 108111816 112583112 117468240 
1238.585 122737952 128344712 134226608 140300832 146467808 152629248 
1241.478 158689040 164563104 170186544 175502224 180456064 184992032 
1244.371 189042944 192531280 195374640 197480064 198753040 199105616 
1247.264 198457936 196758064 193991920 190187520 185412224 179759760 
1250.157 173339472 166257088 158615360 150520672 142081104 133421360 
1253.050 124683464 116009216 107547400 99437528 91791312 84701944 78231040 
1256.426 72405480 67224232 62659448 58664880 55179944 52139568 49480660 
1259.801 47140384 45064988 43209608 41536620 40019344 38639204 37382552 
1263.176 36239976 35203008 34262728 33410418 32637998 31938486 31306542 
1266.551 30737712 30226814 29767966 29354410 28979430 28638924 28331968 
1269.927 28061206 27831554 27648988 27518282 27442850 27425732 27471086 
1273.302 27585466 27778956 28062620 28446608 28936644 29530744 30216086 
1276.677 30966592 31746022 32504320 33182464 33723568 34073424 34195328 
1280.052 34076828 33732020 33199348 32530640 31785876 31017726 30264256 
1283.427 29550250 28886070 28274002 27713720 27205446 26751330 26354014 
1286.803 26015102 25734004 25508496 25336492 25216910 25149566 25134540 
1290.178 25169930 25250798 25370460 25520936 25696422 25894314 26114530 
1293.553 26357604 26622410 26904894 27198816 27498478 27802270 28114756 
1296.928 28446784 28814508 29234992 29724358 30296764 30963174 31731832 
1300.304 32606282 33582432 34642012 35748724 36850904 37879636 38760728 
1303.679 39429636 39835252 39952788 39785064 39361572 38731568 37954988 
1307.054 37100244 36230720 35401076 34655828 34021676 33510194 33118344 
1310.429 32833040 32636572 32510356 32440442 32416236 32429766 32473288 
1313.805 32537602 32612066 32687404 32756322 32816280 32868098 32914668 
1317.180 32957918 32997564 33031278 33056412 33072074 33080652 33086590 
1320.555 33094708 33107366 33123672 33139408 33149384 33150528 33142946 
1323.930 33130646 33119776 33117592 33131252 33168196 33238300 33354026 
1327.306 33529344 33777496 34106612 34515928 34995588 35528312 36095572 
1330.681 36679940 37270872 37862824 38453088 39038172 39611380 40162192 
1334.056 40679644 41153960 41579460 41955448 42284204 42570196 42817396 
1337.431 43031220 43218976 43390340 43559684 43742692 43952936 44200152 
1340.807 44488144 44816108 45182700 45588612 46038816 46541448 47105596 
1344.182 47739004 48446972 49233092 50100104 51050188 52082000 53184528 
1347.557 54328728 55466572 56524828 57414060 58047240 58344524 58253844 
1350.932 57759544 56883956 55685328 54245528 52668504 51058688 49512004 
1354.308 48113700 46922424 45971592 45268708 44798584 44530576 44426844 
1357.683 44453160 44580180 44785800 45054660 45374116 45734040 46129452 
1361.058 46562476 47045144 47596712 48239608 48988452 49840776 50772084 
1364.433 51737564 52678752 53524264 54202468 54644484 54787072 54588648 
1367.809 54034440 53145732 51976144 50606120 49129048 47626916 46167628 
1371.184 44795572 43530860 42381000 41348744 40440860 39672220 39062064 
1374.559 38624716 38361648 38257788 38287500 38421956 38642028 38943608 
1377.934 39339300 39855480 40529428 41409284 42548416 44008520 45852964 
1381.310 48125656 50830000 53896000 57175420 60425644 63339816 65609560 
1384.685 66932864 67083188 65953524 63591912 60223520 56207668 51991908 
1388.060 47974840 44429816 41491704 39162712 37368000 35997720 34946820 
1391.435 34125248 33462380 32910344 32435764 32018948 31653174 31340762 
1394.811 31088872 30904218 30787506 30732450 30728288 30762146 30824142 
1398.186 30909128 31018616 31159102 31339378 31568002 31849302 32182664 
1401.561 32562136 32978260 33419330 33872596 34327088 34774092 35206604 
1404.936 35619264 36006720 36363388 36685852 36974964 37238776 37491372 
1408.312 37751996 38039500 38367152 38740624 39157164 39609492 40089908 
1411.687 40595340 41127660 41691596 42291184 42926780 43594776 44291284 
1415.062 45015888 45776048 46588476 47477528 48471348 49593376 50854396 
1418.437 52240976 53709640 55189164 56594992 57850344 58894472 59691692 
1421.813 60233528 60538752 60659364 60677768 60704784 60848232 61189060 
1425.188 61765084 62568248 63563996 64712516 65988356 67380992 68888536 
1428.563 70509120 72233432 74047872 75944384 77930608 80031992 82279088 
1431.938 84697024 87290432 90045344 92935320 95942704 99073704 102357224 
1435.313 105837960 109548040 113481568 117573424 121722888 125835072 
1438.207 129846128 133724424 137442176 140955088 144171440 146950384 
1441.100 149133792 150547424 151039744 150509424 148905488 146246000 
1443.993 142617024 138184272 133172440 127830608 122430016 117210672 
1446.886 112366064 108042248 104311504 101170800 98541240 96300320 94310576 
1450.261 92457992 90687744 89011672 87503648 86259936 85369112 84869416 
1453.636 84734840 84877064 85165048 85459184 85621784 85566616 85294224 
1457.011 84910104 84583888 84476080 84699360 85298776 86277840 87620992 
1460.387 89298624 91266472 93454376 95775000 98107632 100297224 102178680 
1463.762 103581632 104377480 104524304 104084232 103205240 102059296 
1466.655 100813256 99591280 98470776 97499368 96692536 96036280 95484072 
1470.030 94958872 94362904 93593768 92588088 91356296 90003232 88694592 
1473.406 87603160 86852776 86492464 86519312 86905344 87619864 88634288 
1476.781 89917432 91428920 93109808 94886104 96681736 98417864 100031160 
1480.156 101484064 102766592 103903040 104944280 105964016 107043152 
1483.049 108266664 109729560 111528816 113764912 116527232 119866712 
1485.942 123766096 128105848 132671248 137128864 141056096 144011232 
1488.835 145550320 145328768 143195264 139235664 133778080 127288760 
1491.728 120271336 113129600 106115520 99372256 92945168 86847184 81119392 
1495.104 75840328 71136640 67157200 64020672 61779716 60408468 59830820 
1498.479 59947160 60661460 61895628 63578144 65637036 67998384 70572496 
1501.854 73260000 75961080 78551288 80887376 82797064 84040448 84324856 
1505.229 83336128 80837120 76831256 71662400 65936708 60243924 54954752 
1508.604 50182180 45876348 41941832 38306928 34939928 31852118 29072098 
1511.980 26617864 24489624 22663922 21104404 19771548 18630292 17650770 
1515.355 16803692 16061155 15400416 14807289 14282181 13834906 13474654 
1518.730 13199505 12991303 12815994 12638402 12435276 12213331 12008019 
1522.105 11866544 11819044 11863105 11969393 12097715 12216398 12310228 
1525.481 12386930 12467976 12577959 12728264 12912753 13112620 13309401 
1528.856 13494992 13674370 13861143 14068531 14300707 14550274 14801701 
1532.231 15039688 15260817 15478181 15718188 16002776 16339052 16713224 
1535.606 17100744 17474780 17816064 18117610 18381306 18616044 18830558 
1538.982 19028078 19203732 19350700 19469996 19574210 19680566 19800504 
1542.357 19930332 20052976 20143832 20185446 20174480 20126476 20068522 
1545.732 20028756 20022684 20048536 20091080 20131302 20158062 20172466 
1549.107 20189750 20229982 20309832 20432240 20586814 20756460 20927808 
1552.483 21097588 21273592 21470520 21700836 21967276 22260038 22560568 
1555.858 22847058 23102216 23313192 23471840 23575166 23630372 23660216 
1559.233 23698322 23779722 23922294 24121480 24358148 24605992 24839308 
1562.608 25033474 25172774 25252976 25283248 25283634 25277452 25282124 
1565.984 25300668 25322304 25327712 25298806 25225372 25110630 24970474 
1569.359 24829976 24713796 24636778 24603150 24608200 24644002 24700922 
1572.734 24767812 24831064 24871516 24868606 24806050 24681108 24513148 
1576.109 24340310 24206428 24137102 24130902 24163690 24204150 24224014 
1579.485 24204920 24141340 24036304 23898174 23734332 23549770 23345986 
1582.860 23124408 22888516 22645176 22401938 22164032 21930856 21696274 
1586.235 21451618 21191408 20917098 20638828 20371430 20130782 19928458 
1589.610 19770058 19657094 19590120 19571298 19604088 19689026 19820100 
1592.986 19979974 20142582 20280252 20368512 20394662 20359938 20277924 
1596.361 20168612 20052006 19946392 19866506 19825752 19839904 19925822 
1599.736 20099512 20374312 20756218 21245338 21837364 22526542 23305152 
1603.111 24161376 25076016 26017002 26938666 27789448 28511742 29053288 
1606.487 29375576 29456096 29293970 28907602 28332992 27614490 26796826 
1609.862 25925968 25042424 24181976 23376022 22645734 21999622 21432958 
1613.237 20929964 20467978 20022442 19573794 19110096 18632402 18156060 
1616.612 17709094 17323306 17022862 16818742 16706785 16672352 16694183 
1619.988 16749140 16817054 16882740 16941686 17001152 17079240 17197050 
1623.363 17369964 17601322 17882384 18198524 18537022 18892120 19263408 
1626.738 19651894 20054990 20463046 20860326 21231524 21566580 21865274 
1630.113 22134674 22384774 22621720 22844196 23042292 23200388 23301270 
1633.489 23329694 23276834 23143382 22942794 22698588 22439236 22188966 
1636.864 21960306 21752948 21557110 21358680 21142252 20894430 20608008 
1640.239 20283724 19931856 19568388 19210796 18870596 18549264 18237984 
1643.614 17919882 17575824 17188500 16749760 16264953 15755190 15252993 
1646.990 14794192 14408107 14109055 13896208 13756408 13670027 13611868 
1650.365 13550708 13450731 13270556 12974267 12554391 12056970 11577030 
1653.740 11205181 10979039 10875881 10847207 10845135 10838204 10811640 
1657.115 10762047 10694122 10614459 10528496 10437561 10339452 10230000 
1660.490 10106094 9967136 9815988 9658320 9501894 9355275 9225965 9119636 
1664.348 9038942 8982787 8945816 8919367 8891972 8851019 8785555 8689373 
1668.205 8563371 8416629 8263621 8120560 7999683 7906375 7839536 7793824 
1672.063 7760901 7730341 7690981 7631054 7541465 7420279 7277056 7131691 
1675.920 7006578 6917489 6866420 6844002 6834005 6821450 6797957 6763696 
1679.778 6726611 6697066 6682227 6679670 6677482 6655108 6592598 6478638 
1683.635 6322076 6153034 6012043 5927255 5901862 5919630 5957218 5996287 
1687.492 6024944 6038584 6037476 6024608 6003611 5978885 5955841 5940557 
1691.350 5938844 5953825 5983353 6019501 6048059 6053032 6021248 5949861 
1695.207 5851249 5752693 5683431 5658422 5672521 5704145 5726169 5712638 
1699.065 5648351 5535847 5400658 5281745 5210144 5195054 5222954 5271582 
1702.922 5318908 5349768 5355873 5335310 5292444 5236066 5178053 5128295 
1706.780 5093293 5074788 5070866 5077034 5088097 5099999 5110526 5119913 
1710.637 5129904 5142679 5159276 5178891 5198877 5216180 5228252 5234222 
1714.494 5234725 5230365 5220707 5204041 5178690 5145998 5113241 5093193 
1718.352 5100200 5143215 5222853 5331554 5457829 5589679 5717540 5837614 
1722.209 5950331 6059987 6172426 6292491 6422577 6562256 6709011 6859688 
1726.067 7011057 7159143 7298890 7424896 7530778 7612845 7670105 7706293 
1729.924 7726934 7736986 7737019 7720931 7676445 7588466 7447446 7258255 
1733.781 7047291 6854841 6720150 6661433 6671460 6727587 6804015 6880963 
1737.639 6945130 6991863 7022977 7045270 7066453 7092722 7126437 7166723 
1741.496 7210752 7255257 7297374 7334542 7364163 7384250 7392911 7389035 
1745.354 7372117 7342394 7299868 7244105 7174201 7088512 6985533 6863525 
1749.211 6721395 6559094 6379032 6186945 5991785 5804940 5636737 5493229 
1753.069 5375095 5276948 5189253 5100334 5000373 4883679 4751943 4613817 
1756.926 4482062 4368252 4277360 4206460 4146008 4084327 4011051 3921136 
1760.783 3815797 3702228 3590661 3490245 3406549 3340699 3290150 3250923 
1764.641 3218843 3189903 3159730 3124353 3081070 3029450 2973065 2918022 
1768.498 2870957 2835570 2810657 2789448 2763071 2723091 2666480 2598808 
1772.356 2532481 2481626 2455134 2453835 2470862 2496788 2523149 2545912 
1776.213 2564977 2582576 2600542 2618442 2633309 2640810 2638010 2625276 
1780.071 2606508 2588075 2575343 2570676 2571876 2574676 2574409 2569076 
1783.928 2559844 2550579 2545912 2548879 2559744 2576676 2597275 2619475 
1787.785 2642843 2666646 2689817 2708921 2718923 2714256 2691417 2650611 
1791.643 2597808 2542880 2495556 2462398 2444471 2438240 2438173 2439440 
1795.500 2439173 2436807 2432076 2424879 2414184 2399390 2379667 2356479 
1799.358 2332427 2311341 2296584 2290089 2291421 2298949 2310674 2325465 
1803.215 2343054 2363375 2385997 2409619 2431876 2450836 2465631 2476794 
1807.073 2486058 2495089 2504220 2512285 2517017 2516217 2509319 2498521 
1810.930 2487358 2479693 2478060 2482026 2489190 2496255 2500688 2502254 
1814.787 2502954 2505953 2514084 2528882 2549945 2575776 2604742 2636276 
1818.645 2670880 2709588 2752734 2799652 2848644 2897607 2944508 2988378 
1822.502 3028315 3063918 3094485 3119447 3139271 3156259 3174349 3197513 
1826.360 3228490 3266680 3308479 3347844 3378899 3399236 3411091 3421844 
1830.217 3440780 3475381 3527623 3593601 3665370 3735113 3797747 3852032 
1834.074 3900708 3948352 3999480 4056768 4120920 4191572 4269095 4355032 
1837.932 4452234 4563487 4689808 4829834 4980061 5135537 5292276 5447360 
1841.789 5599546 5748966 5896488 6043860 6193364 6347695 6509278 6678256 
1845.647 6851677 7022741 7181982 7318670 7422908 7488773 7514158 7501718 
1849.504 7456210 7382969 7285749 7166150 7024795 6863727 6686803 6500634 
1853.362 6312831 6128872 5951809 5781166 5614953 5451923 5292779 5140935 
1857.219 5000138 4872555 4757068 4649148 4543464 4435698 4325013 4214189 
1861.076 4108042 4010717 3923443 3844477 3770339 3698586 3629016 3564302 
1864.934 3507814 3461687 3424048 3390119 3352987 3308045 3254996 3199416 
1868.791 3150151 3116110 3101860 3106098 3123252 3146614 3170544 3192373 
1872.649 3210999 3225519 3233698 3231728 3215772 3183695 3136835 3079769 
1876.506 3019774 2962489 2911717 2866954 2825532 2784612 2742697 2700919 
1880.364 2661812 2627576 2598109 2570710 2541113 2505653 2462932 2414816 
1884.221 2365108 2317570 2274700 2236265 2200163 2164265 2127570 2091145 
1888.078 2057320 2028091 2004456 1985749 1970771 1959454 1952964 1953496 
1891.936 1963215 1981821 2006687 2032985 2056388 2074332 2087782 2100301 
1895.793 2115817 2136660 2161401 2186010 2206457 2220345 2228604 2235299 
1899.651 2244224 2257414 2272802 2285859 2290555 2283960 2267039 2245057 
1903.508 2224441 2210287 2203893 2202927 2202395 2197666 2187908 2174854 
1907.365 2162733 2155207 2153809 2157239 2162900 2168427 2173889 2180515 
1911.223 2190705 2205758 2224974 2245490 2264741 2281229 2295452 2309009 
1915.080 2322767 2334959 2341355 2336491 2316371 2281728 2238429 2196167 
1918.938 2163033 2143087 2133530 2127537 2116782 2096006 2065476 2030288 
1922.795 1997932 1974465 1961984 1957857 1957657 1957590 1956925 1957723 
1926.653 1963049 1974599 1990642 2006820 2018371 2022532 2020967 2017971 
1930.510 2018870 2027092 2042705 2062280 2082289 2100301 2117748 2137759 
1934.367 2162467 2191372 2219746 2240561 2248354 2241427 2223409 2202494 
1938.225 2185910 2177551 2174888 2171491 2159336 2134429 2098270 2058518 
1942.082 2025494 2006420 2003624 2013577 2030388 2048398 2066808 2087083 
1945.940 2112121 2142954 2176985 2208123 2230836 2242892 2245923 2245790 
1949.797 2248121 2256348 2269371 2282728 2291488 2294186 2293253 2294053 
1953.655 2300848 2313906 2327563 2333826 2324332 2295985 2252218 2201196 
1957.512 2152943 2113752 2084853 2062314 2041107 2019203 1999030 1986149 
1961.369 1985783 1998265 2018038 2035315 2040575 2029389 2004390 1972002 
1965.227 1940250 1913259 1888698 1860712 1823411 1775999 1724001 1677631 
1969.084 1645202 1630335 1629204 1633195 1633361 1625313 1611777 1600802 
1972.942 1600569 1615069 1642707 1678263 1717880 1763024 1821248 1902343 
1976.799 2012379 2146283 2289223 2419081 2515884 2568310 2576009 2547912 
1980.656 2496788 2434375 2366940 2298050 2229770 2165697 2112054 2075331 
1984.514 2059650 2063712 2081157 2103098 2122110 2135761 2146683 2159936 
1988.371 2178850 2201928 2223109 2235632 2234999 2224075 2211253 2208389 
1992.229 2224808 2262010 2313539 2367906 2414750 2447803 2468163 2480360 
1996.086 2489457 2497122 2500188 2492456 2470262 2434508 2391394 2350150 
1999.944 2318702 2299249 2287824 2275999 2255282 2222210 2179450 2134496 
2003.801 2095640 2068539 2054989 2052692 2059384 2074432 2099535 2136161 
2007.658 2181748 2229337 2266940 2283727 2274967 2245257 2205792 2171724 
2011.516 2154741 2157472 2174821 2196234 2213551 2223609 2230669 2242726 
2015.373 2266973 2304479 2349450 2392760 2426145 2446870 2459233 2471429 
2019.231 2490323 2518317 2553312 2589875 2625009 2659845 2699152 2748432 
2023.088 2809223 2875460 2935768 2978236 2996352 2992482 2978003 2967694 
2026.946 2974066 3000789 3043063 3088345 3126422 3151153 3163902 3171378 
2030.803 3181625 3200517 3228790 3266213 3313253 3372621 3450432 3550672 
2034.660 3672220 3807139 3942702 4064126 4162433 4234798 4286161 4323841 
2038.518 4353861 4378026 4394359 4400049 4395062 4384385 4376921 4382879 
2042.375 4408685 4453507 4510419 4570586 4626677 4675439 4719987 4766147 
2046.233 4819080 4881703 4952747 5028394 5104894 5178187 5245590 5303713 
2050.090 5348695 5376672 5385998 5379892 5367312 5360603 5373552 5414715 
2053.948 5484740 5574811 5670473 5757091 5825088 5872541 5905557 5933167 
2057.805 5962693 5997059 6034318 6069529 6098393 6119160 6133240 6143389 
2061.662 6150816 6154379 6150816 6136735 6111666 6078803 6044229 6013958 
2065.520 5991013 5973779 5957050 5935149 5905019 5868477 5831771 5802018 
2069.377 5784557 5779924 5783718 5789158 5790031 5783751 5771831 5759341 
2073.235 5750712 5749570 5756151 5768843 5785632 5805209 5827741 5853365 
2077.092 5881912 5911569 5939784 5964440 5985201 6004417 6024742 6049638 
2080.949 6080147 6114993 6151085 6185265 6215783 6243177 6269363 6296189 
2084.807 6323589 6349208 6369617 6381318 6382966 6375938 6363329 6347964 
2088.664 6330951 6310712 6284557 6250471 6209228 6164830 6123797 6093084 
2092.522 6077560 6078433 6093319 6118219 6148094 6179651 6210842 6240085 
2096.379 6265867 6286239 6300123 6307653 6312259 6319386 6334818 6362489 
2100.237 6401998 6449211 6497204 6539281 6571506 6594684 6613288 6632868 
2104.094 6658843 6693802 6737918 6789947 6848109 6911799 6981223 7055407 
2107.951 7133544 7212874 7290028 7362344 7428570 7489346 7545815 7598345 
2111.809 7646634 7688721 7723258 7750309 7771728 7792137 7815650 7845271 
2115.666 7881541 7921695 7962594 8001270 8036911 8070903 8105402 8141660 
2119.524 8179136 8215232 8247480 8274867 8299521 8326068 8360453 8407103 
2123.381 8467103 8537858 8614538 8692347 8768548 8842564 8915544 8988571 
2127.239 9061238 9130735 9194490 9250369 9299519 9345457 9392856 9445645 
2131.096 9505213 9570582 9638806 9708024 9777963 9849949 9925472 10003347 
2134.953 10079100 10146691 10199775 10236582 10260566 10279769 10303282 
2138.329 10337315 10381564 10429518 10471266 10497401 10503546 10491122 
2141.704 10466072 10435016 10401858 10366395 10324726 10273357 10210834 
2145.079 10139162 10063161 9987106 9911980 9835443 9752751 9659336 9554865 
2148.937 9443105 9328970 9217572 9109282 8999599 8881116 8746201 8590981 
2152.794 8417271 8230089 8035393 7837241 7636382 7432480 7228573 7034763 
2156.651 6867902 6749931 6699152 6722976 6812430 6944961 7091813 7225979 
2160.509 7331206 7402214 7442693 7458502 7456378 7440738 7413369 7375824 
2164.366 7330565 7279212 7223284 7162108 7094372 7018768 6936443 6851610 
2168.224 6770259 6698075 6636738 6583011 6530031 6468885 6394129 6305098 
2172.081 6207245 6110187 6023533 5953287 5900922 5862903 5833987 5808499 
2175.938 5782778 5754069 5720394 5679235 5627942 5566051 5495645 5422868 
2179.796 5355705 5300460 5259944 5231740 5209171 5184390 5152905 5115085 
2183.653 5076029 5042171 5018137 5003590 4994440 4984653 4970073 4950534 
2187.511 4930527 4916720 4913503 4921982 4938202 4956567 4971481 4979491 
2191.368 4981100 4978318 4972386 4963806 4951171 4933476 4912398 4892660 
2195.226 4880530 4881803 4898725 4928751 4965851 5002417 5034361 5061178 
2199.083 5086254 5113744 5145126 5177382 5204108 5217588 5213530 5193042 
2202.940 5162293 5130776 5106168 5092422 5088499 5089539 5090243 5087862 
2206.798 5082197 5076163 5071704 5069693 5069089 5067748 5064095 5059368 
2210.655 5056485 5059401 5069894 5087427 5108212 5127691 5142746 5153274 
2214.513 5161656 5170743 5182747 5196730 5209641 5218259 5220573 5218426 
2218.370 5216281 5219265 5230298 5249213 5271415 5291672 5304854 5309449 
2222.228 5307067 5301433 5295899 5291840 5288654 5284428 5277921 5269704 
2226.085 5261588 5256021 5254344 5255484 5256792 5255551 5251258 5245557 
2229.942 5243209 5248676 5264371 5289727 5320484 5350841 5376135 5394854 
2233.800 5407972 5418406 5429377 5442261 5457628 5474740 5493833 5516551 
2237.657 5545143 5581221 5624687 5672454 5718883 5758938 5788754 5808231 
2241.515 5819883 5828581 5838319 5851484 5868041 5886748 5906229 5926684 
2245.372 5949559 5976903 6010027 6048563 6090395 6132467 6172157 6207851 
2249.229 6238707 6264589 6285600 6301131 6310981 6315822 6318411 6322109 
2253.087 6331523 6349275 6375468 6406672 6437676 6462563 6477394 6480522 
2256.944 6473526 6458762 6438719 6414742 6386967 6355461 6320866 6285129 
2260.802 6250942 6221093 6197028 6178643 6164897 6154076 6146246 6142179 
2264.659 6144061 6153101 6169502 6190608 6213194 6233228 6248555 6258875 
2268.517 6265833 6271716 6278137 6285633 6293466 6300526 6306409 6311217 
2272.374 6315856 6321470 6327925 6334313 6338886 6340634 6339289 6336768 
2276.231 6335490 6338146 6346417 6360102 6377686 6397694 6418340 6438685 
2280.089 6458695 6477898 6495556 6510455 6521555 6528383 6531948 6533832 
2283.946 6536355 6540627 6546782 6553476 6559094 6562592 6564207 6565552 
2287.804 6568243 6573491 6580387 6586308 6587822 6582675 6570329 6552601 
2291.661 6533395 6516947 6506150 6502249 6504468 6510792 6519268 6528416 
2295.519 6537633 6547018 6556201 6564442 6570631 6574130 6574567 6572650 
2299.376 6569858 6567301 6565586 6564173 6561751 6557075 6549507 6539483 
2303.233 6528013 6516678 6506116 6496363 6486979 6477528 6468044 6459267 
2307.091 6452574 6448976 6448740 6450893 6453516 6454726 6453516 6449783 
2310.948 6444637 6439862 6436802 6436029 6437239 6439358 6441039 6441140 
2314.806 6438853 6433574 6424696 6411783 6394835 6374290 6351091 6326749 
2318.663 6302812 6280120 6259144 6239412 6220152 6200691 6180593 6159554 
2322.521 6136903 6111128 6079878 6040466 5991013 5931622 5864246 5792717 
2326.378 5722073 5656978 5600621 5554540 5518128 5490175 5468969 5453333 
2330.235 5442831 5436926 5434946 5435886 5438335 5441187 5444207 5448065 
2334.093 5453836 5462325 5473666 5486987 5501014 5514571 5527155 5539740 
2337.950 5553667 5570414 5590887 5615389 5643115 5673394 5705857 5740438 
2341.808 5777741 5818003 5861358 5907975 5958797 6015738 6082734 6164192 
2345.665 6263211 6381083 6514895 6658304 6802097 6936645 7052612 7141897 
2349.522 7198927 7220622 7206641 7159514 7084673 6989910 6883319 6773321 
2353.380 6666446 6566763 6476553 6396248 6325875 6265833 6216757 6179114 
2357.237 6153202 6138180 6132703 6134819 6143053 6156361 6174476 6197297 
2361.095 6224388 6254539 6286608 6320193 6356000 6396080 6443999 6502988 
2364.952 6574736 6658539 6751278 6848748 6946644 7042105 7134857 7225508 
2368.810 7315334 7405112 7494537 7582936 7669768 7755672 7842606 7933438 
2372.667 8030701 8135110 8246399 8362141 8480078 8598248 8715707 8833096 
2376.524 8951735 9072606 9196183 9322030 9449166 9576306 9702534 9826901 
2380.382 9948795 10067027 10180338 10287674 10388351 10482500 10571170 
2383.757 10655511 10736913 10815546 10890795 10961504 11026243 11084464 
2387.132 11136337 11183185 11227011 11269413 11311683 11354365 11397596 
2390.508 11441308 11484956 11528404 11571108 11612387 11651049 11686583 
2393.883 11718444 11747481 11774682 11802361 11832153 11865284 11902505 
2397.258 11943713 11988875 12037893 12090799 12147802 12208730 12273007 
2400.633 12340021 12408886 12479262 12551356 12625713 12703221 12783848 
2404.009 12867562 12953408 13040707 13129456 13220341 13314662 13413616 
2407.384 13517687 13626467 13738693 13853241 13969769 14089100 14212916 
2410.759 14342793 14479425 14621411 14765807 14908230 15044730 15172833 
2414.134 15291397 15401308 15503624 15599267 15688267 15769895 15842674 
2417.510 15905878 15959669 16005080 16044067 16078861 16111802 16145227 
2420.885 16181063 16221337 16267290 16319856 16378723 16443070 16511384 
2424.260 16582532 16656067 16733024 16815678 16906614 17008250 17121836 
2427.635 17247590 17385068 17533286 17691768 17860082 18037990 18225164 
2431.010 18420610 18623340 18831942 19045872 19265036 19490302 19722552 
2434.386 19962454 20210022 20464746 20725670 20992034 21263884 21541164 
2437.761 21823670 22110652 22400858 22692932 22985484 23278512 23572542 
2441.136 23868452 24166630 24465962 24764304 25058360 25345098 25623168 
2444.511 25892942 26156688 26417884 26679660 26943108 27208622 27474300 
2447.887 27737772 27996740 28249602 28495042 28732582 28961968 29183144 
2451.262 29396208 29602000 29801890 29997826 30191896 30385982 30581400 
2454.637 30778826 30978548 31180284 31383894 31589028 31795322 32001756 
2458.012 32206930 32409058 32606530 32797448 32980156 33153356 33315744 
2461.388 33466280 33604588 33731088 33847452 33956536 34061564 34166472 
2464.763 34274880 34389956 34514820 34652668 34806828 34981512 35180444 
2468.138 35406684 35662136 35947072 36260796 36601456 36967780 37358500 
2471.513 37772272 38207780 38662456 39132688 39614136 40102116 40592792 
2474.889 41083188 41571072 42053592 42527260 42986880 43426076 43837940 
2478.264 44216184 44556056 44855084 45112004 45326964 45500628 45634104 
2481.639 45728188 45784696 45805612 45793532 45751416 45682392 45589312 
2485.014 45475648 45344944 45200572 45046356 44885172 44718032 44545188 
2488.390 44364820 44174988 43973104 43757456 43526752 43280252 43016952 
2491.765 42735452 42433500 42109156 41760716 41387668 40990544 40570860 
2495.140 40129880 39668660 39187076 38684948 38161980 37618972 37058384 
2498.515 36483416 35898452 35307368 34713860 34120624 33529378 32941834 
2501.891 32359258 31783380 31215780 30658162 30111880 29577986 29058104 
2505.266 28553530 28066366 27599200 27153454 26730468 26329968 25950730 
2508.641 25590800 25248480 24922922 24613846 24322508 24049892 23797046 
2512.016 23564532 23352244 23159914 22987616 22835498 22703546 22591632 
2515.392 22498764 22422802 22361680 22313018 22275174 22247622 22230464 
2518.767 22223872 22228580 22244308 22270920 22307924 22355156 22412264 
2522.142 22479328 22555472 22639380 22728508 22820414 22912232 23001832 
2525.517 23087644 23168548 23243242 23310220 23367244 23412318 23442778 
2528.893 23457222 23454704 23435154 23398612 23345638 23277148 23193886 
2532.268 23097500 22990270 22874546 22753194 22628420 22502114 22375494 
2535.643 22249366 22124528 22002202 21883776 21770716 21663882 21563934 
2539.018 21470312 21382418 21299100 21219172 21141486 21065134 20988728 
2542.394 20911258 20832236 20751768 20671214 20592026 20516466 20445644 
2545.769 20379764 20317298 20255672 20192598 20126476 20057280 19986360 
2549.144 19916038 19848436 19784762 19725396 19669748 19617088 19566966 
2552.519 19519138 19474014 19431566 19391444 19353090 19315850 19279340 
2555.895 19244322 19211768 19182952 19158470 19138004 19119828 19101336 
2559.270 19080042 19054146 19022124 18983632 18938602 18887206 18829936 
2562.645 18767690 18702030 18635480 18570878 18511056 18457844 18411692 
2566.020 18371802 18337134 18306270 18279106 18256022 18238674 18228274 
2569.396 18225440 18230000 18240542 18255746 18273852 18294070 18315532 
2572.771 18337790 18360532 18383242 18405920 18428598 18452450 18478970 
2576.146 18509360 18544526 18584018 18626834 18670898 18714380 18756170 
2579.521 18795922 18834400 18872810 18912506 18955214 19002082 19054666 
2582.896 19113940 19180738 19254990 19335906 19421344 19509156 19597296 
2586.272 19684864 19771756 19859360 19949132 20042428 20139494 20239668 
2589.647 20341880 20444500 20546482 20647098 20746418 20844160 20939908 
2593.022 21033206 21123292 21209778 21292488 21371872 21448066 21521178 
2596.397 21591062 21657160 21719054 21777020 21831894 21885450 21939326 
2599.773 21995266 22054208 22116684 22182932 22253306 22328330 22409056 
2603.148 22496252 22590446 22691186 22797400 22907620 23020768 23136220 
2606.523 23254216 23375846 23502234 23634640 23774088 23920896 24075422 
2609.898 24236978 24404832 24577730 24753888 24931450 25108700 25284230 
2613.274 25457340 25627634 25795040 25959452 26120408 26277304 26429504 
2616.649 26577354 26721412 26862770 27002446 27140932 27277486 27410592 
2620.024 27538158 27658346 27770020 27873384 27969174 28059120 28144452 
2623.399 28226336 28305442 28382014 28456548 28529292 28600454 28670142 
2626.775 28737964 28803106 28864964 28923150 28978154 29030792 29082444 
2630.150 29134032 29185802 29237082 29286810 29333246 29375362 29412660 
2633.525 29445246 29473790 29498826 29520778 29540142 29556670 29571070 
2636.900 29583272 29594338 29604732 29615090 29626050 29638218 29652302 
2640.276 29669224 29690048 29715770 29747100 29784218 29826662 29874326 
2643.651 29926932 29984478 30047604 30116530 30191400 30271466 30355636 
2647.026 30442522 30530814 30619976 30710222 30802300 30897174 30995272 
2650.401 31096632 31200398 31305902 31411960 31518228 31624590 31731050 
2653.777 31838250 31946082 32054976 32165360 32277626 32392566 32511000 
2657.152 32633178 32758966 32887612 33018156 33149134 33279862 33410062 
2660.527 33540118 33670608 33802392 33935360 34069840 34204932 34340252 
2663.902 34474928 34608460 34740384 34871056 35000620 35129752 35258924 
2667.278 35389388 35521304 35654908 35790100 35926272 36062628 36198700 
2670.653 36334172 36469756 36606140 36744840 36887084 37033992 37185892 
2674.028 37343080 37505568 37673140 37845252 38021488 38201236 38383912 
2677.403 38568732 38755368 38943680 39133960 39326496 39521588 39719632 
2680.779 39920644 40124504 40331296 40541392 40755008 40973316 41197020 
2684.154 41426816 41662932 41905488 42154392 42409020 42669432 42935120 
2687.529 43205692 43480900 43760536 44044716 44333996 44628976 44930444 
2690.904 45238812 45553876 45874912 46200536 46529684 46861628 47196824 
2694.280 47536304 47881744 48234576 48595508 48964420 49340508 49722536 
2697.655 50109472 50501036 50897124 51298052 51704160 52115472 52531620 
2701.030 52952136 53376092 53802604 54230924 54660040 55088868 55516312 
2704.405 55941272 56362840 56780820 57194700 57604056 58008380 58406644 
2707.781 58797796 59180832 59555468 59921752 60281040 60634676 60983764 
2711.156 61329540 61672084 62011300 62346692 62677748 63003504 63323260 
2714.531 63635536 63938976 64231560 64511432 64776748 65025800 65257540 
2717.906 65471308 65666712 65843776 66003548 66148452 66281980 66408752 
2721.281 66534288 66664024 66802732 66954636 67122672 67308992 67514864 
2724.657 67741360 67988664 68256656 68544800 68851808 69176280 69517448 
2728.032 69874296 70245968 70632064 71031152 71440992 71859160 72282424 
2731.407 72707704 73132784 73555720 73974944 74389504 74797296 75196328 
2734.782 75583944 75957648 76315368 76655784 76978432 77283032 77569704 
2738.158 77839232 78092312 78330864 78557632 78776256 78990696 79205368 
2741.533 79423968 79649912 79886248 80135424 80400016 80682296 80983992 
2744.908 81305880 81647752 82008224 82384944 82774856 83174464 83579112 
2748.283 83983800 84382240 84766736 85129328 85462368 85759136 86015536 
2751.659 86229264 86400320 86529424 86618472 86668592 86681096 86656336 
2755.034 86594456 86494888 86355968 86175360 85949832 85675656 85350152 
2758.409 84971384 84539240 84054928 83521072 82940944 82317616 81655344 
2761.784 80958512 80232664 79485392 78724696 77959552 77198760 76450472 
2765.160 75720952 75016200 74340936 73699832 73097224 72537376 72024136 
2768.535 71560296 71147640 70786512 70475960 70214304 69999200 69827752 
2771.910 69697144 69603472 69542920 69511264 69504040 69516400 69543816 
2775.285 69581344 69623464 69665008 69699944 69722736 69728336 69712080 
2778.661 69670296 69600712 69502008 69374096 69218752 69039144 68839848 
2782.036 68626792 68406352 68184392 67965720 67753712 67550048 67355264 
2785.411 67168232 66987724 66811160 66635096 66455236 66265844 66061376 
2788.786 65836408 65587012 65311344 65009668 64684988 64341256 63983812 
2792.162 63618384 63250616 62886036 62530404 62188868 61866896 61569364 
2795.537 61300428 61063916 60863100 60700476 60578372 60498684 60462316 
2798.912 60469780 60520244 60612692 60745328 60916124 61123148 61364228 
2802.287 61636908 61938576 62265228 62612796 62976612 63352124 63735516 
2805.663 64123436 64512664 64900316 65283076 65657072 66017628 66360256 
2809.038 66679636 66971020 67229144 67449376 67626896 67757424 67837688 
2812.413 67866040 67842056 67767152 67644048 67476664 67269344 67027316 
2815.788 66756368 66463380 66156208 65844468 65537764 65246456 64980848 
2819.164 64749552 64560600 64420184 64332604 64299912 64321844 64396048 
2822.539 64517616 64679796 64875232 65095500 65332404 65578228 65825344 
2825.914 66066624 66295408 66504932 66689528 66844360 66965924 67052448 
2829.289 67103988 67122352 67110328 67072316 67013280 66938744 66854252 
2832.665 66764944 66674576 66586540 66502772 66424468 66352768 66288924 
2836.040 66234240 66190548 66159912 66144632 66147140 66170836 66219492 
2839.415 66299000 66415504 66576772 66790908 67066096 67410448 67832296 
2842.790 68340184 68943640 69652680 70476424 71422128 72492040 73680672 
2846.166 74971072 76332944 77723544 79083272 80344200 81435104 82284056 
2849.541 82833672 83046000 82908376 82435248 81667264 80665456 79497328 
2852.916 78234008 76941360 75669520 74457896 73331512 72302464 71374248 
2856.291 70542992 69800440 69135208 68534480 67985832 67477048 66997856 
2859.667 66539652 66095324 65658616 65223924 64785516 64338104 63876904 
2863.042 63398132 62900244 62383644 61851840 61310348 60767088 60231820 
2866.417 59715072 59227580 58779696 58380340 58036824 57754392 57535844 
2869.792 57381460 57288332 57250756 57259716 57303724 57369700 57443592 
2873.167 57512580 57566752 57598872 57605532 57586576 57543788 57479904 
2876.543 57397416 57298920 57185968 57060684 56925056 56781496 56632664 
2879.918 56481432 56330176 56181308 56036788 55898836 55769744 55651652 
2883.293 55546320 55454716 55376944 55312136 55259188 55217456 55186412 
2886.668 55166964 55159888 55166400 55187016 55221860 55270248 55330988 
2890.044 55403104 55486264 55580252 55686196 55805388 55940032 56092700 
2893.419 56266804 56465956 56694276 56955540 57253176 57589036 57962752 
2896.794 58371204 58808452 59264492 59726976 60181196 60611548 61004276 
2900.169 61349308 61641644 61882632 62080256 62246988 62397452 62547432 
2903.545 62711516 62901048 63126184 63394608 63712800 64087376 64524576 
2906.920 65031224 65615296 66285840 67053528 67930808 68929464 70059976 
2910.295 71326960 72726232 74240848 75838704 77476024 79094808 80628912 
2913.670 82015152 83191760 84109256 84736536 85060200 85087080 84840608 
2917.046 84358816 83686160 82868112 81950600 80971688 79962800 78949368 
2920.421 77948568 76972536 76028808 75121128 74251024 73418528 72623496 
2923.796 71866200 71147760 70469720 69833856 69241560 68692608 68185552 
2927.171 67716528 67280360 66869556 66476048 66091424 65707332 65316996 
2930.547 64915932 64502516 64078392 63648268 63219764 62800908 62400168 
2933.922 62025060 61681096 61372432 61101368 60868972 60675484 60520092 
2937.297 60401920 60319180 60270148 60253592 60268892 60316292 60397008 
2940.672 60511940 60661344 60843812 61055300 61289208 61536300 61784296 
2944.048 62019864 62228100 62393396 62502204 62542840 62507904 62396228 
2947.423 62213188 61971056 61686368 61379912 61073108 60784204 60528548 
2950.798 60316248 60151892 60035836 59964848 59933616 59935560 59964048 
2954.173 60012932 60076280 60149420 60228276 60309588 60391028 60471456 
2957.549 60550488 60629304 60709548 60793768 60884028 60981628 61086916 
2960.924 61199016 61316032 61435904 61556952 61678192 61799312 61920424 
2964.299 62041880 62163444 62284580 62404376 62522060 62637024 62748992 
2967.674 62858424 62965736 63072272 63179484 63289448 63405344 63530236 
2971.050 63667104 63818448 63985044 64165912 64358808 64560248 64766132 
2974.425 64972424 65175264 65370732 65554336 65721252 65865940 65983452 
2977.800 66069552 66121636 66138996 66122948 66076032 66001928 65904968 
2981.175 65790184 65662668 65528168 65391952 65258352 65129416 65004168 
2984.551 64878844 64745828 64595356 64417960 64203792 63946536 63643052 
2987.926 63294008 62903232 62476912 62022232 61545656 61052168 60544964 
2991.301 60025528 59494700 58954088 58406604 57856856 57310868 56773872 
2994.676 56249832 55739304 55239432 54744072 54245228 53735216 53207788 
2998.052 52659864 52091672 51506320 50908896 50305264 49701432 49102780 
3001.427 48512952 47935284 47371612 46822952 46289800 45772068 45269408 
3004.802 44781760 44308968 43851208 43408576 42981320 42569028 42170856 
3008.177 41785888 41412524 41049644 40696164 40351476 40014876 39685836 
3011.552 39363716 39047744 38737220 38431548 38130360 37833252 37540284 
3014.928 37251408 36966624 36686212 36410516 36140040 35875740 35618364 
3018.303 35368612 35126912 34893212 34667564 34449892 34240212 34039340 
3021.678 33847916 33666812 33496954 33339392 33194840 33064708 32950732 
3025.053 32855090 32780118 32727454 32697904 32690548 32702122 32727488 
3028.429 32759286 32789730 32809276 32808918 32780868 32718662 32618496 
3031.804 32479718 32304536 32097604 31865240 31614434 31351664 31082394 
3035.179 30811158 30541336 30275198 30014406 29760230 29513046 29272880 
3038.554 29038868 28810330 28586156 28365674 28148836 27936028 27727530 
3041.930 27524318 27326920 27135642 26951112 26773708 26603774 26441478 
3045.305 26286738 26139340 25998464 25864068 25735904 25614382 25500346 
3048.680 25394136 25295576 25203988 25117442 25033826 24951242 24868780 
3052.055 24786194 24704394 24624330 24546490 24471184 24397892 24326398 
3055.431 24256634 24189122 24125192 24066212 24013016 23965850 23924184 
3058.806 23886866 23853226 23823018 23796836 23775486 23760192 23751618 
3062.181 23749938 23754838 23766248 23784096 23808456 23839714 23877728 
3065.556 23921350 23968932 24018026 24065616 24109186 24146208 24174548 
3068.932 24192380 24198020 24189998 24167332 24129992 24078680 24015398 
3072.307 23942812 23863762 23780806 23696328 23611968 23529412 23450052 
3075.682 23374972 23305012 23240128 23179206 23120772 23062452 23002252 
3079.057 22939198 22873218 22805188 22736852 22669858 22605452 22544130 
3082.433 22486132 22431210 22379122 22329796 22283092 22239042 22197334 
3085.808 22157966 22120728 22085864 22053476 22023952 21997496 21973866 
3089.183 21952778 21934028 21917196 21902316 21889874 21880222 21873740 
3092.558 21870606 21870222 21872104 21875762 21881094 21888378 21898134 
3095.934 21911270 21928140 21948874 21972782 21999030 22026532 22054314 
3099.309 22081646 22108106 22133592 22158558 22183280 22208354 22234194 
3102.684 22261188 22289370 22318250 22347762 22377518 22407556 22438538 
3106.059 22471092 22505812 22542630 22580358 22617740 22652576 22683192 
3109.435 22709166 22731022 22750784 22770792 22793592 22820972 22853800 
3112.810 22891660 22933818 22978742 23025240 23071886 23117804 23161906 
3116.185 23203846 23243242 23280120 23314836 23347420 23377840 23405710 
3119.560 23430014 23449878 23464846 23475198 23481774 23486810 23492266 
3122.936 23499924 23510734 23524584 23540744 23558270 23576566 23595492 
3126.311 23615748 23638244 23663716 23692898 23725126 23759666 23794912 
3129.686 23829002 23860682 23888966 23914208 23937104 23959864 23984758 
3133.061 24013506 24047546 24086666 24129782 24175004 24220266 24264096 
3136.437 24306214 24347318 24388148 24430102 24473604 24518442 24563740 
3139.812 24608410 24651614 24693102 24733226 24772268 24810610 24848816 
3143.187 24887202 24926502 24968194 25013784 25065030 25122918 25187274 
3146.562 25256452 25327748 25398246 25465666 25528878 25588022 25644434 
3149.938 25699446 25754114 25808614 25862486 25915064 25966242 26016194 
3153.313 26065834 26116292 26168548 26222536 26277656 26332890 26387320 
3156.688 26440490 26492928 26545898 26600814 26659082 26721554 26787770 
3160.063 26856742 26926644 26996100 27064014 27130176 27195078 27260518 
3163.438 27327732 27398202 27472358 27549842 27629354 27708740 27786692 
3166.814 27861832 27933732 28003100 28070712 28137666 28204660 28271810 
3170.189 28338968 28405786 28471940 28537430 28603038 28669256 28737114 
3173.564 28806824 28878600 28952014 29026470 29100974 29174924 29247610 
3176.939 29319032 29389472 29460066 29531772 29605654 29682314 29761720 
3180.315 29842952 29924908 30006100 30085636 30163234 30239352 30314740 
3183.690 30390390 30467012 30544642 30623140 30702292 30781956 30862880 
3187.065 30945776 31031392 31120338 31212752 31307538 31403698 31500198 
3190.440 31596188 31691592 31786770 31882856 31980998 32081802 32186054 
3193.816 32293510 32403346 32514356 32624710 32733132 32838688 32941368 
3197.191 33042148 33142698 33245056 33350698 33460304 33573372 33688620 
3200.566 33804468 33919488 34033288 34146184 34259176 34373280 34489276 
3203.941 34607060 34726172 34846104 34965816 35084848 35202468 35318328 
3207.317 35431668 35541800 35648468 35751924 35853032 35953480 36055212 
3210.692 36159592 36267244 36377872 36491164 36606176 36722448 36840084 
3214.067 36959340 37080252 37202820 37326004 37448640 37569760 37688892 
3217.442 37806284 37922876 38039572 38157348 38276276 38396072 38516296 
3220.818 38636556 38756672 38877140 38998008 39119596 39241404 39363172 
3224.193 39484428 39604992 39725008 39844988 39965432 40086456 40207700 
3227.568 40328568 40447988 40565472 40680444 40792896 40902832 41010132 
3230.943 41115276 41218224 41319520 41420256 41521668 41624420 41729236 
3234.319 41836016 41944136 42052204 42159900 42266420 42372088 42477160 
3237.694 42582220 42687780 42793880 42901140 43009780 43120680 43234352 
3241.069 43350764 43469036 43587048 43702564 43813492 43919024 44020292 
3244.444 44119896 44221796 44329516 44445088 44568688 44698824 44832528 
3247.820 44966788 45099836 45230940 45360836 45491064 45623096 45758556 
3251.195 45898152 46042096 46189920 46340892 46493912 46647684 46801288 
3254.570 46954172 47106296 47258328 47411448 47566248 47723392 47882560 
3257.945 48043156 48204324 48365220 48526180 48687492 48850052 49014416 
3261.321 49180436 49347336 49514564 49681224 49847684 50014624 50183780 
3264.696 50356388 50533492 50714804 50899548 51086640 51275044 51464012 
3268.071 51653516 51843848 52035416 52228460 52423192 52619320 52816660 
3271.446 53014912 53213852 53412964 53612088 53811080 54010128 54210016 
3274.822 54411868 54616792 54825680 55039028 55256704 55478132 55702844 
3278.197 55930836 56162792 56399512 56641988 56890492 57144316 57402636 
3281.572 57663912 57927124 58191968 58458728 58727996 59001036 59278240 
3284.947 59560140 59847248 60139752 60438324 60743384 61055148 61373044 
3288.323 61696104 62023264 62353656 62687508 63025916 63370636 63723588 
3291.698 64085760 64457232 64836988 65223692 65615684 66012540 66414116 
3295.073 66820668 67232896 67650704 68073728 68501816 68934672 69372936 
3298.448 69817480 70269256 70729152 71197416 71673888 72157992 72649504 
3301.823 73148744 73656168 74172408 74697880 75232584 75776448 76329032 
3305.199 76890536 77461408 78042304 78633952 79236704 79850608 80475464 
3308.574 81111608 81759208 82418912 83091456 83776880 84474312 85182296 
3311.949 85899472 86624872 87358616 88102000 88856576 89623760 90403912 
3315.324 91196808 92001176 92816192 93641616 94477592 95324840 96183496 
3318.700 97052760 97930704 98815048 99703312 100594240 101487496 102383608 
3322.075 103282744 104184584 105088096 105991752 106894032 107794368 
3324.968 108692360 109587872 110480264 111367432 112246256 113113352 
3327.861 113965384 114799808 115615504 116411384 117186368 117938264 
3330.754 118664160 119361008 120026120 120658176 121256592 121821568 
3333.647 122351976 122846088 123300936 123713496 124081936 124406136 
3336.540 124687432 124928576 125131176 125295536 125420424 125502824 
3339.433 125539584 125528576 125468016 125357448 125196416 124984016 
3342.326 124718960 124399560 124024712 123593984 123107464 122566120 
3345.219 121969672 121318400 120611768 119850160 119035192 118170208 
3348.113 117260064 116310112 115325280 114309832 113266000 112195584 
3351.006 111100072 109980800 108840192 107680184 106503168 105310992 
3353.899 104105664 102889728 101666384 100440128 99216040 97998960 96793024 
3357.274 95601000 94424512 93264744 92122776 91000600 89900512 88825112 
3360.649 87776416 86755056 85760224 84789976 83841432 82912192 82000144 
3364.024 81104824 80226128 79365208 78523648 77703176 76905568 76132952 
3367.400 75386384 74666392 73972312 73302520 72654672 72026168 71414472 
3370.775 70817680 70233928 69661976 69100016 68546200 67998544 67455336 
3374.150 66915160 66377944 65844312 65315804 64794056 64280196 63775196 
3377.525 63279212 62792064 62313152 61841948 61376824 60916432 60458200 
3380.901 59999692 59538668 59073120 58602988 58128936 57652860 57177536 
3384.276 56705264 56237800 55776076 55320264 54869512 54423288 53981008 
3387.651 53542292 53107276 52675948 52248188 51823836 51402360 50983152 
3391.026 50565804 50150492 49737844 49329224 48925960 48529180 48138908 
3394.402 47754684 47374640 46997404 46621564 46246860 45874396 45506408 
3397.777 45145052 44792560 44449088 44113332 43783148 43455412 43127264 
3401.152 42797356 42465032 42131644 41798292 41466728 41137968 40812880 
3404.527 40491376 40173640 39859296 39548408 39240676 38936140 38634316 
3407.903 38334940 38037908 37743356 37451316 37162432 36876624 36593920 
3411.278 36313784 36035984 35759912 35485812 35213428 34943340 34675384 
3414.653 34409864 34146252 33884736 33625424 33368304 33114158 32863096 
3418.028 32615070 32369648 32126504 31885102 31646152 31410538 31179892 
3421.404 30955846 30739204 30529534 30325186 30124024 29923772 29722762 
3424.779 29520636 29317932 29115998 28915784 28718388 28523736 28331578 
3428.154 28141270 27952812 27765886 27580876 27397816 27216560 27036474 
3431.529 26856848 26677122 26497260 26317964 26139692 25963708 25790996 
3434.905 25621762 25456144 25293538 25133698 24976018 24820048 24665394 
3438.280 24511674 24358358 24205200 24051712 23897822 23743220 23588460 
3441.655 23433720 23279422 23125840 22973432 22821914 22671568 22521692 
3445.030 22372006 22222336 22072546 21923470 21776184 21632084 21492210 
3448.406 21357218 21226584 21098840 20972524 20845376 20716354 20584766 
3451.781 20451028 20316048 20180830 20046454 19913576 19782472 19653834 
3455.156 19527940 19405614 19287238 19172634 19061174 18951544 18842080 
3458.531 18731332 18618050 18501962 18382932 18261724 18138924 18015782 
3461.906 17893330 17772776 17655152 17541462 17432146 17326858 17224766 
3465.282 17124732 17025412 16926422 16827696 16729821 16633241 16538024 
3468.657 16443517 16348273 16250815 16150111 16046233 15940009 15833225 
3472.032 15727155 15622932 15520760 15419744 15318993 15217818 15115981 
3475.407 15013962 14912654 14812774 14714528 14617983 14522865 14428761 
3478.783 14335875 14244106 14153657 14064492 13976201 13888511 13801350 
3482.158 13714857 13629783 13547084 13467409 13390755 13316609 13243876 
3485.533 13170917 13096808 13021176 12944124 12866401 12788796 12711613 
3488.908 12635025 12558825 12483082 12407728 12332930 12259305 12187124 
3492.284 12116557 12047976 11981246 11916841 11854694 11795008 11737779 
3495.659 11682771 11629608 11577880 11527180 11477438 11428892 11381610 
3499.034 11335184 11288728 11241224 11191650 11139397 11085348 11030762 
3502.409 10977883 10928815 10885393 10847989 10816701 10790443 10768093 
3505.785 10747986 10728762 10708521 10686005 10660027 10630180 10597109 
3509.160 10563293 10531111 10503784 10483519 10471231 10465902 10465902 
3512.535 10468584 10472114 10474660 10475202 10473099 10467260 10456976 
3515.910 10441804 10421576 10397820 10372809 10349089 10329341 10314920 
3519.286 10305216 10298328 10291508 10281873 10267318 10246759 10219653 
3522.661 10185766 10145403 10098396 10044646 9985072 9920658 9853406 9785419 
3526.518 9717952 9651951 9587044 9522384 9456616 9389098 9319288 9247763 
3530.376 9175133 9102616 9030992 8961341 8893562 8827821 8763579 8699244 
3534.233 8633262 8563878 8489978 8411394 8329378 8246028 8164010 8085249 
3538.091 8011058 7941334 7875332 7811332 7748420 7686124 7624343 7563144 
3541.948 7502594 7442120 7380442 7316278 7248518 7176997 7101984 7024728 
3545.805 6946880 6870426 6797217 6729135 6667422 6612514 6564240 6521219 
3549.663 6481127 6441241 6398635 6351091 6297568 6238437 6174946 6109549 
3553.520 6044531 5981774 5922788 5868646 5819715 5776163 5737181 5701492 
3557.378 5666747 5630628 5591089 5547089 5498766 5447495 5395525 5344770 
3561.235 5296435 5251124 5208132 5165982 5122863 5076263 5023601 4961829 
3565.093 4888237 4801222 4701464 4592452 4480924 4374779 4281309 4204586 
3568.950 4144871 4098877 4061350 4026936 3991321 3952098 3908431 3860557 
3572.807 3809312 3755767 3700591 3645155 3591196 3540249 3493885 3452469 
3576.665 3415098 3379266 3342268 3301601 3256164 3206926 3156292 3107033 
3580.522 3061449 3020508 2984075 2950847 2919289 2888435 2857649 2826098 
3584.380 2792683 2755268 2711122 2657778 2594275 2522116 2445837 2371737 
3588.237 2306611 2254882 2218247 2194668 2180482 2170792 2160635 2146483 
3592.094 2125306 2095840 2057886 2012645 1962250 1909631 1858316 1811499 
3595.952 1771740 1740368 1717282 1701082 1689406 1678795 1666921 1651255 
3599.809 1631166 1607221 1582013 1558735 1541277 1532000 1531867 1539349 
3603.667 1551120 1562559 1568711 1565419 1549823 1520894 1478702 1425211 
3607.524 1363516 1297078 1229985 1165860 1107425 1056005 1011632 972611 
3611.382 937378 904240 872831 843915 819016 799431 785456 775365 766569 
3615.721 754753 736365 708984 672014 626685 576152 524497 475800 433941 
3620.061 401306 379882 369900 370861 381639 399647 422001 446113 469000 
3624.400 488405 502436 509071 505190 486945 449695 389963 307891 210120 
3628.740 110615 25646 -30482 -53176 -46550 -21337 10470 39232 58485 66803 
3633.562 66041 60506 54376 50631 49803 51062 52719 53547 53282 52288 50764 
3638.866 48875 45495 38834 27800 12094 -7090 -27500 -45656 -58875 -65534 
3643.688 -65501 -60366 -52911 -46749 -45722 -53309 -72822 -105750 -152323 
3648.027 -210515 -276581 -344821 -408284 -460617 -496097 -511420 -506357 
3651.885 -483851 -449197 -409542 -372796 -346510 -336279 -345086 -371671 
3655.742 -410105 -450852 -484480 -504338 -508475 -499671 -483388 -464986 
3659.599 -448800 -437083 -430330 -428046 -429436 -433673 -440459 -448899 
3663.457 -457472 -464191 -466674 -463000 -453070 -438903 -423974 -413580 
3667.314 -413812 -429171 -463165 -515127 -580352 -649008 -708556 -747886 
3671.172 -760687 -747985 -717057 -680007 -650662 -640935 -660356 -710541 
3675.029 -784038 -863872 -931061 -972322 -984885 -975694 -955164 -933442 
3678.886 -916381 -905900 -899749 -894525 -887184 -876768 -863640 -849322 
3682.744 -834705 -819029 -800839 -778415 -751955 -724269 -700947 -688807 
3686.601 -694629 -722449 -771966 -837549 -909834 -979033 -1036850 -1079555 
3690.459 -1106657 -1119480 -1119414 -1108508 -1088479 -1062467 -1034305 
3693.834 -1008686 -989281 -978008 -974173 -974967 -975595 -971694 -961115 
3697.691 -943823 -923192 -903783 -890756 -887647 -895715 -913736 -938335 
3701.549 -964487 -987199 -1003331 -1011133 -1010901 -1004389 -993645 -980686 
3705.406 -967561 -955164 -944187 -934831 -927490 -922531 -921341 -925374 
3709.264 -936384 -955693 -983364 -1017314 -1053477 -1085967 -1108376 
3712.639 -1116473 -1108640 -1086067 -1053411 -1016124 -979463 -947956 
3716.014 -923986 -908115 -899121 -894723 -892508 -890756 -889003 -888209 
3719.872 -889400 -893765 -901436 -911256 -921241 -929144 -933442 -934268 
3723.729 -933210 -932814 -935855 -944286 -958569 -977347 -997116 -1013744 
3727.586 -1023562 -1024950 -1017942 -1004918 -990108 -978108 -972851 -976653 
3731.444 -989182 -1008125 -1029446 -1049841 -1067723 -1083720 -1099683 
3734.819 -1117365 -1135376 -1150512 -1157617 -1151834 -1131873 -1099584 
3738.194 -1059360 -1016323 -974140 -935095 -899783 -868700 -843700 -829116 
3742.052 -831629 -859143 -916447 -1000885 -1098361 -1185969 -1239463 
3745.427 -1246435 -1210487 -1147306 -1075523 -1012191 -968983 -952585 
3748.802 -962569 -993877 -1037677 -1084711 -1127015 -1159401 -1178270 
3752.177 -1180616 -1164655 -1130320 -1080745 -1021711 -961115 -906296 
3755.553 -863111 -834275 -819856 -817111 -822303 -831398 -841782 -851603 
3759.410 -859077 -862219 -858713 -846643 -826173 -800112 -773090 -750929 
3763.268 -738459 -737963 -748184 -764524 -780995 -792174 -795217 -791083 
3767.125 -783575 -777059 -775174 -779540 -789462 -802361 -814697 -823725 
3770.982 -827859 -826735 -821510 -812845 -802394 -790983 -779077 -767037 
3774.840 -754634 -741205 -726683 -711963 -698863 -690593 -690395 -700584 
3778.697 -720994 -748250 -776299 -798194 -809306 -807718 -795878 -778051 
3782.555 -760025 -745703 -737004 -733101 -731645 -729793 -726022 -720167 
3786.412 -713551 -707564 -703164 -700286 -697739 -694364 -689303 -682554 
3790.270 -674581 -665748 -656551 -646526 -635873 -624756 -614830 -608676 
3794.127 -609172 -618271 -636336 -660620 -686425 -707464 -719604 -721556 
3797.984 -716032 -708655 -707100 -718513 -747192 -792373 -847106 -899220 
3801.842 -934665 -943757 -924482 -883018 -830571 -779606 -742230 -726286 
3805.699 -734325 -762407 -800542 -835565 -855506 -854282 -832919 -796871 
3809.557 -752980 -706836 -661811 -618403 -576414 -535711 -498215 -467832 
3813.414 -450190 -450389 -471374 -511553 -563211 -613937 -650331 -664193 
3817.271 -654169 -627072 -593687 -566950 -557321 -571848 -611191 -668593 
3821.129 -730454 -780797 -807718 -806826 -782285 -742826 -698764 -658933 
3824.986 -627965 -607055 -593521 -582767 -569631 -551629 -528894 -504437 
3828.844 -482395 -467137 -460947 -464257 -475047 -489743 -504934 -517311 
3832.701 -525221 -528265 -527769 -525519 -524493 -527537 -537730 -557056 
3836.559 -585679 -621117 -659231 -694364 -721060 -736309 -739385 -733101 
3840.416 -720432 -705116 -689832 -676401 -665020 -656022 -648545 -641861 
3844.273 -634715 -625848 -613440 -596996 -575951 -550934 -523202 -494773 
3848.131 -466740 -440624 -417453 -398452 -386469 -385939 -403219 -445689 
3851.988 -518635 -620918 -741734 -859738 -951395 -1000058 -1002406 -966338 
3855.846 -905833 -834705 -762671 -696349 -638553 -589948 -549875 -517510 
3859.703 -492324 -473492 -461245 -455056 -454626 -459690 -469983 -484844 
3863.561 -503147 -522540 -538922 -547956 -546367 -534024 -514035 -493350 
3867.418 -480806 -483884 -507648 -550702 -605996 -660058 -699492 -716197 
3871.275 -709614 -686921 -657974 -632234 -615657 -608775 -607485 -604672 
3875.133 -593985 -571351 -536804 -494806 -451580 -413911 -387396 -375710 
3878.990 -379583 -396698 -421856 -448171 -469156 -479880 -479284 -469355 
3882.848 -455420 -443570 -440459 -450323 -473359 -504437 -534785 -554376 
3886.705 -556593 -539815 -508508 -471076 -437083 -414607 -408946 -420598 
3890.563 -445325 -474650 -499407 -511817 -508045 -488915 -458134 -420764 
3894.420 -381900 -345384 -313765 -289197 -272905 -265719 -268302 -280554 
3898.277 -301017 -327274 -355846 -382926 -405867 -423180 -435659 -445258 
3902.135 -454824 -466309 -480542 -495832 -509137 -516649 -515094 -503246 
3905.992 -482130 -454725 -425001 -396896 -373425 -355382 -342073 -331478 
3909.850 -320917 -308136 -291746 -272011 -250255 -228034 -207601 -190412 
3913.707 -177628 -169712 -167129 -169878 -177330 -188558 -201805 -214787 
3917.564 -225253 -231975 -234095 -232141 -226710 -218795 -209257 -199023 
3921.422 -188889 -180178 -174448 -173355 -177760 -187564 -200613 -214059 
3925.279 -224060 -227902 -224623 -215152 -202070 -187994 -175309 -165340 
3929.137 -158086 -153284 -150568 -150634 -153946 -161697 -173455 -188061 
3932.994 -202799 -214953 -222471 -224988 -223696 -221047 -218894 -218364 
3936.852 -218894 -218993 -216510 -210250 -200480 -189286 -179284 -173289 
3940.709 -172825 -177760 -186603 -196837 -205382 -210548 -211376 -207965 
3944.566 -201342 -192896 -183788 -175574 -169215 -165340 -164247 -165539 
3948.424 -168023 -170308 -170805 -168752 -163717 -156728 -148680 -141094 
3952.281 -135430 -132250 -131853 -133807 -137848 -143016 -148713 -154045 
3956.139 -158285 -161067 -162061 -161432 -159544 -156795 -153416 -149706 
3959.996 -145566 -140995 -136490 -132217 -129203 -127613 -127481 -128309 
3963.854 -129369 -129302 -127944 -124764 -120723 -116351 -112806 -109957 
3967.711 -107572 -104757 -100980 -96011 -90347 -85146 -81435 -79878 -80541 
3972.051 -82462 -84748 -86206 -86239 -84417 -80905 -75737 -68913 -60399 
3976.390 -50360 -39228 -28163 -18289 -10669 -6096 -4506 -4572 -5168 -4870 
3981.212 -2551 2153 8714 16401 24155 30981 36051 38867 39232 37144 33168 
3986.516 28164 23128 18986 16235 15208 15738 17395 19914 23028 27005 31710 
3991.820 36813 41817 45727 47649 46688 43076 36979 29390 20874 12160 3379 
3997.124 -5268 -13518 -20973 -26340 -29256 -28925 -25777 -20410 
##END=
