
##TITLE=1731a_2_d
##JCAMP-DX=5.01  $$ Nicolet v. 1
##DATATYPE=INFRARED SPECTRUM
##ORIGIN=UniL
##OWNER=Nicolet
##LONGDATE=2011/09/22
##TIME=10:20:31
##SPECTROMETER/DATA SYSTEM=Nicolet iS5
##DATA PROCESSING=
Ratio against background
%Transmittance->Absorbance
Truncated
ElementMultiply or ElementDivide
##COMMENTS=
Number of sample scans: 32
Collection length: 51.19 sec
Sample gain: 2.0
Background collected on: Jeu Sep 22 10:11:43 2011 (GMT+02:00);
Number of background scans: 32
Background gain: 2.0
Sample spacing:  1.000
Number of scan points: 12415
Resolution points: 8192
Number of FFT points: 65536
Apodization: N-B fort;
Phase correction: Mertz;
Laser frequency: 15798.0 cm-1
Number of rejected sample scans: 0
Number of rejected background scans: 0
Bench serial number: ASB1000141;
##RESOLUTION=4.000
##XUNITS=1/CM
##YUNITS=ABSORBANCE
##FIRSTX=649.893372
##LASTX=4000.122314
##FIRSTY=0.104922
##MAXX=4000.122314
##MINX=649.893372
##MAXY=0.280962
##MINY=-0.003834
##XFACTOR=1.000000
##YFACTOR=1.000000E-009
##NPOINTS=6950
##DELTAX=0.482117
##ZPD=6100
##XYDATA=(X++(Y..Y))
649.893 104921752 104534504 104254128 104018592 103759032 103435000 
652.786 103051720 102656192 102308072 102051456 101889256 101788712 
655.679 101700264 101588304 101448072 101304872 101194184 101140856 
658.571 101142112 101170128 101186368 101162352 101092592 100991408 
661.464 100880960 100774432 100671064 100561616 100439920 100313552 
664.357 100202184 100125120 100084728 100049768 99949784 99686104 99181896 
667.732 98437400 97560840 96713448 96021856 95517264 95148624 94825096 
671.107 94459720 94001120 93439048 92802448 92135520 91477592 90841288 
674.481 90214392 89574400 88909840 88232952 87577168 86978328 86456480 
677.856 86004024 85589744 85175080 84731664 84255976 83767360 83296232 
681.231 82864624 82479080 82127304 81790728 81454656 81117208 80786720 
684.606 80474584 80184360 79908352 79630880 79339032 79031040 78719816 
687.981 78426432 78167840 77948648 77757064 77572712 77377688 77168320 
691.355 76957192 76767272 76617680 76514768 76447392 76395200 76338592 
694.730 76271208 76203712 76157512 76152696 76195656 76274640 76363872 
698.105 76437112 76476000 76479400 76459328 76433088 76411432 76393976 
701.480 76370984 76331600 76271448 76197712 76124776 76067848 76033752 
704.855 76017488 76004968 75981208 75938784 75881168 75821192 75772200 
708.229 75741856 75728880 75726552 75730816 75748440 75799888 75918144 
711.604 76135408 76470976 76922536 77463304 78044648 78602856 79077464 
714.979 79415928 79582088 79561672 79359720 79000240 78521464 77978152 
718.354 77437960 76974008 76668832 76600568 76829240 77385576 78248408 
721.729 79336008 80491904 81510016 82169896 82266432 81678856 80397152 
725.104 78534888 76294152 73924664 71666264 69679944 68044152 66753352 
728.478 65750280 64958796 64314276 63779184 63334452 62969832 62672468 
731.853 62420672 62191124 61967960 61747588 61540308 61360068 61215496 
735.228 61102704 61005916 60905796 60790224 60660472 60530640 60418600 
738.603 60336468 60283740 60248032 60211188 60159696 60091460 60014912 
741.978 59943320 59886112 59844204 59810244 59775224 59735188 59695040 
745.352 59665880 59658392 59674396 59703972 59727696 59726708 59690972 
748.727 59624448 59542392 59464076 59403744 59363320 59335096 59307408 
752.102 59273264 59234868 59203120 59189720 59200996 59233348 59275160 
755.477 59312496 59337756 59353256 59370352 59403248 59460732 59544824 
758.852 59650300 59770700 59903684 60053984 60231208 60443576 60693164 
762.227 60973544 61272724 61582576 61904948 62259112 62679700 63218580 
765.601 63937708 64899116 66162072 67764088 69703240 71913544 74251616 
768.976 76503856 78390040 79637528 80038968 79506280 78111872 76075984 
772.351 73724760 71380144 69305848 67647760 66414968 65512180 64786172 
775.726 64094632 63334144 62467500 61513932 60527024 59566488 58676256 
779.101 57880444 57182184 56570268 56025440 55526968 55055996 54597700 
782.475 54145712 53703904 53286068 52911112 52597324 52356800 52191728 
785.850 52096792 52064740 52092236 52183504 52349736 52603500 52955092 
789.225 53408768 53963976 54620060 55380784 56256620 57265312 58426692 
792.600 59758148 61273528 62982016 64891616 67011156 69350200 71916160 
795.975 74710632 77726912 80951608 84372536 87990040 91829296 95947880 
799.350 100427440 105368720 110860624 116945536 123582456 130605992 
802.242 137720752 144460896 150254928 154513936 156691424 156455552 
805.135 153767984 148924816 142486080 135158576 127662792 120524768 
808.028 114033968 108216200 102896360 97794224 92642512 87293352 81739568 
811.402 76112224 70607816 65442988 60786944 56731012 53301316 50466908 
814.777 48167156 46324456 44862212 43709672 42799552 42077356 41501796 
818.152 41045128 40693796 40442604 40287308 40220744 40230852 40304032 
821.527 40431112 40610036 40846732 41149956 41527136 41979568 42502556 
824.902 43088588 43732540 44434476 45198624 46029204 46925708 47880488 
828.277 48882164 49922840 51006740 52156004 53413340 54841508 56511168 
831.651 58499476 60882388 63717448 67032880 70798640 74909096 79146840 
835.026 83180528 86616776 89010936 89979544 89296504 86933560 83090768 
838.401 78134200 72547792 66804668 61295884 56315952 52020368 48456308 
841.776 45591192 43344940 41616248 40299052 39302988 38550192 37978528 
845.151 37545884 37221844 36986868 36828252 36734348 36693388 36694000 
848.525 36725768 36782812 36864320 36973772 37116088 37294696 37509796 
851.900 37758716 38038020 38345400 38681432 39049264 39453004 39896268 
855.275 40381548 40912004 41492756 42133652 42849428 43657316 44577496 
858.650 45630640 46838268 48228392 49837392 51708676 53893408 56434188 
862.025 59349152 62610804 66129588 69749272 73235800 76322832 78736336 
865.400 80229320 80645744 79937104 78181088 75559568 72340856 68834368 
868.774 65318576 62034808 59150116 56747964 54853084 53442680 52470556 
872.149 51877860 51604112 51591272 51776348 52097312 52494900 52913436 
875.524 53313004 53672788 53992604 54291180 54600296 54958588 55399116 
878.899 55943232 56591104 57317404 58066856 58757808 59301332 59607916 
882.274 59613804 59298480 58689724 57861552 56911832 55951600 55074196 
885.648 54342772 53791276 53425068 53232692 53194492 53290904 53504364 
889.023 53817572 54214480 54679356 55197892 55761120 56364768 57008884 
892.398 57694488 58420476 59181856 59971276 60781456 61608080 62451048 
895.773 63311024 64185388 65063820 65923980 66736504 67469232 68092952 
899.148 68589736 68953776 69189800 69309696 69328744 69264728 69136344 
902.523 68965968 68778896 68600752 68456616 68368024 68351240 68421200 
905.897 68593216 68884232 69314664 69904224 70668400 71615696 72747040 
909.272 74058088 75544232 77203864 79040984 81062568 83274392 85677512 
912.647 88266600 91033416 93971752 97084952 100389200 103914992 107702904 
916.022 111792888 116220512 121005656 126145560 131602808 137292688 
918.914 143076624 148732368 153965568 158436848 161769856 163648176 
921.807 163879568 162454928 159583200 155680080 151346080 147229920 
924.700 143986352 142190304 142211952 144200944 148022864 153288592 
927.593 159341728 165350016 170487312 173981136 175304320 174256272 
930.485 170939472 165698592 158981360 151269664 142969440 134389888 
933.378 125776816 117313408 109156048 101457992 94352904 87959568 82375128 
936.753 77657968 73838328 70920384 68886208 67700120 67304000 67616176 
940.128 68512712 69824680 71354408 72865208 74120840 74923312 75120024 
943.502 74642864 73509920 71821984 69735736 67432192 65097652 62879296 
946.877 60880140 59157216 57724040 56566268 55654520 54957424 54444244 
950.252 54087092 53862128 53744364 53710432 53740612 53819632 53938764 
953.627 54095384 54289452 54520500 54785684 55079652 55396108 55731280 
957.002 56084704 56459544 56860352 57290148 57748868 58232548 58735276 
960.377 59251728 59778800 60315644 60862720 61419380 61982944 62549272 
963.751 63114300 63676164 64236672 64800756 65373696 65959388 66558348 
967.126 67168536 67787480 68414416 69052160 69706248 70383016 71086880 
970.501 71818584 72576152 73356968 74160504 74990248 75853000 76756712 
973.876 77708136 78709800 79760928 80859152 82002624 83191880 84429200 
977.251 85716544 87052744 88432256 89846192 91283352 92734752 94194320 
980.625 95658728 97124608 98586552 100034464 101456104 102839264 104175024 
984.000 105459872 106693408 107874728 108998192 110049824 111008712 
986.893 111852680 112561344 113122944 113536384 113810816 113963576 
989.786 114017424 114002128 113951168 113900392 113888456 113948376 
992.678 114103944 114367648 114739176 115209408 115765616 116397040 
995.571 117096848 117861504 118687760 119569192 120494776 121451392 
998.464 122426504 123412264 124406928 125412464 126429632 127454472 
1001.356 128475024 129473728 130433128 131338832 132185328 132975144 
1004.249 133717256 134423296 135107296 135786336 136481920 137222832 
1007.142 138044368 138981152 140064272 141314560 142739488 144335312 
1010.035 146090912 147992864 150025088 152168368 154397584 156676224 
1012.927 158959936 161204224 163370080 165437008 167406112 169298112 
1015.820 171142320 172967200 174791312 176619168 178444032 180254800 
1018.713 182043568 183810704 185568496 187340112 189162624 191087632 
1021.605 193175792 195500944 198138704 201152560 204589712 208468272 
1024.498 212778784 217486480 222542624 227895008 233484112 239247344 
1027.391 245108800 250964576 256690864 262142144 267158512 271592320 
1030.284 275305536 278172960 280090080 280961568 280711584 279300224 
1033.177 276734240 273080608 268455936 263024384 256971392 250477760 
1036.070 243729952 236903840 230163696 223679520 217606256 212078432 
1038.963 207214720 203098240 199783456 197297552 195635744 194756240 
1041.856 194562176 194899792 195534608 196154512 196424464 195995040 
1044.750 194575904 192002656 188247584 183435424 177798976 171654736 
1047.643 165333536 159126816 153287088 147985728 143316864 139313152 
1050.536 135950656 133170232 130889864 129026856 127505008 126258896 
1053.429 125240800 124411512 123735120 123176800 122696672 122251680 
1056.322 121801872 121310168 120746376 120089328 119322760 118436744 
1059.215 117428888 116306816 115091744 113817272 112530904 111284544 
1062.108 110127784 109106040 108252336 107589256 107130368 106879872 
1065.001 106831104 106963072 107238808 107601136 107974384 108279760 
1067.894 108437736 108385008 108085976 107531992 106742040 105753368 
1070.787 104616752 103385264 102105448 100817184 99546568 98305744 97094984 
1074.162 95906384 94729472 93557560 92392448 91246720 90142784 89106288 
1077.538 88163248 87334592 86632680 86063008 85624848 85312568 85115416 
1080.913 85016960 84995440 85021312 85062056 85088576 85079152 85026792 
1084.288 84941448 84849384 84788168 84799800 84929200 85214712 85688128 
1087.663 86373400 87282648 88416328 89760832 91290424 92967744 94749096 
1091.039 96594072 98466832 100340936 102199216 104025576 105799784 107493712 
1094.414 109066344 110471120 111665648 112619184 113327080 113815808 
1097.307 114148496 114413440 114712848 115146640 115780448 116629160 
1100.200 117637800 118687856 119601256 120168328 120203504 119563128 
1103.093 118186304 116104136 113432560 110348200 107044432 103722680 
1105.986 100552552 97656008 95115376 92965400 91204496 89804144 88720440 
1109.361 87902768 87296592 86853744 86529344 86281280 86072216 85865112 
1112.737 85623720 85317528 84921096 84418688 83806296 83090128 82284576 
1116.112 81407968 80481408 79525944 78561168 77606616 76679904 75794560 
1119.487 74960200 74179760 73450384 72765096 72116056 71496736 70903448 
1122.862 70334432 69787320 69255512 68726568 68181600 67597824 66955060 
1126.238 66238864 65446532 64587704 63685060 62770204 61876980 61039320 
1129.613 60283588 59624640 59065720 58597224 58201100 57852048 57525176 
1132.988 57199196 56859372 56500904 56128252 55753812 55394752 55070624 
1136.363 54800456 54599280 54477788 54440004 54482820 54595712 54761400 
1139.739 54959116 55164484 55354176 55509196 55614668 55661596 55645852 
1143.114 55566696 55425880 55227200 54977240 54685032 54362148 54023184 
1146.489 53682196 53352756 53046660 52772468 52536668 52344164 52198152 
1149.864 52101048 52053984 52056484 52106652 52200956 52336092 52508660 
1153.240 52716088 52956552 53227824 53526736 53849148 54189520 54542208 
1156.615 54902824 55267952 55635232 56002488 56365976 56720328 57057964 
1159.990 57370724 57650932 57892368 58090488 58241564 58341604 58385908 
1163.365 58368892 58284384 58127648 57895360 57586084 57199648 56736828 
1166.740 56199448 55590832 54917264 54188956 53419860 52626948 51829136 
1170.116 51043484 50285328 49566744 48896624 48281936 47728352 47241188 
1173.491 46825612 46487384 46231456 46062984 45987464 46009748 46135716 
1176.866 46371272 46722432 47195272 47796588 48533440 49415348 50453584 
1180.241 51661576 53055304 54649780 56458940 58494664 60765448 63277260 
1183.617 66031976 69025704 72242192 75644672 79173880 82734160 86197784 
1186.992 89420360 92236840 94491512 96058224 96843168 96806272 95961760 
1190.367 94378512 92165672 89460224 86416488 83175224 79861992 76581352 
1193.742 73407504 70395208 67582488 64991660 62635572 60517576 58632984 
1197.118 56969860 55510664 54235504 53121616 52146480 51289288 50529100 
1200.493 49846124 49222184 48640124 48086196 47551604 47032440 46530572 
1203.868 46051452 45602340 45189060 44815260 44480800 44183168 43918364 
1207.243 43682080 43471416 43283840 43117752 42971772 42844896 42736880 
1210.619 42649436 42587152 42557332 42569028 42632732 42757648 42950960 
1213.994 43217512 43559172 43975740 44464724 45021984 45641056 46313100 
1217.369 47028492 47776504 48546968 49332568 50127884 50930396 51739468 
1220.744 52556636 53385272 54231000 55102820 56012096 56971520 57993688 
1224.120 59088232 60260140 61508700 62827140 64202980 65617456 67047224 
1227.495 68464336 69836896 71135664 72336120 73424760 74402640 75286752 
1230.870 76108432 76906088 77725208 78612192 79610704 80766520 82124824 
1234.245 83727824 85618592 87833968 90402200 93343328 96666424 100372288 
1237.621 104452744 108892296 113664944 118728312 124026872 129487616 
1240.514 135024272 140553456 145995280 151281856 156361264 161187600 
1243.407 165715808 169897680 173673296 176972576 179719360 181825456 
1246.300 183198656 183750304 183396352 182077440 179769280 176488560 
1249.193 172290320 167257504 161490160 155086896 148145280 140766832 
1252.086 133054536 125126768 117117112 109158184 101387512 93933656 86898752 
1255.461 80368720 74401064 69022048 64233288 60010840 56313008 53083312 
1258.836 50260180 47783532 45593764 43640644 41883412 40288216 38831992 
1262.212 37498560 36276680 35159536 34141268 33216480 32379892 31625480 
1265.587 30946950 30338156 29792026 29301344 28858698 28457044 28090896 
1268.962 27757622 27457744 27194830 26974204 26801724 26682126 26618746 
1272.337 26614378 26671908 26795944 26993562 27272900 27642384 28107582 
1275.713 28667842 29313360 30021934 30760296 31481460 32128788 32646786 
1279.088 32983370 33102896 32992844 32666006 32157332 31515200 30795400 
1282.463 30048066 29311268 28611460 27961966 27367148 26827770 26343346 
1285.838 25913516 25538648 25218596 24952856 24740734 24581938 24477354 
1289.214 24427998 24433854 24492708 24599188 24746310 24926152 25132116 
1292.589 25360554 25609496 25877468 26162002 26457992 26759470 27061580 
1295.964 27363266 27668798 27988788 28338508 28734532 29193316 29730212 
1299.339 30357342 31083960 31914022 32843154 33854040 34912208 35970180 
1302.715 36964608 37827724 38500260 38934144 39104840 39012688 38682520 
1306.090 38158400 37495384 36757136 36003116 35284188 34641476 34099192 
1309.465 33667424 33342936 33114232 32964888 32878392 32841940 32845370 
1312.840 32881000 32942012 33020624 33108402 33197842 33283264 33362076 
1316.216 33433930 33499706 33559376 33611352 33652920 33681208 33695600 
1319.591 33698180 33693308 33685824 33679380 33674616 33669536 33660544 
1322.966 33644436 33619444 33586044 33547134 33507366 33473760 33455688 
1326.341 33466532 33522758 33641428 33838100 34121736 34492216 34939820 
1329.717 35447988 35998044 36572620 37159652 37751780 38344460 38932588 
1333.092 39508888 40063164 40584972 41064832 41496624 41878452 42211424 
1336.467 42498756 42744080 42952204 43128876 43282084 43422564 43562504 
1339.842 43712676 43882184 44076436 44298184 44550328 44837192 45165532 
1343.218 45544972 45984776 46493616 47078416 47744660 48497208 49339768 
1346.593 50271416 51281684 52342444 53408204 54409504 55262272 55884216 
1349.968 56199144 56156492 55739532 54967464 53893896 52596056 51171884 
1353.343 49719976 48330040 47080520 46024448 45190788 44584916 44192080 
1356.719 43984212 43925880 43985128 44133612 44348672 44613920 44916148 
1360.094 45245652 45598552 45978588 46399148 46880084 47444744 48109368 
1363.469 48874412 49720304 50607276 51481028 52272888 52911900 53328328 
1366.844 53457516 53256968 52711860 51844480 50709260 49386948 47969920 
1370.219 46538204 45157332 43869280 42692276 41631712 40687172 39861656 
1373.595 39164524 38609724 38208144 37960264 37853568 37866188 37973356 
1376.970 38157708 38414172 38752104 39193464 39770904 40528624 41516968 
1380.345 42795124 44423500 46444716 48864068 51619444 54577604 57518520 
1383.720 60163116 62229400 63438812 63579680 62548124 60381168 57279640 
1387.096 53570480 49666364 45937520 42640992 39906040 37738404 36070260 
1390.471 34801372 33834484 33086054 32489430 31998082 31577408 31204314 
1393.846 30867896 30566504 30306498 30096004 29940420 29838692 29784252 
1397.221 29767362 29779462 29816228 29879366 29976206 30116780 30311044 
1400.597 30564266 30876434 31241806 31650960 32092114 32551710 33018156 
1403.972 33480954 33931560 34363204 34769604 35145704 35488760 35800892 
1407.347 36090676 36372180 36663784 36983436 37343444 37749244 38198412 
1410.722 38684152 39199008 39739168 40304904 40898716 41522508 42174872 
1414.098 42851512 43548512 44266480 45013788 45807676 46672992 47637568 
1417.473 48724372 49943396 51280896 52694392 54115200 55463416 56667696 
1420.848 57672880 58447920 58986804 59307904 59459404 59516628 59581004 
1424.223 59751080 60101624 60668088 61443732 62396344 63487440 64690404 
1427.599 65990940 67382968 68861512 70417736 72041664 73730576 75498176 
1430.974 77374648 79393608 81582536 83947824 86476976 89143144 91925664 
1434.349 94824104 97857360 101058928 104453760 108036120 111751440 115515720 
1437.724 119249280 122897184 126429272 129817528 133018744 135949120 
1440.617 138483568 140482480 141792992 142280016 141850096 140451424 
1443.510 138092048 134841808 130845128 126303392 121444200 116518304 
1446.404 111748832 107316984 103360000 99946944 97077496 94681184 92646776 
1449.779 90848064 89179304 87588888 86086712 84740720 83640688 82870320 
1453.154 82466304 82404208 82598888 82921088 83230288 83384224 83290496 
1456.529 82944712 82452400 81989576 81725896 81781488 82205688 83004240 
1459.905 84163512 85656408 87442368 89455376 91611080 93790984 95841472 
1463.280 97600240 98901208 99621952 99726824 99281496 98433200 97350088 
1466.655 96192304 95077512 94077856 93236000 92563360 92041600 91618488 
1470.030 91208864 90704520 89989120 88985528 87693408 86215528 84724368 
1473.406 83407192 82403328 81772728 81519088 81617200 82037560 82754488 
1476.781 83740968 84961512 86361912 87871168 89414344 90913136 92303880 
1480.156 93547824 94633432 95582000 96440592 97278328 98170856 99198016 
1483.531 100448816 102013992 103987352 106452608 109458680 112992392 
1486.424 116948272 121133512 125247080 128904376 131700664 133224352 
1489.317 133150520 131327704 127820600 122919040 117044704 110659312 
1492.210 104137160 97713304 91522064 85606448 79978296 74674744 69768920 
1495.586 65379432 61647644 58687752 56553396 55224828 54634904 54693752 
1498.961 55314280 56425168 57960896 59855384 62040616 64434560 66946672 
1502.336 69486344 71939704 74174184 76028696 77275712 77635896 76806856 
1505.711 74555680 70875720 66083132 60747236 55427612 50480456 46018224 
1509.087 41996612 38326616 34939676 31805198 28932748 26348698 24070030 
1512.462 22097542 20410290 18975462 17757450 16723692 15845561 15092687 
1515.837 14434824 13846570 13312714 12834832 12427059 12104291 11870392 
1519.212 11711091 11593908 11481078 11344128 11181485 11022912 10913798 
1522.588 10887704 10948184 11071684 11221434 11366610 11490842 11598945 
1525.963 11710444 11848497 12025357 12236607 12465999 12697353 12924188 
1529.338 13152918 13398478 13675258 13988349 14330568 14684160 15029260 
1532.713 15355480 15667964 15987583 16336059 16725585 17150894 17595700 
1536.089 18038888 18464068 18864470 19239370 19592200 19924120 20228038 
1539.464 20488712 20690880 20833036 20930798 21009316 21089760 21176344 
1542.839 21256366 21306338 21306058 21248086 21144894 21023400 20915394 
1546.214 20842840 20809120 20802514 20803906 20798344 20781798 20764420 
1549.590 20764628 20800776 20880766 21000344 21146566 21308078 21480304 
1552.965 21668270 21883150 22135128 22426814 22750224 23089778 23426970 
1556.340 23746684 24034694 24276710 24457198 24563632 24598206 24586038 
1559.715 24571382 24594244 24671568 24799104 24956648 25118636 25257680 
1563.091 25353072 25394910 25387356 25347452 25298420 25260314 25240052 
1566.466 25230326 25213154 25168878 25082476 24950470 24782792 24600310 
1569.841 24428806 24287922 24189682 24136822 24125824 24149992 24198860 
1573.216 24257438 24304356 24314974 24267670 24152130 23980416 23785950 
1576.592 23612634 23490726 23425958 23400498 23387002 23358506 23296376 
1579.967 23193572 23051726 22877512 22677258 22454972 22211700 21948212 
1583.342 21668410 21380050 21092508 20813638 20545646 20284278 20021678 
1586.717 19751506 19472870 19192822 18923198 18677230 18465034 18291444 
1590.093 18157824 18064758 18014642 18010670 18053602 18137716 18247382 
1593.468 18358944 18447854 18493490 18486402 18430048 18338068 18228896 
1596.843 18119200 18022586 17949580 17910420 17918846 17991432 18144868 
1600.218 18392680 18741086 19189324 19731360 20360424 21069032 21847328 
1603.594 22679910 23540430 24388604 25177162 25851724 26360984 26666694 
1606.969 26745162 26593876 26229714 25685948 25004552 24228080 23400358 
1610.344 22560812 21745180 20985704 20304242 19710452 19199854 18756586 
1613.719 18357318 17976342 17592282 17190912 16769595 16340258 15927600 
1617.094 15562003 15269157 15063734 14946089 14906035 14925685 14983745 
1620.470 15060167 15137904 15208759 15275541 15352254 15457854 15608403 
1623.845 15811129 16061567 16348893 16661713 16993228 17340270 17700534 
1627.220 18069732 18437932 18792048 19120692 19418504 19688434 19939350 
1630.595 20181282 20419284 20650954 20865470 21046910 21178224 21243318 
1633.971 21231490 21139678 20975098 20754898 20504172 20248554 20005892 
1637.346 19783478 19578092 19379734 19174124 18946838 18687710 18393682 
1640.721 18071286 17734324 17399796 17080720 16780754 16493933 16205687 
1644.096 15897766 15552456 15159829 14721794 14254822 13787122 13351665 
1647.472 12977510 12680841 12465077 12322056 12236743 12188044 12148108 
1650.847 12083645 11952942 11715891 11354944 10900716 10435118 10046409 
1654.222 9780709 9627355 9547345 9498134 9449742 9387676 9308624 9217268 
1658.080 9120685 9025140 8931746 8837797 8737681 8626030 8499201 8357210 
1661.937 8203177 8043899 7888222 7745688 7625153 7532228 7468008 7428705 
1665.794 7405651 7387384 7360019 7311223 7232919 7123776 6990146 6843800 
1669.652 6699017 6567133 6454726 6363329 6291214 6233597 6182945 6129208 
1673.509 6059617 5961954 5829924 5668560 5496416 5337356 5212458 5129904 
1677.367 5084309 5061781 5046563 5027925 5002719 4976174 4957606 4955093 
1681.224 4968565 4988373 4994909 4965717 4883277 4746416 4576580 4410994 
1685.082 4283049 4204988 4169726 4159891 4159054 4155408 4143198 4121321 
1688.939 4090783 4054259 4014428 3975805 3944541 3926920 3928057 3948219 
1692.796 3981958 4016669 4036601 4026835 3979985 3903249 3819641 3758006 
1696.654 3736616 3756469 3801022 3846015 3863967 3833513 3747946 3622434 
1700.511 3490846 3387815 3332585 3321734 3339564 3366076 3384876 3384409 
1704.369 3358930 3308713 3240941 3166706 3097188 3040861 3001457 2978169 
1708.226 2967493 2964191 2964524 2966626 2971197 2980671 2997820 3024345 
1712.083 3059247 3099357 3140406 3178321 3210765 3236969 3256531 3268550 
1715.941 3270720 3259269 3233030 3196078 3158695 3135066 3136835 3169610 
1719.798 3231060 3314355 3410523 3511990 3614917 3718436 3824354 3936115 
1723.656 4055731 4183677 4318754 4459063 4602833 4748727 4894536 5036841 
1727.513 5170441 5288486 5385562 5458970 5510913 5546720 5573099 5593538 
1731.371 5605554 5599211 5559574 5472794 5335344 5162964 4988541 4851244 
1735.228 4777168 4769966 4816500 4896346 4990284 5081594 5159477 5218595 
1739.085 5258770 5284260 5301433 5316895 5334539 5355705 5379054 5401933 
1742.943 5420989 5432866 5435315 5427498 5409381 5381402 5343931 5296435 
1746.800 5237307 5164138 5074118 4964946 4834324 4680765 4503890 4305369 
1750.658 4089980 3866273 3646458 3442216 3262340 3110570 2983941 2874626 
1754.515 2771574 2664012 2544313 2411085 2269704 2131433 2007619 1905305 
1758.373 1824209 1757601 1695194 1625812 1541942 1441134 1326956 1207291 
1762.230 1091380 987655 900887 832196 780178 741775 712568 687246 660299 
1766.570 627548 587797 543473 500645 466313 444521 433974 427705 415633 
1770.909 386647 334948 263230 182673 108693 53547 21935 10470 11431 17263 
1775.731 23558 29987 38470 51427 68857 87681 103357 111178 109256 99048 
1780.553 85361 73199 65709 62528 60374 55304 44203 27170 6295 -14512 -31575 
1785.857 -43138 -48671 -48406 -42542 -30117 -10470 15838 45296 72105 88510 
1790.678 87151 64317 21537 -33894 -91870 -142850 -181669 -207568 -223232 
1795.018 -232340 -237307 -239327 -238863 -236082 -232174 -229028 -228630 
1798.875 -232505 -240784 -252143 -264594 -276183 -285852 -293071 -298104 
1802.733 -300521 -300057 -296051 -288004 -276415 -262805 -248599 -235486 
1806.590 -224325 -215218 -208164 -203329 -201176 -202699 -208131 -217371 
1810.448 -228862 -240089 -249262 -254891 -257739 -259494 -261845 -265984 
1814.305 -271448 -276779 -279495 -277408 -269230 -255322 -236479 -213496 
1818.163 -187332 -157821 -124599 -87796 -47743 -5367 38370 82876 127617 
1822.502 171568 213468 250996 282194 306266 325199 343304 365688 396198 
1826.842 435533 480278 523700 558468 579237 585409 582190 578441 583617 
1831.181 604089 640754 690266 747583 808560 870541 933427 997916 1064408 
1835.521 1132406 1200114 1265840 1329914 1394628 1464439 1544735 1639281 
1839.378 1749683 1875121 2012445 2157871 2308542 2462032 2616509 2770940 
1843.236 2923859 3074496 3222348 3367846 3511054 3650868 3783842 3904419 
1847.093 4005399 4079611 4121723 4129684 4104697 4050714 3972528 3873795 
1850.951 3756335 3621165 3469536 3303872 3129125 2951581 2776343 2607575 
1854.808 2446171 2291088 2140723 1994570 1853491 1719843 1595448 1480663 
1858.666 1373720 1271888 1172173 1073377 976164 882559 794485 712668 636274 
1863.005 564075 495271 430989 374045 327388 292406 267606 248211 227325 
1867.345 198882 160564 114592 67631 27502 662 -10602 -8283 3214 18721 34427 
1872.649 47616 55933 57988 51327 34825 7521 -29521 -73783 -122280 -171898 
1877.470 -221312 -270885 -321546 -373591 -426689 -478688 -526975 -569895 
1881.328 -607187 -641200 -675475 -712691 -754336 -799351 -844857 -888176 
1885.185 -927854 -963495 -996389 -1028058 -1058931 -1087653 -1112606 
1888.561 -1131708 -1143836 -1149983 -1151239 -1148892 -1143208 -1133195 
1891.936 -1118191 -1098394 -1075887 -1054138 -1037445 -1027958 -1026107 
1895.311 -1030074 -1036685 -1042866 -1048089 -1053146 -1059559 -1068912 
1898.686 -1080580 -1092247 -1101336 -1105731 -1105104 -1101865 -1098758 
1902.062 -1098593 -1102427 -1109136 -1116373 -1121860 -1124173 -1123347 
1905.437 -1120339 -1116175 -1110986 -1104905 -1097733 -1090859 -1086463 
1908.812 -1087851 -1096709 -1112705 -1133294 -1153816 -1169546 -1177906 
1912.187 -1178501 -1173544 -1165845 -1157782 -1150082 -1142713 -1135839 
1915.563 -1130353 -1129328 -1135740 -1151338 -1174833 -1201202 -1223835 
1918.938 -1237977 -1242701 -1242404 -1244122 -1255421 -1280464 -1318289 
1922.313 -1362585 -1404168 -1435641 -1452715 -1456545 -1451427 -1443072 
1925.688 -1434453 -1426559 -1418039 -1407569 -1395812 -1385474 -1379859 
1929.063 -1381444 -1390131 -1402450 -1413811 -1420516 -1421044 -1417378 
1932.439 -1414109 -1414439 -1420318 -1430952 -1442775 -1452616 -1458593 
1935.814 -1461598 -1463877 -1468401 -1475533 -1484911 -1494454 -1502577 
1939.189 -1509016 -1516379 -1527209 -1544213 -1567555 -1594758 -1620837 
1942.564 -1641435 -1652526 -1653154 -1644769 -1630047 -1611561 -1592480 
1945.940 -1575247 -1562768 -1557981 -1561876 -1573795 -1589344 -1601394 
1949.315 -1602945 -1589377 -1561051 -1524502 -1490129 -1468830 -1467905 
1952.690 -1488643 -1526648 -1573299 -1620441 -1662363 -1697646 -1729462 
1956.065 -1762463 -1800213 -1844295 -1893617 -1945177 -1995412 -2042112 
1959.441 -2083070 -2117330 -2143839 -2162665 -2174370 -2181886 -2189304 
1962.816 -2201238 -2221116 -2249004 -2281076 -2312684 -2337270 -2351309 
1966.191 -2354308 -2349200 -2340697 -2333084 -2330217 -2333743 -2346168 
1969.566 -2368972 -2403737 -2450328 -2506434 -2565333 -2619250 -2660022 
1972.942 -2681987 -2685082 -2672568 -2647507 -2611214 -2558679 -2481792 
1976.317 -2372630 -2230610 -2063746 -1892628 -1742596 -1634140 -1580034 
1979.692 -1580166 -1622455 -1689659 -1764113 -1833572 -1890846 -1934754 
1983.067 -1966024 -1986441 -1996863 -1997589 -1989442 -1975919 -1960516 
1986.443 -1947289 -1938514 -1933929 -1931257 -1928816 -1925319 -1922021 
1989.818 -1922219 -1927794 -1938415 -1950884 -1958866 -1955172 -1935743 
1993.193 -1900116 -1852543 -1799223 -1747415 -1702333 -1666852 -1642063 
1996.568 -1627538 -1622950 -1627605 -1641435 -1663518 -1693158 -1729297 
1999.944 -1772429 -1823343 -1883918 -1955865 -2038946 -2128706 -2219007 
2003.319 -2300753 -2365479 -2407197 -2424002 -2418367 -2395400 -2361261 
2006.694 -2320890 -2278307 -2236049 -2196128 -2160819 -2131805 -2110109 
2010.069 -2094051 -2082279 -2071199 -2058272 -2043036 -2026085 -2009495 
2013.445 -1994291 -1980966 -1967377 -1952006 -1932544 -1908661 -1882005 
2016.820 -1855149 -1830404 -1809320 -1791502 -1774310 -1755566 -1733488 
2020.195 -1705534 -1671341 -1630740 -1583567 -1530874 -1475533 -1420252 
2023.570 -1370776 -1330313 -1300781 -1279836 -1263251 -1244717 -1220102 
2026.946 -1188084 -1151900 -1117662 -1092049 -1077275 -1072747 -1073308 
2030.321 -1070962 -1058104 -1030173 -985976 -927292 -857523 -779143 -693967 
2034.178 -603911 -510063 -414805 -322771 -237373 -161233 -96376 -41415 6229 
2038.518 48908 89305 129772 171336 214960 260743 308322 356204 403163 446379 
2043.340 484855 517795 546890 574758 605515 642944 690332 750305 823199 
2047.679 908457 1003662 1103272 1200148 1286211 1353644 1397021 1417498 
2051.537 1420124 1415072 1413742 1426673 1458854 1510387 1574896 1642840 
2055.394 1705439 1757169 1796494 1826639 1852060 1876851 1902842 1929533 
2059.251 1954695 1976529 1994703 2010182 2025128 2040907 2056987 2071003 
2063.109 2079226 2077928 2064477 2039809 2006087 1967742 1929733 1895354 
2066.966 1867634 1848367 1837918 1836721 1844507 1859947 1880212 1901677 
2070.824 1920148 1931596 1934958 1930764 1922976 1916320 1915821 1925007 
2074.681 1944643 1972435 2003824 2034482 2060083 2078394 2089913 2097138 
2078.539 2103364 2113053 2129668 2154442 2188441 2230103 2276033 2323066 
2082.396 2367140 2405154 2435175 2457367 2472728 2483825 2493323 2502554 
2086.253 2511852 2519217 2521583 2515517 2498688 2470262 2432209 2388129 
2090.111 2342654 2300981 2267073 2243358 2231435 2232135 2244990 2269738 
2093.968 2305445 2349716 2398957 2449236 2495489 2533747 2562110 2580809 
2097.826 2592575 2601108 2611075 2625642 2646511 2673514 2704854 2738496 
2101.683 2772875 2807289 2842540 2880296 2922425 2970129 3023344 3080603 
2105.541 3139705 3198047 3253593 3305674 3355391 3404846 3456811 3513893 
2109.398 3577164 3646358 3719739 3794571 3867744 3937252 4001353 4058942 
2113.255 4110082 4153936 4190234 4219408 4242160 4260261 4276356 4293121 
2117.113 4312162 4334249 4358547 4383214 4406543 4427898 4447615 4468068 
2120.970 4491168 4519224 4553342 4593758 4639269 4689272 4742731 4798844 
2124.828 4856974 4915983 4973928 5029668 5081493 5128463 5171447 5211720 
2128.685 5250219 5288318 5326287 5363387 5399820 5436221 5473901 5515678 
2132.542 5563635 5619283 5682357 5751215 5823275 5896186 5968203 6038081 
2136.400 6104677 6166880 6221698 6266707 6300324 6321437 6331624 6334045 
2140.257 6330615 6322176 6307586 6283381 6246001 6193801 6127326 6050277 
2144.115 5967396 5883356 5800407 5719085 5636804 5549975 5455681 5351848 
2147.972 5237207 5112638 4978989 4837875 4691482 4541790 4390677 4238713 
2151.830 4085230 3927790 3763354 3589826 3406616 3216172 3024145 2837304 
2155.687 2664779 2517151 2404288 2335891 2320401 2359910 2449603 2576776 
2159.544 2721858 2862819 2983174 3072361 3129860 3162934 3181358 3194342 
2163.402 3206759 3217541 3222381 3215872 3194476 3158495 3111705 3057144 
2167.259 2996719 2929597 2853246 2764438 2664246 2556478 2448170 2347085 
2171.117 2258979 2184944 2124141 2073200 2028324 1989078 1956292 1929899 
2174.974 1909698 1891594 1869131 1835789 1785980 1718113 1634925 1541876 
2178.832 1445822 1354076 1273250 1207889 1162936 1140312 1140046 1157521 
2182.689 1185495 1212740 1229753 1230085 1212408 1181342 1145129 1111876 
2186.546 1087627 1073941 1068992 1069590 1074406 1083109 1097459 1118453 
2190.404 1144897 1172339 1195596 1209052 1211013 1203670 1192971 1184864 
2194.261 1183867 1189848 1199749 1209252 1214933 1217193 1219785 1227992 
2198.119 1245271 1272320 1306117 1341945 1374219 1400179 1419327 1433289 
2201.976 1443827 1451374 1454399 1451640 1442098 1427405 1411747 1399182 
2205.833 1393664 1396589 1406096 1418296 1430396 1440237 1447949 1456360 
2209.691 1467531 1483822 1505533 1531934 1562193 1596013 1632463 1670513 
2213.548 1708400 1743362 1771940 1792102 1803447 1807374 1807606 1806542 
2217.406 1805477 1803813 1799887 1791802 1780158 1768047 1759298 1758100 
2221.263 1766417 1782919 1804179 1826106 1845505 1862043 1877118 1892825 
2225.121 1910297 1928435 1944077 1954162 1956326 1950634 1939717 1927403 
2228.978 1916320 1908866 1906137 1907701 1913991 1926205 1944909 1969872 
2232.835 1999397 2029389 2055322 2074299 2085785 2092510 2098903 2110023 
2236.693 2128170 2153909 2184645 2216848 2248354 2278897 2308976 2339822 
2240.550 2371138 2400856 2425945 2443938 2454768 2461698 2470462 2486858 
2244.408 2514884 2555444 2605775 2660745 2715156 2765005 2807823 2843374 
2248.265 2871324 2891537 2904212 2909482 2909115 2906714 2905880 2910216 
2252.123 2921691 2939738 2962489 2987544 3012800 3037458 3061415 3084040 
2255.980 3103595 3117345 3122017 3115175 3097555 3071426 3040761 3009397 
2259.837 2979537 2951047 2923426 2895673 2868689 2845709 2831134 2827699 
2263.695 2837137 2857282 2883265 2910683 2935235 2955117 2970629 2983474 
2267.552 2994317 3003659 3010999 3015470 3017672 3019106 3021342 3026013 
2271.410 3032653 3039159 3043364 3043664 3040728 3037891 3040027 3051005 
2275.267 3073028 3105264 3143643 3183628 3221246 3253827 3280835 3302803 
2279.125 3320098 3332886 3341233 3345708 3348145 3351651 3360099 3376027 
2282.982 3399870 3429325 3460285 3488474 3510286 3524650 3532700 3536642 
2286.839 3539080 3541853 3545628 3550973 3557888 3566574 3577297 3589391 
2290.697 3601953 3613280 3622000 3627847 3631923 3636935 3646090 3660892 
2294.554 3681443 3705570 3729531 3749918 3765058 3775018 3781903 3788622 
2298.412 3797345 3809011 3823418 3839430 3855977 3872859 3890009 3907228 
2302.269 3924479 3940462 3954171 3965372 3974501 3983764 3995668 4012388 
2306.126 4035196 4063958 4097606 4134802 4174979 4218070 4263942 4312497 
2309.984 4362329 4411062 4456519 4497261 4533420 4566970 4600991 4637594 
2313.841 4678152 4721695 4766080 4809229 4849569 4886997 4922451 4956802 
2317.699 4990183 5022025 5051490 5078141 5103552 5130508 5161589 5198441 
2321.556 5239956 5281007 5314480 5333264 5331855 5308745 5266920 5212122 
2325.414 5152201 5094500 5044752 5006707 4981335 4967727 4963504 4965180 
2329.271 4969068 4972085 4972520 4970342 4967024 4965180 4967091 4974464 
2333.128 4987502 5005367 5026987 5051591 5079079 5109922 5144322 5181674 
2336.986 5220472 5258335 5293215 5324744 5353994 5383750 5416829 5455010 
2340.843 5498396 5544841 5591391 5634388 5671279 5699781 5718245 5725195 
2344.701 5719857 5702936 5677792 5651238 5632239 5630058 5652413 5703003 
2348.558 5780864 5880635 5994876 6113918 6228622 6332229 6420156 6490511 
2352.416 6543956 6582204 6608208 6625097 6636569 6646158 6656958 6671494 
2356.273 6690033 6712074 6736100 6760734 6785639 6811016 6837506 6865040 
2360.130 6892341 6916950 6937083 6951358 6960045 6965769 6971190 6978361 
2363.988 6988395 7000349 7012606 7024291 7035471 7047156 7060963 7077701 
2367.845 7096124 7114143 7129199 7139337 7144221 7145501 7145299 7146175 
2371.703 7149745 7156078 7165106 7175952 7188113 7201453 7215400 7229011 
2375.560 7240635 7249024 7253370 7254380 7254313 7255628 7260950 7271497 
2379.417 7286726 7305192 7324971 7344921 7364770 7385665 7409021 7435918 
2383.275 7466761 7501212 7538499 7578182 7620162 7664777 7711521 7759484 
2387.132 7806778 7851243 7891528 7927499 7960704 7993643 8028575 8066581 
2390.990 8107292 8149019 8189367 8227421 8262777 8296617 8330290 8364404 
2394.847 8398725 8432676 8465414 8497140 8529173 8563878 8603318 8648168 
2398.705 8697993 8750968 8805572 8860791 8917168 8976258 9039822 9108403 
2402.562 9181664 9258052 9336045 9415101 9496170 9580743 9670448 9765357 
2406.419 9864049 9964221 10063128 10159241 10253544 10348274 10445809 
2409.795 10548695 10657378 10771286 10888791 11008604 11129403 11250778 
2413.170 11371746 11490366 11603981 11709729 11805493 11891165 11968099 
2416.545 12038813 12105518 12169473 12229587 12284528 12332999 12375304 
2419.920 12414034 12452836 12495222 12543239 12596924 12654572 12713968 
2423.296 12774498 12836675 12902820 12975325 13055627 13143629 13238377 
2426.671 13338476 13443759 13555904 13677686 13812227 13960769 14123089 
2430.046 14296905 14479733 14669286 14864888 15066513 15274752 15489100 
2433.421 15707985 15929695 16152587 16376726 16604150 16837686 17080100 
2436.797 17332650 17594492 17862912 18134986 18408582 18683006 18958848 
2440.172 19236738 19516018 19795304 20071646 20342472 20606514 20864566 
2443.547 21118528 21370548 21621638 21871720 22119472 22363808 22604336 
2446.922 22842030 23078560 23314206 23548302 23777936 23999884 24211332 
2450.298 24412402 24604832 24792052 24977284 25161292 25343378 25521006 
2453.673 25692416 25857914 26020906 26185828 26357888 26539630 26730856 
2457.048 26928372 27127882 27325262 27518530 27707114 27890624 28068664 
2460.423 28239490 28400302 28548682 28684158 28807956 28923646 29035220 
2463.799 29146186 29259412 29376816 29500706 29634422 29782408 29949046 
2467.174 30137982 30350484 30585702 30841288 31115852 31408936 31722390 
2470.549 32058616 32419306 32804132 33210364 33633408 34068156 34511408 
2473.924 34961188 35416496 35875344 36333524 36785084 37222532 37639064 
2477.300 38030496 38395060 38733380 39045276 39329544 39582412 39798680 
2480.675 39974040 40106552 40197340 40250008 40269676 40259716 40222676 
2484.050 40160084 40073592 39966884 39845460 39714988 39580276 39443496 
2487.425 39302988 39155204 38996196 38823768 38637032 38437088 38224388 
2490.801 37997800 37754740 37491696 37205816 36897076 36567968 36221644 
2494.176 35860840 35485668 35093112 34679476 34241176 33777536 33291060 
2497.551 32786798 32269738 31744026 31210936 30670536 30122710 29568906 
2500.926 29012124 28457080 27908150 27368242 26838660 26319758 25811636 
2504.302 25316156 24836258 24374444 23932834 23511292 23107738 22719222 
2507.677 22344342 21982926 21637552 21311662 21007160 20724972 20463392 
2511.052 20219708 19991770 19778694 19581454 19400902 19238158 19092128 
2514.427 18960578 18841910 18735206 18641948 18565896 18510260 18477378 
2517.802 18466142 18472814 18492384 18520702 18555454 18597090 18646998 
2521.178 18706736 18775614 18851564 18930918 19010700 19089150 19166538 
2524.553 19243492 19320284 19395912 19467950 19533554 19590606 19638340 
2527.928 19677374 19708094 19729660 19739022 19732226 19705112 19655778 
2531.303 19585372 19497822 19398372 19291880 19180770 19065398 18945350 
2534.679 18820524 18692518 18564444 18439590 18320198 18206920 18098334 
2538.054 17992262 17888254 17787238 17691114 17602944 17523868 17452634 
2541.429 17386690 17322478 17257656 17192534 17128628 17068038 17012042 
2544.804 16959496 16907578 16852876 16793566 16729580 16663400 16598264 
2548.180 16536543 16478894 16424591 16371567 16318891 16267290 16218070 
2551.555 16173083 16132744 16095607 16059332 16021203 15980467 15938358 
2554.930 15898282 15863294 15835218 15813466 15795426 15777525 15757527 
2558.305 15734198 15708432 15680948 15651785 15619462 15581785 15536556 
2561.681 15483708 15425477 15365366 15307494 15254057 15205225 15159246 
2565.056 15114265 15069531 15026551 14988033 14956789 14934258 14919614 
2568.431 14910664 14904801 14900994 14900240 14904526 14916014 14935252 
2571.806 14959875 14986215 15010566 15030392 15046205 15060715 15077147 
2575.182 15098005 15124078 15153996 15185769 15218264 15251517 15286626 
2578.557 15325411 15367597 15412225 15457098 15500740 15542703 15585323 
2581.932 15631655 15684728 15746394 15815459 15889207 15964551 16039185 
2585.307 16112456 16185842 16260618 16337676 16416917 16497100 16577264 
2588.683 16657857 16740186 16826044 16916776 17011766 17108568 17204150 
2592.058 17295686 17382308 17465638 17547982 17631102 17715170 17797940 
2595.433 17875720 17945366 18005802 18058232 18105968 18153022 18201564 
2598.808 18252668 18305854 18360188 18416014 18475062 18539374 18610786 
2602.184 18689404 18773468 18859902 18946768 19033236 19121074 19213324 
2605.559 19312420 19419474 19533624 19652380 19773664 19896682 20022684 
2608.934 20154382 20293966 20442034 20597134 20756218 20916438 21075986 
2612.309 21234864 21394704 21556762 21721282 21886704 22050200 22209260 
2615.685 22362482 22510210 22653972 22795340 22934586 23070558 23201122 
2619.060 23324344 23439736 23548792 23653640 23756588 23858546 23958988 
2622.435 24055914 24147820 24233860 24314938 24393020 24469222 24544174 
2625.810 24617002 24686052 24750134 24809068 24864184 24917240 24969632 
2629.186 25021576 25071946 25119338 25163014 25203110 25241386 25279630 
2632.561 25318722 25357674 25394524 25426456 25452490 25472974 25490226 
2635.936 25507128 25525680 25545570 25565074 25581626 25593190 25600710 
2639.311 25607282 25616632 25632800 25657474 25689850 25728204 25770324 
2642.687 25815224 25863716 25917702 25978694 26046556 26119916 26196068 
2646.062 26272730 26349050 26425806 26505254 26589508 26679308 26773918 
2649.437 26871512 26969902 27067822 27165376 27263162 27362030 27461944 
2652.812 27561740 27660004 27755786 27849430 27942672 28037914 28137240 
2656.188 28241682 28350958 28463978 28579786 28698034 28819110 28943372 
2659.563 29070788 29199834 29328176 29453542 29574652 29692212 29808280 
2662.938 29925902 30047142 30172432 30300316 30428342 30554418 30677860 
2666.313 30799420 30920586 31042924 31166756 31291336 31415168 31537362 
2669.688 31658232 31779672 31903718 32032288 32165718 32303076 32442476 
2673.064 32582528 32723344 32866490 33014114 33168160 33329054 33495772 
2676.439 33666204 33838136 34011068 34184896 34361088 34540396 34722976 
2679.814 34907860 35093900 35280268 35467656 35657892 35853324 36055496 
2683.189 36264828 36479956 36699048 36921060 37145644 37374248 37608748 
2686.565 37850496 38099328 38354012 38612692 38873736 39137476 39405472 
2689.940 39679480 39961144 40250336 40545648 40844656 41145908 41449124 
2693.315 41755720 42067828 42387392 42714652 43048856 43387888 43730304 
2696.690 44076068 44426184 44782568 45146672 45518620 45896860 46279664 
2700.066 46664876 47052052 47441344 47833988 48230612 48630672 49032444 
2703.441 49433688 49832784 50229452 50624772 51020044 51415936 51811516 
2706.816 52204580 52591868 52970888 53340836 53702556 54057744 54408076 
2710.191 54754408 55096240 55432884 55763944 56089944 56412680 56733620 
2713.567 57053508 57371024 57683172 57986192 58276804 58552744 58813428 
2716.942 59058888 59289140 59503328 59699984 59878240 60038156 60182340 
2720.317 60315148 60441904 60567628 60696364 60830964 60973580 61126848 
2723.692 61293940 61478464 61683424 61910412 62158780 62426600 62711360 
2727.068 63011392 63326588 63657784 64005816 64370304 64748520 65136416 
2730.443 65529368 65923400 66317104 66710160 67103296 67495936 67886456 
2733.818 68270968 68645384 69006288 69351712 69681344 69995968 70295752 
2737.193 70580296 70848536 71099760 71334448 71555728 71767880 71975640 
2740.569 72183072 72392720 72605712 72822928 73046488 73279608 73526872 
2743.944 73792616 74079152 74386600 74712600 75053968 75407080 75770064 
2747.319 76140776 76516744 76893944 77265336 77622312 77956576 78260912 
2750.694 78530880 78764856 78962840 79125408 79251688 79340384 79390504 
2754.070 79401728 79375312 79313336 79217296 79087088 78919888 78711640 
2757.445 78457512 78154552 77802136 77402240 76957392 76469992 75941432 
2760.820 75372160 74763640 74119704 73446192 72752328 72048112 71342184 
2764.195 70641968 69952800 69278208 68623104 67992928 67393960 66832572 
2767.571 66314056 65840960 65414064 65032916 64696828 64405732 64159848 
2770.946 63959204 63801824 63684680 63602888 63550912 63524484 63519500 
2774.321 63532768 63561344 63600660 63645088 63688128 63723660 63746648 
2777.696 63753708 63742772 63711724 63658512 63580140 63474364 63340888 
2781.072 63182360 63004000 62813660 62619224 62426448 62238844 62057472 
2784.447 61882024 61712260 61548252 61390028 61236632 61085008 60929776 
2787.822 60764348 60581568 60376900 60147668 59894516 59619052 59324008 
2791.197 59012120 58685780 58348652 58005808 57663496 57329504 57010472 
2794.573 56712320 56438940 56192844 55976404 55792052 55642840 55531976 
2797.948 55461344 55431636 55441576 55489392 55573508 55693576 55849812 
2801.323 56043084 56272464 56534944 56825796 57138948 57468440 57810564 
2804.698 58163256 58525448 58895948 59272048 59649384 60022252 60384860 
2808.073 60732984 61062924 61371936 61656692 61912172 62132052 62309860 
2811.449 62440032 62519880 62549500 62530944 62467384 62361456 62215248 
2814.824 62031024 61812300 61565432 61298748 61022544 60747196 60481548 
2818.199 60232844 60007380 59810740 59649156 59529244 59456664 59435048 
2821.574 59464836 59543268 59665120 59823932 60013960 60229384 60464408 
2824.950 60712900 60966412 61216032 61452892 61669292 61860664 62025020 
2828.325 62162256 62272460 62355640 62411224 62439036 62441024 62421628 
2831.700 62387276 62345584 62303244 62263968 62229740 62200720 62176824 
2835.075 62159580 62151820 62156904 62177856 62216396 62272916 62348260 
2838.451 62444852 62567832 62725788 62928392 63185388 63505964 63896976 
2841.826 64365380 64918972 65567748 66323816 67200792 68210136 69359680 
2845.201 70650112 72073344 73608520 75221512 76864552 78470896 79962520 
2848.576 81255976 82265232 82921776 83180488 83027944 82483808 81597208 
2851.952 80440256 79089672 77625200 76120088 74631736 73207480 71880120 
2855.327 70668240 69579048 68609168 67747592 66979216 66287920 65659428 
2858.702 65081528 64544456 64039760 63558660 63092656 62633692 62175028 
2862.077 61711916 61241936 60763276 60274796 59775336 59264452 58744800 
2865.453 58221976 57706748 57211292 56749892 56334512 55973124 55670488 
2868.828 55428024 55245452 55122008 55055128 55040760 55070660 55132580 
2872.203 55212072 55293128 55362264 55410560 55433748 55431112 55404800 
2875.578 55356956 55289364 55203836 55102784 54989500 54868160 54743244 
2878.954 54617580 54492436 54367632 54242748 54118728 53998344 53885648 
2882.329 53785316 53700120 53630684 53575388 53531872 53498444 53475168 
2885.704 53463888 53466776 53485400 53519316 53566656 53624796 53692356 
2889.079 53769040 53856616 53956960 54071216 54199280 54339956 54492436 
2892.455 54657936 54840264 55045648 55281048 55552760 55864848 56219056 
2895.830 56614960 57050748 57523252 58026900 58551684 59083788 59604532 
2899.205 60093364 60532468 60909416 61220572 61470716 61672276 61841752 
2902.580 61995516 62149716 62318888 62515288 62751712 63040548 63392072 
2905.956 63815916 64319508 64908816 65590904 66374972 67273016 68300552 
2909.331 69471688 70797632 72280080 73910568 75665056 77504024 79376624 
2912.706 81217896 82954304 84515048 85830096 86843424 87520544 87849024 
2916.081 87841392 87529384 86960352 86186232 85257208 84221264 83117648 
2919.457 81979048 80833416 79700544 78594200 77521880 76484336 75479296 
2922.832 74503448 73555448 72637480 71754672 70912536 70116160 69367648 
2926.207 68665904 68008464 67391632 66811776 66264884 65745384 65245992 
2929.582 64757252 64269708 63776112 63273156 62762508 62250236 61744764 
2932.958 61253876 60783780 60338640 59921068 59533424 59178896 58860168 
2936.333 58579328 58336372 58129808 57956392 57813740 57701108 57619980 
2939.708 57573260 57563652 57592176 57657024 57754168 57877832 58021904 
2943.083 58180036 58344336 58505168 58649900 58763156 58829588 58836340 
2946.458 58775752 58647736 58459444 58224136 57957528 57677572 57401992 
2949.834 57146208 56923960 56745964 56617940 56540452 56508864 56514448 
2953.209 56546304 56594656 56652864 56716740 56784972 56856196 56927888 
2956.584 56996268 57056568 57105540 57142804 57171492 57197116 57225356 
2959.959 57260584 57304744 57357448 57417576 57484176 57557444 57637956 
2963.335 57725476 57818208 57912696 58004748 58090944 58169960 58242780 
2966.710 58311704 58379012 58445572 58510812 58573716 58634504 58695676 
2970.085 58762360 58840440 58935228 59049128 59181324 59328300 59485432 
2973.460 59648816 59815528 59983524 60150260 60311608 60461896 60594368 
2976.836 60703108 60784088 60835920 60859060 60854752 60824144 60767928 
2980.211 60687488 60585608 60468024 60341952 60215604 60095344 59983904 
2983.586 59879572 59776784 59668088 59544904 59399296 59224692 59014892 
2986.961 58765208 58472676 58136664 57760260 57349508 56912780 56457996 
2990.337 55990836 55514200 55028048 54531844 54026712 53516620 53007988 
2993.712 52508248 52022196 51551612 51092976 50640264 50185304 49721608 
2997.087 49244564 48751580 48241980 47715740 47173700 46618132 46052744 
3000.462 45483740 44918024 44362140 43820492 43295004 42784592 42287712 
3003.838 41803400 41332308 40876764 40438932 40020072 39618460 39231684 
3007.213 38856272 38490196 38133980 37789872 37459908 37144852 36842320 
3010.588 36547352 36254960 35960932 35664256 35366780 35072168 34783460 
3013.963 34502404 34228200 33959508 33694992 33435180 33181428 32936222 
3017.339 32700944 32474968 32256320 32042596 31832226 31625766 31425354 
3020.714 31233580 31051998 30880346 30716730 30558968 30406558 30261200 
3024.089 30127290 30010110 29913868 29841248 29792308 29765766 29759380 
3027.464 29771444 29799300 29838268 29881638 29918874 29937724 29927250 
3030.840 29879012 29789862 29661310 29499146 29309920 29099734 28873394 
3034.215 28634924 28387992 28137134 27887198 27642314 27404944 27175076 
3037.590 26950900 26730188 26511840 26296770 26087158 25885346 25692556 
3040.965 25507654 25328134 25150794 24974334 24799490 24628608 24465084 
3044.341 24310804 24165720 24028180 23896178 23768452 23646362 23532034 
3047.716 23427706 23334800 23251350 23173860 23098234 23021502 22942900 
3051.091 22864136 22787378 22714298 22645072 22578160 22511710 22444854 
3054.466 22378704 22315390 22257700 22207098 22162708 22122542 22083980 
3057.842 22045494 22007742 21973306 21944936 21924410 21911654 21904896 
3061.217 21901478 21899702 21899562 21902838 21911830 21928452 21953406 
3064.592 21986132 22025416 22070594 22121460 22177806 22238588 22300810 
3067.967 22359864 22409858 22445794 22464708 22466486 22452670 22425838 
3071.343 22387670 22338692 22278872 22208910 22131256 22050340 21971774 
3074.718 21900258 21838166 21784720 21737028 21691120 21644134 21595276 
3078.093 21545028 21494892 21445178 21395088 21343332 21288242 21230098 
3081.468 21170638 21112544 21058180 21008134 20961396 20915778 20869502 
3084.844 20822398 20776934 20735782 20702244 20677432 20660198 20648070 
3088.219 20638898 20631600 20627466 20628786 20637438 20652970 20673056 
3091.594 20693522 20710308 20721498 20727650 20731646 20737380 20747182 
3094.969 20761882 20780790 20802272 20825424 20850556 20878612 20910042 
3098.344 20944568 20979966 21013594 21043468 21069866 21094492 21120754 
3101.720 21151610 21187790 21228462 21271120 21312984 21353354 21392964 
3105.095 21433516 21476822 21523024 21570306 21615996 21657648 21694602 
3108.470 21728320 21761694 21797158 21836214 21878202 21921622 21964908 
3111.845 22007882 22051524 22098100 22148936 22203400 22259164 22312774 
3115.221 22361366 22403996 22441748 22477058 22512340 22548528 22584510 
3118.596 22618404 22648074 22673348 22695410 22716534 22738948 22763390 
3121.971 22789298 22815420 22841122 22866860 22894802 22927076 22964628 
3125.346 23006760 23050712 23093132 23131816 23166624 23199514 23233558 
3128.722 23270750 23311444 23353540 23394276 23431342 23464496 23495344 
3132.097 23526998 23561872 23600670 23641988 23683834 23724602 23764322 
3135.472 23805340 23850110 23901078 23958358 24020160 24083164 24144948 
3138.847 24204114 24261084 24317672 24374760 24432172 24488642 24542350 
3142.223 24592666 24640776 24689490 24741750 24799280 24861622 24925696 
3145.598 24988374 25047268 25102206 25155428 25210378 25269726 25334456 
3148.973 25403410 25474344 25545430 25616034 25687072 25759810 25834634 
3152.348 25910106 25983724 26052676 26115764 26174038 26230842 26289626 
3155.724 26352818 26420630 26490884 26560762 26628326 26693612 26758696 
3159.099 26826290 26897950 26973640 27051002 27127248 27200896 27272230 
3162.474 27343540 27417896 27497066 27580594 27666504 27752042 27835652 
3165.849 27917656 28000520 28086408 28176306 28268804 28360296 28446820 
3169.225 28526532 28600066 28671098 28743806 28821660 28905300 28992712 
3172.600 29080106 29164398 29244420 29321230 29397236 29474464 29553336 
3175.975 29633038 29711726 29788512 29863822 29939496 30017922 30099768 
3179.350 30184154 30268518 30350590 30429266 30506038 30584244 30667336 
3182.726 30757308 30853524 30952464 31050042 31143582 31232300 31318470 
3186.101 31405122 31494856 31588920 31685960 31784274 31882714 31981498 
3189.476 32082230 32186732 32295472 32406844 32518320 32627140 32732132 
3192.851 32834612 32937902 33045258 33158466 33276680 33396822 33515100 
3196.227 33629328 33738968 33846376 33954208 34064496 34177584 34291624 
3199.602 34404872 34516324 34626976 34739092 34855256 34976412 35100976 
3202.977 35226116 35348524 35466292 35580384 35693644 35809172 35929112 
3206.352 36053120 36178968 36303876 36425976 36545224 36663428 36782524 
3209.728 36903208 37024212 37143228 37257908 37367640 37474432 37581756 
3213.103 37693664 37812284 37937160 38065720 38195012 38322816 38449144 
3216.478 38575284 38703164 38832900 38963176 39090884 39213480 39330052 
3219.853 39442516 39554504 39669860 39790732 39916828 40046120 40175676 
3223.229 40303848 40431332 40560164 40692124 40827548 40964616 41099832 
3226.604 41229880 41353080 41470628 41585256 41700460 41817884 41936652 
3229.979 42054252 42168044 42276608 42381620 42485856 42592564 42703576 
3233.354 42817904 42932632 43044904 43153028 43257920 43362224 43469364 
3236.729 43581076 43697400 43815948 43933948 44049848 44163984 44278292 
3240.105 44395060 44515672 44639444 44764496 44888628 45010300 45130236 
3243.480 45250320 45372128 45496436 45622328 45748140 45872516 45995680 
3246.855 46119688 46247560 46381740 46522676 46668676 46816640 46963696 
3250.230 47108812 47253120 47398660 47547616 47700540 47856180 48011956 
3253.606 48166120 48318296 48470756 48626412 48787728 48954996 49126376 
3256.981 49298416 49468148 49634420 49798188 49961980 50127844 50296152 
3260.356 50465344 50632964 50796816 50956888 51115636 51276572 51443052 
3263.731 51616312 51795540 51978128 52161724 52345176 52529116 52715452 
3267.107 52905048 53097728 53291800 53484764 53675408 53864492 54054628 
3270.482 54248492 54447664 54650912 54854776 55055128 55249216 55437324 
3273.857 55622804 55810436 56003652 56203408 56407740 56613264 56816884 
3277.232 57018860 57221500 57429336 57645788 57872112 58106284 58344864 
3280.608 58584296 58823476 59063780 59307752 59557708 59813932 60073960 
3283.983 60334488 60593036 60849948 61108536 61373504 61648900 61936244 
3287.358 62233568 62536872 62841840 63146756 63452736 63762568 64079344 
3290.733 64404660 64737632 65076180 65417796 65762424 66111916 66469444 
3294.109 66837132 67215336 67601264 67991296 68381872 68772448 69164896 
3297.484 69563456 69971600 70391048 70820440 71256600 71696240 72137968 
3300.859 72582840 73033392 73493280 73963752 74444872 74934688 75431280 
3304.234 75934560 76445808 76967712 77502080 78049208 78607984 79175744 
3307.610 79751056 80334432 80927736 81534040 82154968 82789728 83435464 
3310.985 84088704 84747000 85410904 86084176 86771280 87476288 88199664 
3314.360 88938880 89688760 90445048 91205184 91969928 92741856 93524104 
3317.735 94317656 95121432 95932624 96748632 97568760 98394136 99227288 
3321.111 100069920 100921632 101779464 102638736 103495592 104347864 
3324.004 105196032 106042088 106887464 107731568 108571392 109402824 
3326.897 110221856 111027152 111818904 112598832 113367728 114123416 
3329.790 114860920 115574168 116257880 116909064 117528728 118119184 
3332.683 118682232 119217368 119720800 120186680 120610456 120989584 
3335.576 121325240 121621072 121880872 122106592 122296776 122447984 
3338.469 122556232 122619456 122637528 122612080 122544680 122435240 
3341.362 122281232 122078768 121824544 121516696 121156024 120744016 
3344.255 120282296 119770008 119204544 118582648 117902576 117165888 
3347.148 116376896 115543080 114670944 113765344 112828664 111861680 
3350.041 110865024 109840952 108793192 107725496 106641344 105541352 
3352.934 104424592 103289336 102136336 100968536 99792984 98617528 97449560 
3356.310 96294280 95154104 94030008 92922344 91833064 90764064 89717768 
3359.685 88694552 87692960 86710104 85743392 84792472 83859312 82947840 
3363.060 82061256 81200408 80362784 79543520 78737928 77944208 77164408 
3366.435 76403776 75668688 74963200 74287744 73638504 73009992 72396792 
3369.811 71796176 71208072 70634088 70075320 69531288 68999640 68477016 
3373.186 67961112 67450960 66947056 66450140 65960080 65474892 64991584 
3376.561 64507856 64023016 63539824 63061664 62592320 62132856 61681476 
3379.936 61233732 60785500 60333536 59877972 59420532 58963804 58508580 
3383.312 58053712 57597132 57136608 56672720 56208876 55749444 55298960 
3386.687 54858648 54426516 53998044 53568756 53136408 52701948 52269192 
3390.062 51841828 51422052 51008940 50599716 50191476 49783696 49378448 
3393.437 48980516 48594172 48220728 47857884 47500296 47141936 46778888 
3396.813 46411240 46041764 45675656 45316664 44965828 44621596 44281268 
3400.188 43942560 43605584 43271576 42942656 42619248 42300420 41983184 
3403.563 41664608 41343532 41020912 40699584 40382456 40070832 39763892 
3406.938 39459208 39154044 38847136 38539580 38233836 37932424 37636568 
3410.313 37345428 37057084 36769976 36484136 36201404 35924364 35654584 
3413.689 35391692 35132444 34873280 34610940 34345308 34079048 33815964 
3417.064 33559484 33310342 33066568 32824464 32581172 32336128 32091826 
3420.439 31852514 31621598 31400208 31186158 30975416 30763746 30549298 
3423.814 30333144 30117916 29906164 29698918 29494854 29291170 29085810 
3427.190 28878954 28672866 28471302 28277184 28090754 27909422 27728484 
3430.565 27544476 27355572 27163188 26970644 26781460 26596974 26416792 
3433.940 26238936 26061190 25883726 25708236 25537242 25372252 25212766 
3437.315 25055904 24898044 24736734 24571592 24405146 24240620 24080116 
3440.691 23923312 23767752 23610116 23448688 23284840 23121960 22964350 
3444.066 22814198 22669752 22525914 22376646 22217558 22048980 21875520 
3447.441 21704390 21542312 21392058 21251914 21116754 20981008 20840822 
3450.816 20695608 20548010 20401018 20256852 20115754 19976088 19836712 
3454.192 19697414 19559792 19425814 19296694 19171352 19046392 18918180 
3457.567 18783814 18643712 18500578 18358908 18221812 18090078 17962010 
3460.942 17834636 17705850 17576480 17449218 17327960 17215286 17110636 
3464.317 17010078 16908888 16803176 16691461 16576473 16461756 16350957 
3467.693 16244933 16141925 16038015 15929971 15816594 15699396 15581202 
3471.068 15464583 15350091 15236658 15122122 15004702 14885530 14767110 
3474.443 14653555 14546882 14447464 14352382 14258418 14162660 14064629 
3477.818 13965697 13868189 13772688 13677652 13579833 13475749 13364068 
3481.194 13247360 13130446 13020050 12920262 12831488 12750340 12670845 
3484.569 12587884 12499041 12405238 12309887 12216705 12128175 12044025 
3487.944 11962820 11882856 11803383 11725014 11648735 11574478 11500607 
3491.319 11424639 11344231 11258667 11170095 11082017 10998443 10921476 
3494.695 10850129 10781612 10712698 10641487 10569302 10499370 10435185 
3498.070 10378544 10328051 10279871 10229220 10173385 10112708 10049902 
3501.445 9989005 9932930 9881777 9833578 9785215 9735368 9685255 9638264 
3505.302 9598223 9566924 9543587 9524416 9504738 9481235 9452756 9421433 
3509.160 9390553 9362656 9338720 9318170 9299654 9282729 9268782 9259881 
3513.017 9257578 9261200 9267564 9271457 9268817 9257714 9239910 9219468 
3516.875 9201158 9188129 9179972 9174016 9166435 9154964 9139500 9121768 
3520.732 9103530 9084752 9062760 9033259 8991818 8936684 8869584 8795428 
3524.590 8718953 8643233 8568441 8491497 8409366 8320562 8226746 8132139 
3528.447 8041570 7957903 7881068 7808161 7735400 7660460 7582970 7504651 
3532.304 7427155 7350448 7272137 7188315 7095753 6993951 6886113 6778100 
3536.162 6675665 6581800 6496161 6414137 6331119 6244354 6154345 6065094 
3540.019 5981405 5906430 5840334 5780226 5720864 5658153 5590552 5518665 
3543.877 5444609 5369929 5294356 5216281 5133827 5046697 4957472 4870410 
3547.734 4789832 4717876 4653770 4594261 4535630 4475132 4412467 4349176 
3551.592 4287031 4227036 4167786 4106671 4041383 3971759 3900140 3830972 
3555.449 3768033 3713290 3665571 3621465 3576663 3528324 3476216 3421744 
3559.306 3367512 3314589 3263075 3211599 3159330 3106866 3056444 3010665 
3563.164 2970830 2935568 2899709 2855781 2797785 2721958 2629409 2525349 
3567.021 2417382 2311874 2212718 2120278 2034016 1953097 1878282 1810435 
3570.879 1749949 1695493 1644237 1592521 1538052 1480697 1423515 1370230 
3574.736 1323566 1283718 1246965 1208022 1162039 1106627 1043417 976364 
3578.594 910117 847699 789738 734904 681472 629140 579934 536506 501673 
3582.933 475568 456263 439413 420840 396961 366683 330041 287201 237967 
3587.273 181811 118337 50200 -17593 -78686 -127613 -162160 -184782 -201805 
3591.612 -219888 -244957 -279627 -322042 -367996 -412852 -453997 -491497 
3595.470 -527173 -562351 -597029 -629256 -656121 -676533 -692313 -707564 
3599.327 -727411 -754998 -789528 -826305 -858912 -881728 -892144 -892045 
3603.185 -886192 -879579 -875876 -876702 -882853 -895153 -916910 -952552 
3607.042 -1006174 -1078663 -1166109 -1259022 -1345739 -1417477 -1470382 
3610.417 -1507662 -1536091 -1563131 -1593471 -1627241 -1661075 -1690517 
3613.792 -1712894 -1728340 -1740121 -1752002 -1766786 -1785661 -1808264 
3617.168 -1834034 -1863398 -1898005 -1938778 -1985155 -2032977 -2075848 
3620.543 -2107735 -2125408 -2129992 -2125771 -2118056 -2110999 -2105163 
3623.918 -2098107 -2086203 -2067340 -2043531 -2021830 -2012365 -2026645 
3627.293 -2072386 -2151522 -2255531 -2368149 -2470919 -2548599 -2595668 
3630.669 -2615232 -2614837 -2603079 -2587335 -2573699 -2566288 -2568297 
3634.044 -2580089 -2599555 -2623005 -2645564 -2663413 -2675400 -2683007 
3637.419 -2688967 -2697266 -2709449 -2725386 -2742936 -2759661 -2773983 
3640.794 -2786263 -2797819 -2809506 -2819843 -2826032 -2823826 -2810065 
3644.170 -2785243 -2753439 -2722324 -2699900 -2693150 -2704773 -2733782 
3647.545 -2776321 -2827974 -2886961 -2952851 -3024719 -3098714 -3166249 
3650.920 -3217330 -3244002 -3244002 -3221638 -3186379 -3149999 -3122137 
3654.295 -3109340 -3113419 -3131808 -3158848 -3188287 -3215323 -3237326 
3657.671 -3253539 -3264194 -3269489 -3270213 -3267746 -3264852 -3265280 
3661.046 -3271396 -3284320 -3302275 -3321675 -3337721 -3347223 -3349131 
3664.421 -3344692 -3336340 -3325950 -3314737 -3302998 -3291620 -3283630 
3667.796 -3284222 -3299841 -3334992 -3388979 -3453313 -3512051 -3550109 
3671.172 -3557142 -3532888 -3486414 -3431617 -3383850 -3355443 -3354621 
3674.547 -3382732 -3434642 -3498181 -3559541 -3608275 -3639491 -3654277 
3677.922 -3656642 -3651352 -3642612 -3634267 -3628254 -3625264 -3625066 
3681.297 -3626249 -3627136 -3626644 -3624343 -3620203 -3614551 -3607289 
3684.673 -3597793 -3585996 -3572588 -3559903 -3552213 -3553889 -3567658 
3688.048 -3592568 -3622766 -3650597 -3668208 -3673333 -3668405 -3659994 
3691.423 -3654572 -3655558 -3662031 -3669719 -3673727 -3671000 -3662392 
3694.798 -3652141 -3645602 -3646950 -3656018 -3668668 -3678623 -3680167 
3698.174 -3671263 -3655065 -3637684 -3627169 -3628352 -3643237 -3668569 
3701.549 -3698729 -3727475 -3750470 -3765580 -3772544 -3771460 -3762328 
3704.924 -3745247 -3720641 -3690680 -3658811 -3628516 -3602591 -3581987 
3708.299 -3566443 -3554250 -3546297 -3545114 -3555335 -3581165 -3623128 
3711.675 -3675830 -3730103 -3774810 -3802105 -3810678 -3803846 -3788671 
3715.050 -3770967 -3753722 -3736673 -3717586 -3693998 -3665612 -3635121 
3718.425 -3607191 -3586061 -3573935 -3569663 -3569565 -3570025 -3568020 
3721.800 -3562992 -3556584 -3550208 -3545081 -3541104 -3537916 -3536536 
3725.176 -3539461 -3549781 -3568841 -3594769 -3621255 -3640214 -3644715 
3728.551 -3632558 -3607257 -3577780 -3554940 -3546363 -3554842 -3575118 
3731.926 -3596971 -3609458 -3607552 -3593587 -3578043 -3572785 -3585930 
3735.301 -3617772 -3660749 -3702343 -3731449 -3743046 -3738512 -3723105 
3738.677 -3701751 -3677177 -3648954 -3615833 -3577846 -3538771 -3505576 
3742.052 -3488222 -3496340 -3535485 -3602952 -3685851 -3764036 -3817050 
3745.427 -3834325 -3817871 -3777931 -3726850 -3675534 -3632722 -3604332 
3748.802 -3593587 -3600849 -3623325 -3655196 -3689596 -3720444 -3743900 
3752.177 -3758780 -3765317 -3764134 -3755857 -3740155 -3716864 -3686508 
3755.553 -3651549 -3615767 -3584714 -3563058 -3554250 -3558687 -3573869 
3758.928 -3594868 -3616950 -3635745 -3647902 -3652010 -3646884 -3632459 
3762.303 -3610214 -3582446 -3553429 -3528780 -3513234 -3509586 -3516882 
3765.678 -3530423 -3543471 -3550832 -3550307 -3544391 -3538081 -3537259 
3769.054 -3544752 -3559640 -3577057 -3590761 -3596577 -3593685 -3584813 
3772.429 -3574034 -3564832 -3557964 -3551851 -3543339 -3530325 -3512610 
3775.804 -3492790 -3475074 -3463832 -3462123 -3469847 -3485329 -3505280 
3779.179 -3526381 -3545673 -3561414 -3572095 -3576696 -3574691 -3566475 
3782.555 -3553560 -3538442 -3524113 -3512774 -3505214 -3500711 -3497326 
3785.930 -3493875 -3490259 -3487926 -3489208 -3495157 -3505280 -3516981 
3789.305 -3526775 -3531968 -3531705 -3527038 -3520465 -3513990 -3507778 
3792.680 -3500744 -3491048 -3478163 -3464128 -3453083 -3450059 -3457521 
3796.056 -3473890 -3492166 -3503637 -3501073 -3482206 -3451439 -3418435 
3799.431 -3395422 -3391707 -3411498 -3450618 -3497096 -3535977 -3554973 
3802.806 -3550011 -3524212 -3485329 -3442301 -3403740 -3376518 -3365044 
3806.181 -3371225 -3392957 -3423498 -3453510 -3474186 -3480168 -3470044 
3809.557 -3447528 -3418172 -3387138 -3358074 -3331408 -3305136 -3277086 
3812.932 -3246765 -3217330 -3195063 -3187925 -3200720 -3232294 -3272580 
3816.307 -3306747 -3321905 -3311613 -3279453 -3235320 -3192925 -3163782 
3819.682 -3155657 -3170657 -3204371 -3248508 -3292673 -3328613 -3351728 
3823.058 -3360770 -3356167 -3339891 -3314869 -3285044 -3256269 -3233873 
3826.433 -3221375 -3219336 -3224664 -3231965 -3236536 -3235977 -3231044 
3829.808 -3224993 -3221079 -3221145 -3223644 -3224993 -3220717 -3208219 
3833.183 -3188254 -3164045 -3140559 -3121676 -3109504 -3103945 -3104010 
3836.559 -3108517 -3117038 -3129901 -3146151 -3163585 -3178748 -3188189 
3839.934 -3190557 -3187564 -3183880 -3185261 -3195523 -3216080 -3244463 
3843.309 -3275540 -3303656 -3325029 -3338708 -3346237 -3349492 -3349854 
3846.684 -3346566 -3337360 -3319538 -3290963 -3251895 -3204371 -3152434 
3850.060 -3100589 -3054759 -3021757 -3008332 -3022218 -3068841 -3146151 
3853.435 -3241897 -3336242 -3408671 -3446410 -3449697 -3426391 -3388683 
3856.810 -3347388 -3309673 -3278105 -3252026 -3228479 -3205456 -3182959 
3860.185 -3163091 -3149079 -3142796 -3143848 -3149440 -3156874 -3164243 
3863.561 -3172268 -3183419 -3199240 -3218053 -3234234 -3239891 -3229038 
3866.936 -3200819 -3160756 -3119209 -3089042 -3080192 -3095095 -3126512 
3870.311 -3160131 -3182070 -3185097 -3171545 -3149999 -3131743 -3125163 
3873.686 -3133190 -3152269 -3174571 -3192004 -3198418 -3192135 -3174966 
3877.062 -3150657 -3123584 -3097562 -3077066 -3066406 -3068841 -3085225 
3880.437 -3112169 -3141973 -3164867 -3172861 -3163420 -3140131 -3111873 
3883.812 -3090489 -3085653 -3101181 -3132993 -3169571 -3197957 -3208120 
3887.187 -3197530 -3170722 -3136578 -3103583 -3078283 -3064531 -3063083 
3890.563 -3072855 -3091443 -3116084 -3142335 -3165460 -3180853 -3184340 
3893.938 -3174768 -3153026 -3122861 -3089338 -3056602 -3027187 -3001685 
3897.313 -2978848 -2957885 -2939127 -2924251 -2915859 -2915628 -2922606 
3900.688 -2933664 -2945709 -2956240 -2966277 -2978651 -2997177 -3022942 
3904.063 -3053838 -3084205 -3107399 -3119209 -3119637 -3112531 -3103188 
3907.439 -3096444 -3093976 -3094700 -3094996 -3091608 -3083120 -3070749 
3910.814 -3056799 -3044099 -3032945 -3021856 -3008168 -2990333 -2968680 
3914.189 -2946795 -2929616 -2921125 -2922869 -2932446 -2945281 -2956339 
3917.564 -2962526 -2963447 -2961012 -2957523 -2953245 -2946532 -2934651 
3920.940 -2915990 -2891437 -2864841 -2841800 -2827579 -2824517 -2831529 
3924.315 -2844170 -2857501 -2866948 -2871096 -2870503 -2867310 -2863163 
3927.690 -2858061 -2851938 -2844235 -2836006 -2829685 -2828138 -2833471 
3931.065 -2845881 -2862537 -2879357 -2892424 -2899534 -2901212 -2899929 
3934.441 -2898217 -2897888 -2899007 -2900653 -2901739 -2901937 -2902002 
3937.816 -2902858 -2904964 -2907499 -2908684 -2906676 -2901114 -2893181 
3941.191 -2886105 -2882945 -2885282 -2892589 -2901410 -2908157 -2910263 
3944.566 -2907795 -2902858 -2898941 -2898349 -2901015 -2905162 -2907795 
3947.942 -2906215 -2900587 -2892951 -2886203 -2882649 -2882385 -2883110 
3951.317 -2881727 -2876132 -2865928 -2853386 -2841602 -2833570 -2830410 
3954.692 -2831101 -2833636 -2836401 -2838870 -2841767 -2846243 -2852267 
3958.067 -2858028 -2860529 -2856316 -2844137 -2825472 -2804535 -2786198 
3961.443 -2774576 -2771185 -2774214 -2780502 -2786198 -2789556 -2790181 
3964.818 -2789589 -2788733 -2788173 -2786823 -2783597 -2777671 -2770164 
3968.193 -2763316 -2759299 -2759727 -2763744 -2769275 -2773720 -2775300 
3971.568 -2774214 -2772469 -2772074 -2774312 -2778560 -2782247 -2782148 
3974.944 -2776288 -2764304 -2748138 -2730128 -2712577 -2696113 -2680603 
3978.319 -2665324 -2650965 -2639109 -2632720 -2633807 -2643061 -2658408 
3981.694 -2676158 -2692458 -2705070 -2713664 -2720118 -2726440 -2733980 
3985.069 -2741849 -2747479 -2748500 -2743660 -2734243 -2722587 -2712215 
3988.445 -2704971 -2700493 -2696936 -2691898 -2684028 -2674017 -2664632 
3991.820 -2658507 -2657288 -2660417 -2665785 -2670296 -2672601 -2672865 
3995.195 -2672568 -2674610 -2679714 -2687222 -2695257 -2701382 -2704214 
3998.570 -2704214 -2703325 -2703390 -2705300 -2707902 
##END=
