##TITLE=1731o_3_a
##JCAMP-DX=5.01  $$ Nicolet v. 1
##DATATYPE=INFRARED SPECTRUM
##ORIGIN=UniL
##OWNER=Nicolet
##LONGDATE=2011/09/29
##TIME=14:49:16
##SPECTROMETER/DATA SYSTEM=Nicolet iS5
##DATA PROCESSING=
Ratio against background
%Transmittance->Absorbance
Truncated
ElementMultiply or ElementDivide
##COMMENTS=
Number of sample scans: 32
Collection length: 51.20 sec
Sample gain: 2.0
Background collected on: Jeu Sep 29 14:47:48 2011 (GMT+02:00);
Number of background scans: 32
Background gain: 2.0
Sample spacing:  1.000
Number of scan points: 12415
Resolution points: 8192
Number of FFT points: 65536
Apodization: N-B fort;
Phase correction: Mertz;
Laser frequency: 15798.0 cm-1
Number of rejected sample scans: 0
Number of rejected background scans: 0
Bench serial number: ASB1000141;
##RESOLUTION=4.000
##XUNITS=1/CM
##YUNITS=ABSORBANCE
##FIRSTX=649.893372
##LASTX=4000.122314
##FIRSTY=0.102086
##MAXX=4000.122314
##MINX=649.893372
##MAXY=0.238282
##MINY=-0.001500
##XFACTOR=1.000000
##YFACTOR=1.000000E-009
##NPOINTS=6950
##DELTAX=0.482117
##ZPD=6100
##XYDATA=(X++(Y..Y))
649.893 102085576 101537768 101046008 100630920 100293720 100022200 99801656 
653.268 99623656 99489432 99405368 99375840 99395792 99449400 99516768 
656.643 99580112 99630416 99668800 99700768 99728744 99748752 99749000 
660.018 99716816 99644880 99534688 99398248 99251272 99111248 98990504 
663.393 98895464 98825112 98771536 98718960 98638072 98484864 98200392 
666.767 97722272 97020240 96136280 95194784 94339968 93665544 93176704 
670.142 92819144 92514776 92193160 91810752 91350984 90826216 90263944 
673.517 89693816 89132848 88580608 88024936 87453832 86865520 86271656 
676.892 85691840 85143312 84633248 84155584 83696928 83244096 82794056 
680.267 82354704 81940840 81565824 81234240 80938712 80665376 80399184 
683.642 80131880 79865296 79607800 79368464 79151296 78952112 78761520 
687.016 78571096 78377848 78186680 78007648 77849856 77715536 77598136 
690.391 77484336 77361216 77222112 77070064 76915456 76773200 76654120 
693.766 76562264 76494608 76444384 76405832 76377336 76360984 76359528 
697.141 76371896 76391440 76406456 76404048 76375136 76318048 76238544 
700.516 76146736 76051984 75960760 75874776 75793224 75715192 75642336 
703.890 75577872 75524632 75482136 75445000 75404320 75350912 75280104 
707.265 75193376 75098480 75006552 74927840 74868976 74834224 74827920 
710.640 74857560 74935872 75077168 75291448 75576328 75912184 76261648 
714.015 76573408 76798944 76900864 76861944 76688472 76403968 76041880 
717.390 75634136 75212208 74808240 74457816 74208808 74117384 74234048 
720.765 74590576 75175608 75924264 76709944 77370128 77738408 77669136 
724.139 77087040 75999088 74498960 72736104 70886800 69116296 67535568 
727.514 66201164 65114284 64241356 63533424 62944212 62443128 62010844 
730.889 61636988 61313856 61031276 60777572 60542144 60318000 60103108 
734.264 59899656 59710400 59536920 59377944 59230460 59091648 58960580 
737.639 58838656 58728260 58631280 58547252 58474268 58408460 58346908 
741.013 58287980 58231716 58178296 58127344 58077688 58027580 57976840 
744.388 57927236 57883280 57849436 57828052 57816844 57808856 57793152 
747.763 57759504 57701488 57619036 57518216 57409104 57302476 57205924 
751.138 57122620 57052300 56992264 56939900 56893820 56854308 56822700 
754.513 56800604 56789428 56790104 56803136 56829004 56866924 56915764 
757.888 56973408 57037900 57107996 57184040 57268640 57365200 57477900 
761.262 57609200 57760224 57930608 58120184 58330196 58566020 58839188 
764.637 59168872 59585224 60130164 60850104 61794000 62994040 64448164 
768.012 66099568 67828736 69463280 70783664 71580768 71696896 71059984 
771.387 69713096 67805768 65569824 63247360 61059340 59165340 57639352 
774.762 56487164 55662164 55096844 54717352 54460136 54279016 54136520 
778.136 54003260 53856952 53679948 53463440 53207188 52918936 52610228 
781.511 52291724 51971364 51653552 51341456 51039160 50752904 50490912 
784.886 50261964 50072068 49924884 49822008 49764112 49753300 49792984 
788.261 49887156 50039048 50249652 50517824 50842256 51223332 51664604 
791.636 52174652 52764912 53447776 54236516 55142400 56176556 57351588 
795.010 58682288 60187588 61891804 63821712 66008568 68487304 71295056 
798.385 74473160 78066224 82114976 86652176 91685144 97181552 103038904 
801.760 109068688 115000928 120460880 125027984 128301400 129938040 
804.653 129759536 127788752 124269720 119607984 114295256 108822736 
807.546 103543864 98647848 94142960 89902264 85731480 81453936 76984048 
810.920 72344104 67659848 63103192 58859524 55072432 51817300 49110124 
814.295 46914708 45167516 43791428 42715092 41878340 41229080 40727092 
817.670 40342280 40052008 39843244 39708672 39643940 39643868 39700500 
821.045 39802460 39939384 40103536 40292796 40511128 40765528 41062608 
824.420 41406292 41796832 42232384 42711216 43234020 43804844 44430184 
827.794 45118584 45879480 46724424 47669368 48735640 49952428 51358388 
831.169 52996004 54912940 57154748 59752372 62710404 65985112 69473896 
834.544 72989296 76261848 78982672 80812344 81464920 80778776 78745240 
837.919 75531256 71430720 66831180 62112940 57592552 53510132 49992464 
841.294 47077084 44735368 42900668 41489916 40418020 39612284 39008628 
844.669 38553596 38208324 37944032 37743680 37600220 37511528 37476128 
848.043 37491084 37550036 37645024 37769776 37920204 38095456 38296036 
851.418 38521368 38768300 39031976 39306764 39589892 39882428 40189704 
854.793 40519420 40879312 41276156 41715048 42201784 42744268 43353508 
858.168 44043980 44833336 45739748 46784868 47993968 49395448 51022616 
861.543 52904224 55053776 57453352 60040252 62701060 65263360 67529104 
864.917 69295080 70380248 70673744 70146024 68860736 66956528 64632268 
868.292 62115004 59607612 57285612 55270924 53624984 52365024 51471848 
871.667 50907256 50621760 50564764 50689744 50949096 51298276 51696024 
875.042 52103480 52492060 52846220 53165952 53466736 53775976 54127248 
878.417 54549464 55060504 55658208 56317576 56988256 57599704 58076968 
881.792 58347216 58359192 58096700 57582908 56878332 56064764 55236836 
885.166 54477636 53846300 53377404 53079044 52940756 52942140 53060812 
888.541 53276332 53570292 53927548 54334060 54777452 55248196 55741492 
891.916 56256508 56795884 57363080 57960784 58589640 59249224 59938944 
895.291 60659632 61411972 62194068 62998832 63809888 64603312 65351620 
898.666 66025844 66604732 67076108 67437416 67693616 67853528 67928608 
902.040 67930696 67874368 67778072 67662864 67553304 67474840 67449256 
905.415 67496512 67633240 67872544 68227112 68707352 69321504 70074496 
908.790 70967592 71999264 73167368 74471384 75913720 77498720 79230576 
912.165 81110096 83133376 85292568 87579848 89991936 92535112 95226136 
915.540 98090936 101156496 104445288 107965376 111704728 115620560 119633688 
918.914 123627688 127430976 130830216 133592264 135471152 136272912 
921.807 135897696 134376384 131888672 128753616 125414536 122340464 
924.700 119996760 118780224 118930440 120513800 123382152 127203448 
927.593 131460664 135531120 138826640 140830432 141228048 139948240 
930.485 137138256 133101672 128190456 122756496 117068648 111304880 
933.378 105580608 99964632 94514576 89301064 84403400 79909224 75904880 
936.753 72455112 69606152 67382232 65786748 64806520 64409384 64543724 
940.128 65125220 66035912 67135624 68254720 69223728 69898704 70166584 
943.502 69971408 69316296 68260800 66905268 65371112 63788852 62267640 
946.877 60889596 59706672 58737856 57979184 57411712 57011756 56754840 
950.252 56619036 56586500 56639308 56760652 56935028 57149080 57393712 
953.627 57665120 57963508 58291016 58649216 59037248 59452184 59890260 
957.002 60348500 60825972 61323360 61841336 62379396 62934408 63501440 
960.377 64075932 64654416 65236136 65821952 66412808 67008020 67605104 
963.751 68199936 68789728 69374216 69956336 70541512 71134688 71739384 
967.126 72356280 72984240 73622448 74271936 74936304 75620968 76331048 
970.501 77069432 77836696 78632160 79455544 80309680 81199568 82131992 
973.876 83112592 84143760 85224312 86350832 87520432 88731992 89986968 
977.251 91287280 92632544 94017952 95434376 96868720 98308488 99744000 
980.625 101167872 102574784 103957968 105307360 106610264 107853624 
983.518 109026816 110125312 111149408 112101464 112982248 113787000 
986.411 114505728 115126472 115639416 116041152 116336568 116538536 
989.304 116664576 116733928 116767960 116789072 116820768 116889376 
992.196 117019320 117229720 117531816 117925872 118403192 118949560 
995.089 119551032 120196816 120880496 121598544 122346576 123117536 
997.982 123901864 124688976 125470888 126244368 127009736 127768664 
1000.874 128520816 129260752 129979816 130668848 131321296 131937208 
1003.767 132522512 133087528 133643504 134201112 134771296 135367088 
1006.660 136005760 136710864 137506832 138417168 139458304 140636496 
1009.552 141948400 143383568 144928928 146568704 148284448 150054288 
1012.445 151846608 153623440 155346848 156982608 158511776 159933200 
1015.338 161262144 162522464 163737200 164923104 166086912 167228768 
1018.231 168348784 169452368 170554048 171677712 172852640 174113600 
1021.123 175499984 177051520 178812160 180824704 183122992 185728176 
1024.016 188641472 191844864 195302944 198971968 202808448 206768016 
1026.909 210806928 214874576 218901984 222804896 226483664 229827680 
1029.802 232735344 235113088 236876464 237954928 238281968 237800272 
1032.695 236474560 234298720 231308608 227578416 223221008 218371184 
1035.588 213167872 207761184 202299200 196924768 191789264 187033072 
1038.481 182780048 179139824 176188352 173970784 172501632 171761600 
1041.374 171694976 172199136 173129536 174282400 175399728 176212672 
1044.267 176445104 175869568 174356544 171881088 168535968 164497152 
1047.160 160007808 155324576 150676176 146263952 142228288 138651008 
1050.053 135565712 132961824 130798952 129016608 127550960 126340968 
1052.947 125332864 124486712 123770016 123153704 122610416 122109096 
1055.840 121616296 121101328 120536320 119899728 119177776 118360984 
1058.733 117444224 116427232 115316336 114127088 112884568 111626056 
1061.626 110392976 109227032 108167704 107245040 106480424 105887304 
1064.519 105469712 105222496 105127352 105152800 105249768 105354360 
1067.412 105399976 105320152 105062392 104597824 103920888 103048872 
1070.305 102013952 100859224 99628912 98362552 97094696 95849904 94642000 
1073.680 93475696 92347560 91249656 90173688 89115880 88079592 87076264 
1077.055 86122352 85237288 84439216 83740968 83150432 82669344 82294424 
1080.431 82017192 81823728 81696256 81611440 81544120 81473040 81382752 
1083.806 81269520 81141640 81019400 80928976 80897792 80952488 81113928 
1087.181 81397864 81816448 82377296 83084224 83936480 84927824 86047128 
1090.556 87280224 88613848 90037344 91542792 93123112 94764512 96441256 
1093.932 98113784 99725032 101210576 102511464 103581336 104403312 104993480 
1097.307 105404960 105716432 106021104 106412304 106955192 107673352 
1100.200 108533064 109446744 110275544 110851216 111020656 110660512 
1103.093 109711384 108187720 106174032 103806416 101238856 98634544 96133632 
1106.468 93838936 91821272 90112320 88713008 87600160 86736120 86075688 
1109.844 85568800 85170168 84838792 84537632 84236272 83907424 83525808 
1113.219 83071792 82530288 81894504 81166888 80358832 79488648 78576296 
1116.594 77642992 76707024 75782928 74883152 74017424 73192464 72412880 
1119.969 71678888 70987256 70331120 69702592 69094384 68501344 67920856 
1123.344 67350704 66786736 66220880 65640308 65028376 64370184 63654868 
1126.720 62881172 62057624 61204208 60347356 59515108 58734860 58026860 
1130.095 57402072 56861672 56397740 55995172 55633952 55293768 54957232 
1133.470 54612092 54254348 53888044 53524676 53179288 52869012 52609856 
1136.845 52413132 52285856 52229656 52241160 52312392 52430964 52582516 
1140.221 52749908 52916428 53068260 53194416 53288880 53349720 53377404 
1143.596 53374032 53342112 53284720 53205500 53110048 53005928 52901532 
1146.971 52805548 52725592 52667456 52635328 52632336 52661584 52726376 
1150.346 52830128 52975044 53161312 53386696 53646916 53936552 54250520 
1153.722 54585156 54937868 55306448 55688680 56080784 56478412 56876292 
1157.097 57269468 57653392 58023380 58373820 58698028 58987940 59235020 
1160.472 59431856 59572872 59654668 59675232 59632468 59523088 59342772 
1163.847 59086484 58750376 58332964 57836456 57265276 56626472 55928800 
1167.223 55181412 54394596 53580528 52752116 51923152 51107436 50316912 
1170.598 49560988 48846900 48179260 47561996 46998992 46494540 46053296 
1173.973 45679596 45376324 45145272 44987476 44904024 44897776 44973732 
1177.348 45138472 45399976 45766104 46243472 46838676 47557596 48407184 
1180.724 49396452 50534572 51830968 53293936 54928884 56737884 58719080 
1184.099 60865388 63159748 65570020 68047448 70516680 72879480 75026600 
1187.474 76836320 78197232 79023248 79256504 78880864 77920544 76439376 
1190.849 74528104 72293736 69853128 67310072 64754368 62259148 59873980 
1194.225 57633564 55560404 53666712 51959488 50440632 49108568 47956744 
1197.600 46973960 46145224 45451220 44870220 44380892 43961148 43591004 
1200.975 43253240 42932156 42616064 42297244 41972600 41643820 41316384 
1204.350 40997824 40695292 40413584 40154304 39915920 39694872 39487440 
1207.726 39291204 39105348 38930740 38768916 38622436 38494360 38388796 
1211.101 38311708 38270672 38273852 38329620 38444072 38620624 38860000 
1214.476 39160644 39520172 39935424 40402824 40917356 41471068 42054252 
1217.851 42654480 43259240 43858504 44445268 45016620 45573304 46118616 
1221.227 46657940 47197636 47745772 48311964 48905564 49536364 50211340 
1224.602 50933264 51700020 52504248 53334508 54175440 55010260 55821592 
1227.977 56591972 57307992 57962260 58556920 59105236 59632732 60175528 
1231.352 60771932 61463004 62285192 63266644 64430328 65793076 67367416 
1234.728 69163888 71189840 73449096 75939968 78656032 81585448 84710600 
1238.103 88010360 91457024 95013384 98635416 102270544 105861344 109357568 
1241.478 112718176 115917296 118944208 121797656 124478504 126981584 
1244.371 129290104 131370976 133177536 134644128 135693088 136243472 
1247.264 136210928 135526336 134145784 132054480 129270616 125839144 
1250.157 121825736 117303728 112353704 107064776 101527720 95843296 90119904 
1253.532 84458456 78958392 73707520 68771640 64202516 60031688 56270616 
1256.908 52915120 49946852 47337652 45051576 43049692 41293792 39744976 
1260.283 38369000 37137092 36024576 35014408 34094428 33256256 32494322 
1263.658 31803596 31178646 30614500 30105984 29648470 29238464 28872650 
1267.033 28547124 28257948 28000378 27770584 27566472 27388428 27238962 
1270.409 27122134 27042292 27002270 27004420 27050366 27142626 27285744 
1273.784 27486900 27753982 28094926 28514500 29011664 29577490 30192182 
1277.159 30827270 31442952 31991698 32426876 32704588 32794766 32686866 
1280.534 32391780 31940092 31373852 30742372 30090536 29452726 28853670 
1283.910 28305830 27814104 27378830 26998286 26670218 26391686 26159504 
1287.285 25970322 25821448 25712278 25643942 25618916 25639058 25703910 
1290.660 25810020 25951292 26120550 26311626 26520998 26746924 26988554 
1294.035 27244500 27511646 27786056 28065092 28349262 28643350 28956476 
1297.411 29300846 29688486 30130560 30637040 31215780 31873192 32613032 
1300.786 33432890 34320132 35248288 36179004 37060656 37837592 38460836 
1304.161 38891092 39108796 39114560 38929436 38589660 38140092 37632232 
1307.536 37114032 36626188 36201152 35857456 35601640 35429436 35329796 
1310.912 35288032 35289904 35324476 35383604 35460680 35549892 35644296 
1314.287 35736272 35818812 35886716 35937176 35969928 35985516 35984616 
1317.662 35966620 35930984 35878044 35809924 35731600 35649152 35568052 
1321.037 35491564 35419552 35348772 35274772 35194028 35105212 35009596 
1324.413 34910804 34814260 34726600 34655504 34611368 34606524 34653892 
1327.788 34766016 34951204 35211348 35541908 35933144 36373408 36851084 
1331.163 37357776 37886144 38428940 38977168 39518500 40037912 40520948 
1334.538 40954784 41330524 41644076 41894724 42084512 42216680 42296296 
1337.914 42330412 42328108 42301448 42263316 42225264 42196272 42181372 
1341.289 42183088 42203972 42248964 42326868 42451328 42637412 42901108 
1344.664 43257048 43716560 44287836 44974720 45774940 46675792 47649104 
1348.039 48652060 49622532 50486520 51171736 51611124 51758020 51593700 
1351.415 51128348 50401040 49471304 48417224 47319364 46252500 45283160 
1354.790 44457892 43803524 43327476 43020828 42863324 42828692 42892292 
1358.165 43031328 43226700 43462956 43726820 44007784 44301008 44608524 
1361.540 44941392 45316296 45752704 46263336 46847200 47485960 48144276 
1364.916 48775120 49320056 49719824 49917672 49863704 49528452 48908864 
1368.291 48034532 46961332 45766140 44531900 43327148 42204300 41192248 
1371.666 40298396 39516868 38837356 38252832 37763416 37375332 37095120 
1375.041 36923048 36849824 36858912 36930516 37050156 37211988 37421156 
1378.417 37692360 38048720 38521476 39146792 39967536 41028740 42364636 
1381.792 43985016 45853664 47883004 49923212 51778180 53245652 54119776 
1385.167 54236628 53506724 51939212 49665248 46915188 43991436 41174288 
1388.542 38664772 36570888 34905312 33623024 32650500 31913734 31346924 
1391.917 30896036 30522566 30198290 29906130 29639992 29402520 29202104 
1395.293 29046840 28940292 28878600 28852892 28852146 28867834 28897402 
1398.668 28945568 29023212 29143068 29316052 29546668 29832376 30164582 
1402.043 30531346 30919554 31316228 31711732 32099068 32474004 32833646 
1405.418 33175096 33495054 33791108 34063568 34317804 34563360 34813324 
1408.794 35080644 35374544 35698968 36052472 36430552 36829012 37246644 
1412.169 37685676 38150620 38645396 39171632 39728200 40313556 40927804 
1415.544 41575448 42266200 43014060 43835120 44742896 45743172 46826200 
1418.919 47962332 49102408 50186568 51158392 51970732 52593960 53018580 
1422.295 53255952 53343688 53343836 53341212 53419332 53640768 54034664 
1425.670 54593232 55286580 56079576 56947192 57876652 58864192 59909692 
1429.045 61012208 62171892 63394220 64696984 66107980 67655008 69356408 
1432.420 71210024 73195440 75277536 77423984 79617232 81853296 84142032 
1435.796 86493600 88906016 91353064 93794560 96193832 98524360 100770872 
1439.171 102915552 104930240 106762040 108333712 109560192 110346536 
1442.064 110605920 110273624 109307480 107702184 105494968 102775272 
1444.957 99675760 96351240 92976112 89708280 86676608 83978536 81661664 
1448.332 79721800 78102984 76720376 75479416 74302728 73154776 72047992 
1451.708 71039616 70203624 69608256 69282992 69206240 69304528 69465152 
1455.083 69564160 69477752 69130784 68534600 67805840 67122160 66645408 
1458.458 66478908 66653596 67159408 67969480 69049248 70355272 71825544 
1461.833 73384352 74930472 76337608 77477928 78227624 78505824 78303408 
1465.208 77690688 76795344 75752744 74685600 73681064 72790248 72043816 
1468.584 71448728 70990064 70626960 70294536 69912360 69397304 68698744 
1471.959 67823928 66854560 65917736 65143844 64623156 64387052 64427292 
1475.334 64717136 65229476 65939836 66822520 67845352 68962048 70114952 
1478.709 71244768 72290528 73203368 73954560 74537352 74971432 75297392 
1482.085 75572976 75859896 76220736 76722200 77429368 78406904 79711608 
1485.460 81375320 83388120 85679008 88120024 90514304 92611752 94151232 
1488.835 94867680 94552472 93109152 90581192 87158024 83114760 78752824 
1492.210 74315264 69953656 65752976 61739108 57919476 54322608 51004508 
1495.586 48055144 45580368 43665228 42348784 41615740 41415700 41682188 
1498.961 42350900 43368812 44685712 46249624 48006144 49889868 51829176 
1502.336 53753476 55575204 57193076 58483936 59275540 59357928 58508692 
1505.711 56567856 53555972 49744980 45593432 41535888 37834156 34554172 
1509.087 31642194 29014426 26607896 24393020 22372982 20564580 18977850 
1512.462 17610156 16442897 15449236 14601672 13876434 13254159 12715708 
1515.837 12242810 11820508 11441003 11107001 10828014 10612694 10460302 
1519.212 10356588 10274205 10183798 10065162 9921776 9781217 9682103 9650900 
1523.070 9688405 9773456 9874895 9967746 10039696 10096632 10156290 10239092 
1526.927 10355536 10501951 10664476 10828795 10988316 11146604 11313587 
1530.302 11498667 11703569 11920145 12133150 12327238 12497507 12655015 
1533.678 12824424 13029678 13282923 13578671 13899595 14224282 14535679 
1537.053 14824979 15089257 15329667 15546309 15735056 15888210 16000750 
1540.428 16079722 16142992 16211569 16299076 16403943 16510971 16598471 
1543.803 16650282 16661817 16645119 16622121 16616199 16640436 16693527 
1547.179 16762363 16830934 16888872 16936654 16986576 17056114 17160442 
1550.554 17303618 17478020 17669200 17864328 18058368 18255434 18466418 
1553.929 18702618 18969612 19263338 19572200 19880172 20172570 20434600 
1557.304 20651614 20810788 20906320 20951070 20976662 21026218 21129380 
1560.680 21291024 21497536 21725394 21949502 22146320 22300042 22405498 
1564.055 22469732 22510000 22547342 22598018 22665912 22742266 22809204 
1567.430 22848666 22847338 22802986 22725298 22634390 22553344 22499706 
1570.805 22482642 22502218 22553378 22627514 22713986 22798726 22862948 
1574.181 22885896 22849504 22747328 22592188 22416384 22261050 22153922 
1577.556 22099844 22081576 22072128 22044448 21978326 21864054 21700628 
1580.931 21492872 21247250 20969290 20662874 20331254 19980496 19620312 
1584.306 19262264 18917556 18592594 18288090 18000000 17723486 17456704 
1587.682 17202116 16965180 16750585 16559882 16390009 16235268 16091652 
1591.057 15959153 15842812 15750347 15687099 15653778 15645361 15653845 
1594.432 15672224 15698195 15734680 15787968 15863536 15963141 16084569 
1597.807 16224124 16380580 16558263 16766496 17017590 17323236 17690562 
1601.183 18121374 18613622 19163456 19765862 20413068 21091674 21778694 
1604.558 22440178 23036630 23524270 23864006 24029230 24008396 23808666 
1607.933 23452814 22976364 22418406 21814960 21199792 20600504 20040104 
1611.308 19537644 19104106 18740982 18439348 18182422 17948682 17715410 
1614.684 17464156 17183226 16872028 16542947 16220683 15935745 15713103 
1618.059 15566983 15497958 15495864 15543596 15621077 15709668 15793845 
1621.434 15866835 15932240 16004909 16104134 16246308 16438218 16674625 
1624.809 16943544 17231764 17530940 17837224 18149186 18464864 18778208 
1628.185 19080216 19361996 19618960 19853290 20072306 20285042 20496910 
1631.560 20706764 20905276 21077100 21204072 21267156 21251672 21151506 
1634.935 20974264 20741516 20485552 20238800 20021264 19838030 19680948 
1638.310 19534870 19382296 19207368 19000316 18759768 18494044 18217492 
1641.686 17946988 17694322 17462188 17243176 17021378 16777518 16492523 
1645.061 16155371 15767181 15345286 14920129 14527936 14200317 13955056 
1648.436 13793928 13706889 13676113 13678302 13684012 13658025 13556759 
1651.811 13337417 12980207 12516809 12035304 11632331 11361305 11214124 
1655.187 11150173 11124440 11103908 11071174 11020533 10955149 10881860 
1658.562 10806816 10732159 10655783 10572087 10475202 10360864 10228100 
1661.937 10079846 9923335 9768576 9626034 9505213 9411851 9347285 9307541 
1665.794 9284556 9267123 9241602 9195066 9118452 9008936 8872053 8720338 
1669.652 8570333 8436427 8327588 8245859 8187645 8144968 8106685 8060438 
1673.509 7992765 7892878 7757696 7595985 7428739 7279718 7167430 7096225 
1677.367 7058337 7038266 7020788 6996510 6964186 6930585 6905537 6896010 
1681.224 6900185 6905840 6891196 6832861 6714395 6539449 6336566 6149842 
1685.082 6015402 5944050 5923560 5931319 5947275 5956815 5952985 5934913 
1688.939 5905322 5868646 5830025 5795403 5771025 5762497 5772906 5800507 
1692.796 5837614 5870191 5881576 5857126 5791172 5694879 5595284 5525142 
1696.654 5504034 5530947 5585651 5639120 5659630 5622471 5519806 5369459 
1700.511 5211854 5087930 5020383 5005400 5023902 5052831 5073447 5073950 
1704.369 5049345 5002283 4941318 4878419 4823670 4783299 4758643 4747320 
1708.226 4744909 4747354 4751574 4756834 4763534 4773349 4787822 4806985 
1712.083 4829734 4853623 4876140 4895642 4911693 4924864 4934917 4940246 
1715.941 4937062 4921479 4892694 4855902 4823100 4809498 4826115 4877011 
1719.798 4958243 5061480 5176879 5296804 5418037 5540981 5669164 5806787 
1723.656 5956848 6119529 6292491 6471407 6651777 6829293 6999271 7156550 
1727.513 7295150 7409628 7496425 7555996 7593726 7617734 7635809 7651793 
1731.371 7662348 7657054 7621005 7542645 7421964 7279078 7149106 7069619 
1735.228 7061132 7121519 7233290 7374173 7525316 7672162 7806103 7923382 
1739.085 8023107 8106110 8173262 8224753 8260042 8278312 8279562 8264601 
1742.943 8235525 8194870 8144327 8084607 8015108 7934180 7840109 7731656 
1746.800 7608495 7471075 7320018 7155304 6976206 6780826 6568008 6338987 
1750.658 6098863 5857261 5626869 5418607 5239420 5089572 4963237 4850708 
1754.515 4740319 4622490 4491335 4348138 4200271 4060012 3938221 3840332 
1758.373 3764222 3701126 3639675 3568311 3479957 3373556 3254962 3134465 
1762.230 3023711 2931832 2862519 2814726 2783679 2763171 2746198 2726292 
1766.087 2698485 2660312 2613175 2561844 2514084 2476894 2453368 2440673 
1769.945 2430677 2412884 2377534 2320601 2247089 2169859 2103797 2059883 
1773.802 2040275 2039176 2047566 2056754 2062780 2065376 2067274 2071336 
1777.660 2078061 2085052 2088149 2083488 2070570 2052492 2035148 2024529 
1781.517 2023231 2029822 2039309 2045868 2045368 2036813 2022765 2008018 
1785.375 1996767 1991408 1992207 1997899 2007485 2020368 2036280 2054590 
1789.232 2072401 2084986 2086218 2071103 2038078 1991075 1938552 1890728 
1793.089 1856087 1837486 1832927 1837353 1845638 1854290 1861910 1868565 
1796.947 1874622 1879514 1882009 1880412 1873790 1863008 1849931 1838251 
1800.804 1830931 1829800 1835123 1845871 1860745 1878316 1897917 1918650 
1804.662 1939684 1959787 1978227 1994437 2008617 2021433 2033450 2044270 
1808.519 2052492 2055955 2052825 2042838 2027558 2010381 1995469 1985716 
1812.376 1982088 1983086 1985849 1987314 1986115 1982221 1977761 1975664 
1816.234 1978526 1987780 2003791 2026027 2053791 2086218 2122942 2163333 
1820.091 2206358 2250719 2294586 2336291 2374236 2406587 2432043 2449769 
1823.949 2459866 2464731 2468929 2478460 2498688 2532181 2577576 2629409 
1827.806 2679281 2718657 2742230 2749799 2747132 2743797 2749766 2770440 
1831.664 2806055 2851879 2901577 2950146 2995184 3037324 3079769 3125421 
1835.521 3175984 3231494 3290751 3352753 3418004 3488842 3568545 3660057 
1839.378 3764456 3880147 4003861 4130688 4255811 4374913 4484941 4584817 
1843.236 4675774 4761524 4847391 4938905 5038685 5145126 5252466 5352183 
1847.093 5434342 5490544 5516417 5511584 5479840 5427196 5359395 5280101 
1850.951 5190057 5088600 4975302 4851512 4720992 4589037 4459766 4336023 
1854.808 4217367 4102088 3988612 3876637 3768200 3666540 3574124 3491714 
1858.666 3417169 3347410 3279433 3212200 3146580 3085241 3030284 2982039 
1862.523 2939037 2897908 2856782 2815093 2774775 2738563 2708688 2684983 
1866.380 2664813 2644010 2619375 2590209 2559478 2532848 2515618 2510552 
1870.238 2516284 2528482 2541913 2552945 2560111 2563344 2563844 2561844 
1874.095 2556644 2546679 2530981 2509519 2483792 2455834 2427245 2397691 
1877.953 2365541 2328429 2285692 2238463 2190306 2146317 2110556 2084620 
1881.810 2067108 2054956 2044469 2033683 2022865 2013344 2006953 2003624 
1885.667 2001694 1997932 1989544 1975198 1955793 1934059 1912560 1893890 
1889.525 1878748 1867367 1859780 1856819 1860246 1871494 1891028 1916786 
1893.382 1944943 1971470 1993072 2008850 2020035 2029156 2037911 2046400 
1897.240 2053158 2055788 2053192 2045901 2036347 2027625 2022132 2020368 
1901.097 2021000 2022032 2021833 2020534 2019769 2020834 2024396 2029156 
1904.955 2032652 2032285 2026926 2017838 2007885 2000162 1996101 1995236 
1908.812 1995036 1993338 1989444 1984984 1983153 1987547 1999763 2018837 
1912.669 2042039 2066442 2090046 2113020 2136094 2159237 2180316 2195235 
1916.527 2199031 2188874 2166696 2139058 2115484 2103031 2104430 2115750 
1920.384 2129268 2136993 2133897 2121011 2104163 2091578 2089614 2100201 
1924.242 2120278 2144718 2168361 2189407 2208955 2229770 2253450 2278797 
1928.099 2302580 2320668 2331194 2335225 2336658 2340122 2347684 2358245 
1931.957 2367206 2369905 2364308 2352182 2339423 2332194 2334559 2346185 
1935.814 2362542 2377234 2386496 2390195 2392627 2399257 2413584 2435008 
1939.671 2458333 2476327 2483559 2478693 2465631 2451835 2444238 2447603 
1943.529 2461799 2484558 2512385 2543280 2577376 2615109 2655912 2697018 
1947.386 2734461 2764805 2787314 2804855 2821829 2842240 2866354 2890703 
1951.244 2908482 2913985 2904812 2884465 2861251 2843774 2837705 2843974 
1955.101 2857382 2871191 2879195 2879229 2872591 2863152 2853947 2845042 
1958.958 2834903 2821863 2806989 2795250 2793116 2806556 2836437 2877494 
1962.816 2920157 2954516 2974166 2978403 2971463 2958820 2944542 2928963 
1966.673 2909582 2883765 2852713 2822163 2800253 2793583 2803354 2824331 
1970.531 2846676 2861118 2862519 2853680 2842841 2839339 2849711 2875193 
1974.388 2912918 2958519 3011666 3075230 3154390 3249688 3355157 3456110 
1978.246 3534203 3575126 3573990 3537677 3481026 3421944 3372955 3338429 
1982.103 3314555 3293555 3267949 3236034 3200617 3168174 3144110 3130694 
1985.960 3126222 3126823 3129526 3133297 3139438 3148483 3159463 3167807 
1989.818 3168541 3157861 3136768 3111805 3092716 3088812 3103629 3134532 
1993.675 3172480 3207928 3234632 3251157 3261739 3272255 3286477 3304306 
1997.533 3321033 3330816 3329647 3317928 3299965 3282104 3268950 3261706 
2001.390 3257366 3250689 3238204 3219844 3198648 3180557 3170344 3170177 
2005.248 3178822 3193842 3213502 3237870 3268449 3307110 3352619 3401673 
2009.105 3448896 3489343 3521877 3548167 3572153 3596842 3623069 3648162 
2012.962 3667709 3678803 3682379 3683749 3690900 3710917 3747044 3796878 
2016.820 3853804 3909467 3958584 3999079 4032454 4061584 4089044 4114665 
2020.677 4137612 4157951 4176986 4198732 4226802 4263340 4306874 4352054 
2024.535 4392853 4424618 4446677 4462444 4477341 4495520 4518085 4542125 
2028.392 4563186 4578556 4589137 4599350 4616630 4645799 4688468 4741291 
2032.250 4799044 4857443 4914676 4973459 5037680 5110526 5191264 5275070 
2036.107 5354565 5422432 5474304 5510041 5531686 5542257 5544874 5540914 
2039.964 5531216 5517960 5504034 5494437 5493027 5501517 5518464 5539169 
2043.822 5558332 5571488 5577731 5578771 5578805 5582698 5594244 5615859 
2047.679 5648351 5690783 5741512 5796545 5850544 5896119 5926281 5936694 
2051.537 5927759 5904952 5877546 5856488 5849872 5860082 5884061 5914088 
2055.394 5941967 5961954 5973644 5980195 5986947 5998067 6014966 6035393 
2059.251 6056022 6073998 6088749 6101047 6113413 6126553 6139188 6148262 
2063.109 6150480 6144196 6130585 6113313 6096007 6081626 6070067 6058710 
2066.966 6044632 6025414 6001763 5976198 5952448 5933066 5918757 5908109 
2070.824 5898705 5889099 5879326 5871433 5867772 5869552 5876572 5886983 
2074.681 5898503 5910562 5924064 5941128 5963668 5991617 6022592 6052259 
2078.539 6076283 6091941 6099838 6102291 6103669 6107264 6114959 6126587 
2082.396 6140701 6156530 6174240 6194843 6218909 6246135 6273565 6297836 
2086.253 6315049 6322983 6322210 6315352 6306106 6297164 6289735 6282608 
2090.111 6273431 6260119 6241227 6217329 6190071 6162175 6136231 6114724 
2093.968 6100073 6094226 6099032 6114690 6139659 6170040 6201195 6228085 
2097.826 6248253 6262270 6273431 6286608 6305569 6332095 6365179 6402435 
2101.683 6440838 6479513 6519066 6561280 6607536 6657497 6708339 6756494 
2105.541 6798361 6833096 6861842 6887965 6915637 6947419 6984153 7025200 
2109.398 7069518 7116770 7167531 7222509 7281672 7342697 7401270 7452165 
2113.255 7490762 7515506 7527879 7531688 7532160 7533408 7538229 7547028 
2117.113 7559671 7575855 7596322 7622050 7654086 7692026 7733883 7777092 
2120.970 7819226 7858969 7896893 7934889 7974709 8017031 8061417 8106719 
2124.828 8151316 8195647 8240557 8288680 8341605 8399772 8461663 8524342 
2128.685 8585135 8642456 8696674 8749987 8805234 8865053 8931205 9005248 
2132.542 9088067 9181022 9284421 9397089 9515272 9632064 9739197 9829612 
2136.400 9899572 9950084 9985682 10013926 10041018 10070554 10102024 
2139.775 10133226 10160937 10183086 10199911 10211580 10218364 10217856 
2143.150 10206695 10180203 10136449 10076420 10004567 9926624 9848525 
2146.526 9773219 9700197 9627457 9552460 9474801 9396004 9318509 9244649 
2150.383 9173170 9100519 9021689 8932658 8831946 8721421 8604635 8484335 
2154.240 8362074 8236606 8108879 7983383 7872228 7792339 7764476 7802359 
2158.098 7907388 8064927 8246838 8421460 8560128 8647357 8680009 8665374 
2161.955 8614302 8538804 8448420 8350691 8251600 8157190 8072287 8000697 
2165.813 7942414 7893789 7849253 7801987 7747408 7683258 7610248 7530137 
2169.670 7445188 7357019 7266813 7176222 7087434 7004255 6929844 6866387 
2173.528 6813271 6767701 6726005 6684919 6643870 6602960 6563904 6525759 
2177.385 6485802 6439593 6383033 6315554 6242236 6172594 6117312 6086128 
2181.242 6083239 6105147 6143187 6185701 6223110 6248253 6259547 6257564 
2185.100 6243782 6219547 6184827 6139928 6086666 6028304 5969378 5914625 
2188.957 5868175 5832376 5808264 5795840 5795672 5807022 5829219 5859141 
2192.815 5892223 5922519 5945158 5957520 5960107 5957050 5953321 5953321 
2196.672 5958494 5968102 5978415 5986108 5988829 5985873 5978280 5967396 
2200.530 5953657 5937903 5920033 5901090 5882852 5868343 5859914 5858570 
2204.387 5863474 5871668 5880132 5886311 5889435 5890409 5890376 5890174 
2208.244 5888998 5885976 5880736 5874288 5869720 5871164 5882080 5903474 
2212.102 5932831 5965213 5994976 6018090 6032940 6041138 6045707 6050176 
2215.959 6056526 6064691 6073796 6082264 6090093 6097687 6106122 6115833 
2219.817 6126519 6136433 6144364 6149539 6151858 6152665 6153269 6153673 
2223.674 6153336 6150615 6144834 6135626 6124133 6111599 6099233 6087271 
2227.531 6074603 6061129 6047051 6035124 6029076 6032671 6047757 6072789 
2231.389 6103433 6133677 6158411 6175652 6186340 6194541 6203582 6215884 
2235.246 6231177 6247849 6263178 6276826 6289701 6304863 6324362 6348435 
2239.104 6374661 6399240 6418138 6430144 6437037 6443326 6453718 6471508 
2242.961 6496060 6523909 6549809 6569320 6581026 6586375 6589504 6594886 
2246.819 6605719 6622910 6645149 6669878 6694475 6716650 6735293 6749831 
2250.676 6759657 6765345 6767129 6766893 6767297 6770831 6779446 6792909 
2254.533 6809300 6825051 6836462 6840905 6837775 6827913 6813271 6795635 
2258.391 6775845 6754138 6730211 6704267 6677213 6650498 6625669 6603465 
2262.248 6583650 6565721 6548901 6533529 6521185 6514122 6514256 6522295 
2266.106 6536994 6555763 6575207 6592262 6605214 6613187 6616451 6615542 
2269.963 6611135 6603801 6594483 6584390 6574803 6566830 6560944 6556302 
2273.821 6551962 6545874 6537633 6527340 6516577 6507328 6501206 6498818 
2277.678 6499693 6503258 6508942 6517115 6528450 6543755 6562289 6582204 
2281.535 6600269 6612985 6617897 6614163 6602993 6586745 6568008 6548431 
2285.393 6528753 6508740 6488492 6468381 6449514 6433305 6419954 6408723 
2289.250 6397694 6384412 6367532 6347157 6325135 6304526 6288760 6279246 
2293.108 6275918 6277095 6280255 6283112 6284557 6284894 6284557 6283986 
2296.965 6283011 6280725 6275918 6268018 6257228 6244824 6232286 6221497 
2300.823 6213127 6207918 6205430 6205632 6208455 6213497 6220892 6229934 
2304.680 6239446 6248589 6256354 6262236 6266539 6269867 6273061 6276086 
2308.537 6278809 6280725 6281835 6282305 6283011 6285566 6290609 6298878 
2312.395 6309838 6322681 6336365 6349880 6362354 6372845 6380276 6383403 
2316.252 6381117 6373147 6360505 6344938 6329170 6315789 6306039 6299820 
2320.110 6295820 6291920 6286474 6278406 6267178 6252387 6233295 6207951 
2323.967 6174745 6132568 6082029 6026120 5968807 5914861 5868209 5830595 
2327.824 5801481 5779051 5761053 5746381 5735167 5728888 5728821 5735133 
2331.682 5746481 5760113 5773208 5784456 5794295 5804335 5817499 5835431 
2335.539 5858604 5885573 5914156 5942169 5968370 5992558 6015201 6036972 
2339.397 6058307 6078702 6097922 6115564 6131930 6147288 6162007 6175316 
2343.254 6186273 6194238 6199784 6205934 6218068 6242370 6284524 6347426 
2347.112 6430278 6528585 6635728 6743841 6845180 6933245 7003110 7051837 
2350.969 7078510 7084437 7073492 7050052 7019576 6986779 6954792 6925300 
2354.826 6898569 6874466 6852720 6833466 6817512 6805564 6797688 6793548 
2358.684 6792101 6792000 6792370 6792505 6792134 6791158 6789106 6785841 
2362.541 6781028 6775778 6772177 6773489 6783754 6805395 6839862 6885911 
2366.399 6940349 6999002 7058337 7115591 7169856 7221094 7269913 7316446 
2370.256 7360996 7403326 7443704 7482975 7522114 7562706 7605932 7652366 
2374.114 7701942 7753851 7807553 7862579 7918017 7973495 8028203 8081434 
2377.971 8132308 8180622 8226881 8271930 8316915 8362952 8410346 8458691 
2381.828 8506939 8554281 8599836 8643673 8686060 8727877 8769461 8811320 
2385.686 8853285 8895455 8938104 8981569 9026391 9072707 9120177 9168094 
2389.543 9215373 9261674 9306999 9352329 9398646 9446762 9496882 9547786 
2393.401 9598053 9646496 9692370 9736587 9780980 9827782 9878895 9935268 
2397.258 9996125 10059940 10124645 10188174 10249100 10306539 10359982 
2400.633 10409324 10454769 10496723 10535829 10573342 10610554 10648686 
2404.009 10688825 10731582 10777264 10826179 10878632 10934830 10994908 
2407.384 11058259 11124100 11191242 11258497 11325151 11391474 11458318 
2410.759 11527077 11598673 11672968 11749285 11825616 11900223 11971471 
2414.134 12038608 12101838 12161874 12219601 12276177 12332249 12388396 
2417.510 12444960 12501803 12558587 12614524 12668661 12720143 12768493 
2420.885 12814424 12859405 12905551 12955150 13010148 13071505 13139735 
2424.260 13214602 13295906 13383579 13477526 13577338 13682201 13790747 
2427.635 13901579 14013740 14127299 14243353 14363581 14489531 14621684 
2431.010 14759226 14900171 15042604 15185151 15327745 15471828 15619909 
2434.386 15773470 15933614 16099390 16268907 16439732 16609693 16777068 
2437.761 16940960 17100780 17256276 17407244 17553710 17696394 17836294 
2441.136 17974582 18112394 18250010 18387114 18522154 18653604 18780354 
2444.511 18901914 19018558 19130732 19238676 19341728 19439120 19529810 
2447.887 19613416 19690376 19761804 19828908 19892416 19952498 20008286 
2451.262 20059536 20106280 20150114 20193396 20239146 20290214 20348478 
2454.637 20415152 20490484 20575004 20669824 20776238 20895924 21029974 
2458.012 21178118 21338912 21510210 21689762 21876076 22068746 22268094 
2461.388 22475210 22690732 22914920 23147088 23386758 23633032 23885430 
2464.763 24143968 24408756 24680406 24959280 25246408 25542830 25849862 
2468.138 26168936 26500886 26845782 27202908 27570636 27947690 28332602 
2471.513 28724582 29122870 29526666 29934634 30344372 30753182 31157892 
2474.889 31555780 31944084 32320816 32683690 33029954 33356998 33661476 
2478.264 33940660 34192316 34415168 34608500 34771648 34904128 35005396 
2481.639 35075432 35115168 35126912 35113944 35080896 35032332 34971672 
2485.014 34901504 34822804 34735288 34638640 34532828 34417964 34295136 
2488.390 34165036 34027840 33882732 33728148 33561664 33381112 33184398 
2491.765 32970612 32739316 32491074 32226272 31945404 31649000 31336810 
2495.140 31008794 30664634 30304580 29929132 29539574 29137574 28725432 
2498.515 28305512 27880168 27451674 27021522 26590670 26159714 25729048 
2501.891 25299650 24872466 24449766 24033748 23626662 23230586 22847234 
2505.266 22477198 22121286 21779946 21453532 21142426 20847322 20568298 
2508.641 20305388 20057974 19825684 19608076 19404956 19216442 19042792 
2512.016 18884368 18741466 18613968 18502306 18406126 18325140 18258612 
2515.392 18205330 18163904 18133362 18112878 18102272 18102100 18112946 
2518.767 18135092 18168154 18210720 18260964 18316984 18377610 18442356 
2522.142 18511366 18585194 18663394 18744546 18826580 18906586 18981970 
2525.517 19051032 19112936 19167784 19215784 19256686 19289628 19313044 
2528.893 19325030 19324026 19309408 19280968 19239404 19185792 19121142 
2532.268 19046530 18962828 18871426 18773814 18671624 18566486 18460092 
2535.643 18353240 18246692 18141034 18037024 17935282 17836604 17742054 
2539.018 17651842 17565890 17484024 17405382 17329340 17256002 17185398 
2542.394 17118012 17054254 16994676 16938824 16886324 16836376 16787778 
2545.769 16739463 16690118 16638611 16584322 16527079 16467538 16407007 
2549.144 16347412 16290477 16237503 16189385 16145675 16105406 16067343 
2552.519 16030418 15993668 15957195 15921550 15887318 15855322 15826249 
2555.895 15800476 15778279 15759416 15743542 15729731 15716609 15702419 
2559.270 15685689 15664598 15638389 15606582 15570040 15529928 15488104 
2562.645 15446661 15407351 15371511 15340033 15313295 15291088 15273070 
2566.020 15258827 15247708 15239231 15233020 15228490 15225299 15222897 
2569.396 15221112 15220014 15219945 15221868 15226637 15235251 15247880 
2572.771 15264147 15283194 15303890 15325102 15346212 15367117 15388194 
2576.146 15410028 15433065 15457717 15483846 15511042 15538960 15567464 
2579.521 15596348 15625371 15654430 15683629 15713241 15743887 15776664 
2582.896 15812984 15853809 15899690 15950354 16004669 16060811 16117580 
2586.272 16174080 16229970 16285969 16343249 16402567 16464680 16529661 
2589.647 16597299 16667325 16739395 16812990 16887288 16960874 17032234 
2593.022 17099538 17161236 17216872 17266724 17311822 17353892 17393966 
2596.397 17433250 17471882 17510104 17547638 17584762 17621578 17658640 
2599.773 17696186 17734564 17773672 17813992 17855868 17900200 17947922 
2603.148 17999482 18054674 18112842 18172402 18232420 18292308 18352826 
2606.523 18415218 18481804 18554624 18635342 18724238 18820766 18923788 
2609.898 19031610 19142576 19255406 19369304 19483856 19598786 19714612 
2613.274 19831856 19951042 20072514 20196034 20320734 20445644 20568888 
2616.649 20689630 20807068 20921410 21032998 21142216 21249234 21353668 
2620.024 21454890 21551990 21644902 21733476 21818200 21899910 21979058 
2623.399 22055708 22129410 22199426 22265234 22326308 22382856 22435084 
2626.775 22483410 22528180 22569888 22609118 22646538 22683124 22719712 
2630.150 22756684 22794188 22831134 22866580 22898748 22926308 22948768 
2633.525 22965782 22978008 22986322 22991702 22994706 22995860 22995650 
2636.900 22994322 22992192 22989466 22986532 22983806 22981572 22980418 
2640.276 22981152 22984610 22991878 23003824 23021014 23043760 23071712 
2643.651 23104210 23140694 23180568 23223386 23268932 23316828 23366686 
2647.026 23418194 23471142 23525600 23581358 23638700 23697586 23757742 
2650.401 23818712 23879584 23939942 23998904 24056546 24112792 24168244 
2653.777 24223490 24278742 24334702 24391478 24449380 24508590 24569138 
2657.152 24631134 24694260 24758446 24822996 24887658 24952506 25017468 
2660.527 25083004 25149390 25216910 25285602 25354864 25424066 25492896 
2663.902 25560506 25627036 25692346 25756998 25821448 25886364 25952066 
2667.278 26019008 26087368 26157040 26227816 26299306 26371160 26442920 
2670.653 26514656 26586582 26658978 26732230 26806764 26882862 26960842 
2674.028 27041058 27123932 27210104 27300314 27395346 27495726 27601214 
2677.403 27711742 27826432 27944508 28065022 28187726 28312020 28438012 
2680.779 28565702 28695130 28826262 28958672 29092010 29225530 29358664 
2684.154 29490918 29621864 29751714 29880928 30010500 30141462 30274842 
2687.529 30411320 30551040 30693544 30838406 30985024 31133116 31282752 
2690.904 31434260 31588134 31744666 31904072 32066070 32230660 32398134 
2694.280 32568388 32742030 32919568 33100962 33286016 33474442 33665416 
2697.655 33858520 34053280 34249572 34447592 34647828 34850304 35055140 
2701.030 35262300 35471216 35681380 35892296 36103456 36314576 36525440 
2704.405 36736148 36947108 37158748 37371500 37585516 37800936 38017548 
2707.781 38235316 38454244 38674804 38897980 39124892 39356312 39593340 
2711.156 39836016 40084460 40338496 40597740 40862240 41131852 41406512 
2714.531 41685760 41968332 42252760 42536756 42818420 43095836 43367092 
2717.906 43631412 43887972 44136620 44377736 44612452 44842300 45069544 
2721.281 45296804 45526904 45762388 46005368 46257364 46519576 46792320 
2724.657 47075904 47370056 47673804 47986272 48306188 48632048 48962748 
2728.032 49297340 49634976 49974920 50316016 50656940 50995936 51331384 
2731.407 51661764 51986192 52303948 52614644 52917440 53211232 53493796 
2734.782 53763112 54016732 54252924 54470988 54670976 54853648 55020676 
2738.158 55174224 55316272 55449636 55577388 55702392 55827732 55955936 
2741.533 56089416 56230032 56379292 56538980 56710660 56896044 57096432 
2744.908 57312304 57543640 57788948 58046104 58312540 58585056 58860092 
2748.283 59133824 59401764 59658204 59898168 60116044 60307568 60469700 
2751.659 60600920 60701124 60770788 60810308 60820028 60799484 60747880 
2755.034 60664432 60548048 60397844 60212672 59991400 59732068 59433376 
2758.409 59094000 58713464 58292224 57832364 57336500 56808652 56253260 
2761.784 55675532 55080592 54474932 53864640 53255952 52655264 52068624 
2765.160 51501544 50959120 50446404 49967596 49526560 49126748 48770008 
2768.535 48457456 48188812 47962292 47775728 47626472 47511832 47429296 
2771.910 47377080 47352692 47353356 47375900 47416104 47469212 47530868 
2775.285 47596600 47662600 47726056 47784384 47834728 47875088 47902760 
2778.661 47915412 47910936 47888256 47847380 47789784 47718476 47637160 
2782.036 47550464 47462928 47378408 47299560 47227964 47163872 47106296 
2785.411 47053752 47003752 46953840 46900940 46842364 46774680 46694648 
2788.786 46599652 46487016 46355124 46203596 46032884 45845304 45643928 
2792.162 45432568 45216232 44999384 44786756 44582564 44390620 44215008 
2795.537 44058796 43925368 43818000 43739792 43693224 43680692 43703332 
2798.912 43762072 43856632 43986520 44150300 44346432 44573204 44828264 
2802.287 45109396 45414064 45739780 46083432 46442360 46813576 47193940 
2805.663 47580516 47969548 48357704 48740792 49114728 49475168 49818624 
2809.038 50141012 50438512 50707584 50944516 51145680 51307896 51428320 
2812.413 51505684 51539408 51530232 51480092 51392288 51270644 51119924 
2815.788 50945820 50754060 50550952 50343328 50137660 49940792 49759320 
2819.164 49599836 49468224 49369572 49307548 49284240 49299864 49353168 
2822.539 49441192 49559984 49704848 49870396 50050540 50239012 50429024 
2825.914 50613680 50786792 50942948 51078668 51191456 51281008 51348168 
2829.289 51394524 51422796 51436116 51438312 51434024 51427908 51424404 
2832.665 51427088 51438164 51458684 51488744 51527920 51576012 51633552 
2836.040 51701476 51781612 51875620 51985256 52112668 52260448 52432464 
2839.415 52634428 52873052 53156516 53493380 53891424 54358468 54901548 
2842.790 55527908 56244892 57060272 57980664 59010792 60149992 61390792 
2846.166 62714384 64089948 65475272 66813596 68041168 69092752 69903520 
2849.541 70423736 70622280 70491776 70049888 69336472 68409960 67332320 
2852.916 66168360 64977080 63803636 62683760 61640116 60685160 59822984 
2856.291 59051104 58362864 57748300 57195868 56694240 56232592 55801772 
2859.667 55395052 55006612 54632196 54268056 53910368 53555900 53201120 
2863.042 52842776 52478632 52107176 51728120 51343284 50956216 50573248 
2866.417 50202264 49852740 49534692 49256660 49025544 48845120 48716480 
2869.792 48637196 48602436 48605328 48637272 48688380 48748952 48808676 
2873.167 48859028 48893140 48906896 48898664 48868888 48819648 48753140 
2876.543 48671332 48576128 48468716 48351108 48225540 48094932 47962516 
2879.918 47831880 47705424 47585136 47472316 47367880 47272552 47187476 
2883.293 47113756 47052088 47003092 46966168 46940880 46926264 46921796 
2886.668 46927632 46943984 46971856 47011840 47064384 47129344 47206612 
2890.044 47295272 47395040 47505548 47627508 47761820 47909828 48074060 
2893.419 48257416 48463196 48695016 48956292 49249352 49575064 49932316 
2896.794 50316948 50722552 51139084 51555120 51957472 52332952 52670900 
2900.169 52963928 53209996 53412064 53578088 53719804 53849936 53982208 
2903.545 54128672 54299476 54503480 54748584 55041436 55389216 55798532 
2906.920 56276084 56829196 57465680 58194284 59025028 59967548 61029176 
2910.295 62211808 63509032 64902240 66358252 67834040 69273432 70614248 
2913.670 71798680 72772192 73493552 73939864 74105752 74004616 73663472 
2917.046 73122160 72423680 71610424 70722400 69791872 68843808 67897536 
2920.421 66965960 66057824 65179156 64333408 63522840 62748760 62012216 
2923.796 61314052 60655060 60036404 59458604 58921600 58424568 57964908 
2927.171 57538568 57139780 56761296 56395136 56032980 55666760 55290080 
2930.547 54898652 54490708 54067612 53633232 53193220 52754060 52322260 
2933.922 51903476 51501988 51120928 50762660 50428504 50119368 49836128 
2937.297 49579296 49349196 49146228 48970760 48823432 48704692 48615368 
2940.672 48555484 48524436 48520472 48540556 48580276 48634048 48694644 
2944.048 48754324 48804188 48834736 48837036 48803592 48729340 48612704 
2947.423 48456564 48268308 48057960 47838500 47623296 47423864 47250200 
2950.798 47108844 47002980 46933092 46896772 46890236 46908360 46945716 
2954.173 46996964 47057148 47121920 47187884 47251680 47311124 47364700 
2957.549 47411928 47453320 47490796 47527060 47565140 47607508 47655908 
2960.924 47710708 47771216 47835908 47903276 47972100 48041528 48111036 
2964.299 48179928 48246792 48309856 48367072 48416560 48457304 48489464 
2967.674 48514208 48533812 48551224 48569604 48592284 48622484 48663104 
2971.050 48716628 48784612 48867480 48964232 49072584 49189156 49309920 
2974.425 49430720 49547728 49657112 49755640 49840400 49908972 49959824 
2977.800 49992352 50007632 50007524 49995100 49973876 49947332 49918672 
2981.175 49890684 49865080 49843412 49825500 49810188 49794508 49773516 
2984.551 49740968 49689508 49611648 49501308 49353428 49165112 48935936 
2987.926 48667552 48363592 48029720 47673104 47301480 46922868 46544768 
2991.301 46172748 45810988 45461520 45124908 44800312 44486488 44181444 
2994.676 43882548 43586204 43287940 42982308 42663620 42327196 41969972 
2998.052 41591308 41192976 40778668 40353552 39922784 39491284 39062788 
3001.427 38640360 38226272 37821900 37428416 37046256 36675540 36315912 
3004.802 35966760 35628040 35299928 34983164 34678940 34388124 34110840 
3008.177 33846268 33592560 33347156 33107794 32872316 32639538 32409344 
3011.552 32182164 31958598 31738822 31522822 31309996 31099692 30891304 
3014.928 30684582 30479734 30277578 30079066 29885224 29697534 29516486 
3018.303 29342746 29176376 29017260 28865142 28719982 28581804 28451030 
3021.678 28328182 28213608 28107582 28010416 27922106 27843106 27774364 
3025.053 27717286 27674238 27647504 27638606 27648000 27674450 27714110 
3028.429 27761260 27808946 27849040 27873172 27874938 27848902 27792380 
3031.804 27705384 27590338 27451956 27295834 27128200 26954812 26780334 
3035.179 26608176 26439998 26276424 26116750 25959840 25804182 25648548 
3038.554 25491842 25334034 25175900 25018416 24863658 24713304 24568472 
3041.930 24429926 24298014 24172060 24051784 23936614 23826448 23720962 
3045.305 23620504 23524548 23433302 23346548 23264530 23187560 23116264 
3048.680 23051132 22992226 22938988 22890156 22843984 22799110 22754240 
3052.055 22709306 22664690 22621648 22581160 22544374 22512094 22484318 
3055.431 22461252 22442690 22427860 22416384 22407276 22399460 22392344 
3058.806 22385438 22379192 22374902 22374168 22378634 22389694 22407976 
3062.181 22433338 22465336 22503264 22546504 22594704 22647270 22703370 
3065.556 22761854 22821320 22880482 22937800 22992610 23043864 23090684 
3068.932 23131536 23164668 23187978 23199654 23198848 23186092 23162954 
3072.307 23132096 23096136 23057734 23018114 22978532 22939652 22901858 
3075.682 22865848 22832216 22801066 22771804 22743732 22714962 22684134 
3079.057 22650202 22612958 22573412 22532650 22492272 22453610 22417254 
3082.433 22383762 22352890 22325016 22299902 22277756 22258432 22241902 
3085.808 22228336 22218048 22211666 22209852 22213444 22222652 22237264 
3089.183 22256446 22278836 22303392 22328784 22354564 22380274 22406160 
3092.558 22431978 22457692 22483096 22508256 22533870 22560604 22589920 
3095.934 22622522 22658824 22698518 22740240 22782664 22824428 22864624 
3099.309 22903186 22940560 22977414 23014656 23052878 23092120 23132374 
3102.684 23173266 23214716 23256452 23298298 23340428 23382770 23425746 
3106.059 23469742 23515212 23562538 23611760 23662596 23714452 23766456 
3109.435 23817942 23868418 23918164 23967252 24016450 24066666 24118222 
3112.810 24171570 24226676 24283332 24340906 24398732 24455830 24511184 
3116.185 24564018 24613704 24660066 24703414 24744276 24783142 24820398 
3119.560 24855868 24889446 24921134 24951242 24980546 25010168 25041232 
3122.936 25074578 25110140 25147108 25184290 25220564 25255152 25288620 
3126.311 25322128 25357604 25396772 25440580 25489172 25541318 25595474 
3129.686 25649460 25701660 25751126 25797782 25842090 25885416 25929062 
3133.061 25974050 26021154 26070726 26122766 26177170 26233798 26292758 
3136.437 26353732 26416826 26481482 26547168 26612862 26677826 26741006 
3139.812 26801830 26860092 26915752 26969268 27021064 27072018 27122944 
3143.187 27174970 27229364 27287014 27348514 27413414 27480688 27548114 
3146.562 27614030 27676956 27736642 27794216 27851480 27910942 27974440 
3149.938 28042718 28115040 28189458 28263748 28335892 28404582 28469780 
3153.313 28532442 28593660 28654922 28717114 28780730 28845844 28911960 
3156.688 28978932 29046272 29113658 29180806 29247964 29315628 29384332 
3160.063 29455210 29528864 29605794 29685756 29767540 29849872 29931050 
3163.438 30010110 30086594 30161104 30234842 30309090 30384632 30461998 
3166.814 30541052 30620828 30700832 30780142 30858468 30936062 31012922 
3170.189 31089654 31166578 31243834 31321320 31399388 31477612 31556674 
3173.564 31636492 31717434 31799924 31883746 31968836 32054510 32140028 
3176.939 32224558 32307502 32389208 32469970 32550924 32633248 32717876 
3180.315 32805238 32895330 32987840 33081726 33176456 33271636 33366944 
3183.690 33462558 33558516 33655068 33751824 33848704 33945500 34042140 
3187.065 34138724 34235656 34333508 34432852 34534048 34637632 34743472 
3190.440 34851240 34959892 35068468 35175952 35281420 35384896 35486784 
3193.816 35588188 35690444 35794848 35901868 36011220 36122288 36233568 
3197.191 36344228 36453688 36562168 36670168 36778488 36887876 36998844 
3200.566 37111504 37225848 37342000 37459732 37578940 37699232 37820164 
3203.941 37941028 38061200 38180504 38299220 38417684 38536396 38655320 
3207.317 38773952 38891384 39006564 39118836 39228240 39335924 39443352 
3210.692 39552144 39663508 39777912 39895180 40015092 40137080 40261244 
3214.067 40387404 40515784 40646240 40777828 40909600 41040432 41169480 
3217.442 41296196 41420872 41543800 41665192 41785268 41904136 42021836 
3220.818 42139164 42256812 42376072 42498060 42623376 42751652 42882160 
3224.193 43013292 43143584 43272604 43400084 43526792 43654056 43782488 
3227.568 43912500 44043504 44173960 44302180 44426404 44545596 44659604 
3230.943 44769196 44876172 44982660 45090464 45200792 45313392 45427160 
3234.319 45539964 45649856 45755908 45858080 45958404 46059480 46164164 
3237.694 46274320 46390556 46511944 46636140 46761104 46884996 47007188 
3241.069 47128236 47249092 47370872 47494052 47618268 47742812 47866760 
3244.444 47989828 48112148 48234464 48358148 48484496 48614112 48747616 
3247.820 48885128 49026584 49171752 49320536 49472716 49627696 49785256 
3251.195 49944584 50105012 50266020 50426936 50587472 50747352 50906552 
3254.570 51064912 51222696 51380204 51537508 51694828 51852100 52009160 
3257.945 52166396 52323832 52482484 52643144 52806704 52974184 53145696 
3261.321 53320796 53498292 53677136 53855900 54033804 54210540 54385956 
3264.696 54560620 54734676 54908464 55082096 55255912 55430360 55605744 
3268.071 55782784 55962004 56143296 56326628 56511204 56696048 56880104 
3271.446 57062084 57241040 57416780 57589376 57759728 57929508 58100640 
3274.822 58275136 58454444 58639360 58829852 59024876 59222944 59422740 
3278.197 59622964 59823592 60024080 60225008 60426936 60630332 60835920 
3281.572 61044428 61256320 61472052 61691904 61915456 62142296 62371324 
3284.947 62602236 62834604 63069052 63306392 63547804 63794112 64045592 
3288.323 64301908 64562484 64826524 65093844 65364292 65638304 65916732 
3291.698 66200280 66489368 66784492 67085772 67393264 67706736 68025512 
3295.073 68348752 68674992 69003176 69332584 69662872 69994960 70330384 
3298.448 70670312 71016208 71368936 71728248 72093992 72465648 72842992 
3301.823 73225800 73614008 74007360 74405272 74807376 75213424 75624120 
3305.199 76040296 76463552 76895880 77338456 77792464 78258376 78736536 
3308.574 79226800 79728888 80242392 80765728 81297120 81834296 82375128 
3311.949 82918408 83464688 84015328 84572568 85138512 85714328 86299632 
3315.324 86893408 87494320 88101384 88714832 89335408 89964136 90601728 
3318.700 91247616 91900448 92558152 93219000 93881296 94544240 95206792 
3322.075 95867752 96525336 97178232 97825472 98467456 99105088 99739952 
3325.450 100373160 101004200 101630672 102249200 102855976 103448160 
3328.343 104023472 104581040 105120088 105639216 106136464 106609080 
3331.236 107054896 107472920 107863296 108227384 108565984 108878720 
3334.129 109163256 109416816 109636016 109819192 109966416 110079704 
3337.022 110161560 110213616 110235864 110226680 110183504 110103752 
3339.916 109986264 109831016 109638784 109410248 109145448 108843472 
3342.809 108503152 108123840 107705152 107247336 106751024 106216008 
3345.702 105641800 105028168 104375416 103686080 102963896 102214272 
3348.595 101442208 100651256 99843272 99018016 98174464 97311992 96431200 
3351.970 95534320 94624736 93705792 92780456 91850952 90918816 89986112 
3355.345 89054864 88128296 87209456 86301648 85406744 84525992 83660128 
3358.720 82809496 81974288 81155384 80353256 79568000 78799336 78046312 
3362.096 77308008 76584000 75874576 75180184 74502304 73841552 73198192 
3365.471 72572040 71962504 71368936 70791352 70229688 69684344 69155184 
3368.846 68641416 68141984 67655272 67179560 66713520 66255888 65805876 
3372.221 65361984 64923472 64489096 64058648 63632196 63210560 62794440 
3375.597 62384408 61980268 61581160 61185512 60792436 60401652 60013808 
3378.972 59630228 59252108 58879520 58511384 58145264 57778424 57408156 
3382.347 57033256 56653732 56270952 55887116 55504112 55123324 54746064 
3385.722 54372212 54001872 53634732 53270676 52909208 52550168 52193184 
3389.098 51838548 51486400 51137332 50791896 50450868 50113860 49780836 
3392.473 49451368 49125004 48801592 48481720 48165488 47853188 47544360 
3395.848 47238124 46933092 46628388 46323752 46019696 45717256 45418036 
3399.223 45122848 44832232 44545740 44262996 43983552 43707108 43433552 
3402.599 43163052 42895104 42628492 42362116 42094732 41825764 41555392 
3405.974 41285008 41015960 40749656 40486976 40227980 39971860 39717892 
3409.349 39464832 39212460 38960460 38708780 38457612 38206840 37956432 
3412.724 37706712 37458176 37211632 36967856 36727788 36491812 36260220 
3416.100 36032780 35808988 35588044 35368976 35150732 34932100 34712064 
3419.475 34490784 34268644 34047408 33829400 33616936 33411708 33213976 
3422.850 33022444 32835006 32648824 32461722 32272450 32081194 31889026 
3426.225 31697686 31508572 31322852 31140698 30961432 30784232 30608028 
3429.601 30431434 30254166 30075870 29897506 29720206 29545888 29376496 
3432.976 29213266 29056192 28904132 28755064 28606824 28457256 28305972 
3436.351 28153396 28001016 27850420 27702348 27556726 27412180 27266902 
3439.726 27119170 26968318 26814764 26659928 26505678 26353802 26205500 
3443.102 26060522 25918018 25776404 25633784 25488188 25338812 25185238 
3446.477 25028806 24871096 24714916 24562898 24416924 24277166 24142918 
3449.852 24012316 23883190 23753752 23623514 23492790 23362524 23233522 
3453.227 23106026 22979160 22851844 22722398 22590446 22456366 22321458 
3456.603 22187640 22055988 21927232 21800780 21675654 21550738 21425510 
3459.978 21299760 21173978 21048614 20924192 20800776 20678372 20556902 
3463.353 20437100 20319346 20204330 20092362 19983306 19876044 19769988 
3466.728 19664026 19557954 19451664 19345366 19238886 19131808 19023370 
3470.104 18912644 18799384 18683870 18567314 18451310 18337478 18226822 
3473.479 18119268 18014608 17911732 17809780 17708300 17606948 17505516 
3476.854 17404072 17302066 17198704 17093646 16986440 16877572 16767701 
3480.229 16658477 16551415 16448162 16350063 16258107 16171811 16090311 
3483.604 16011612 15932927 15851850 15765911 15674112 15576805 15475502 
3486.980 15373502 15273207 15177190 15086889 15002026 14921467 14844007 
3490.355 14767522 14690878 14613049 14533829 14453012 14371287 14288859 
3493.730 14206856 14126033 14047414 13971821 13899698 13830972 13765779 
3497.105 13703812 13644828 13588073 13533035 13478483 13422878 13365025 
3500.481 13303661 13238889 13171771 13104253 13038760 12976998 12920229 
3503.856 12868279 12820430 12775692 12732870 12691791 12652116 12613705 
3507.231 12576186 12538669 12500200 12460644 12420922 12382192 12346908 
3510.606 12316670 12292095 12272087 12254637 12236914 12216773 12192850 
3513.982 12165384 12135467 12104666 12073901 12043616 12013434 11982983 
3517.357 11951512 11919055 11885545 11851016 11815163 11777167 11736043 
3520.732 11691383 11642847 11591220 11537728 11483732 11430184 11377222 
3524.107 11324403 11270637 11214396 11154865 11091059 11023150 10951140 
3527.483 10875370 10796252 10713921 10628889 10541431 10452360 10362730 
3530.858 10273865 10187563 10105179 10027150 9953100 9881438 9809108 9732962 
3534.715 9650121 9559675 9462373 9360963 9259982 9163288 9073722 8992394 
3538.573 8918183 8848888 8781836 8715369 8648270 8580303 8512110 8443858 
3542.430 8375383 8306209 8235830 8164044 8091156 8017841 7945181 7873949 
3546.288 7804551 7737390 7672634 7610552 7551074 7493661 7437031 7379565 
3550.145 7318973 7253774 7183296 7108485 7031631 6955702 6883285 6815762 
3554.002 6753297 6694946 6639463 6585601 6533260 6482270 6433002 6384479 
3557.860 6335423 6284087 6229060 6169434 6106155 6041239 5977373 5917212 
3561.717 5862567 5813772 5770052 5729157 5687997 5643014 5589746 5524303 
3565.575 5443804 5347587 5238380 5122461 5008752 4905829 4820420 4754355 
3569.432 4705650 4669109 4638297 4607555 4572662 4531746 4484640 4432618 
3573.290 4376921 4318721 4258354 4195854 4131423 4065029 3997407 3928893 
3577.147 3860323 3792098 3724986 3659924 3597677 3539916 3487806 3441582 
3581.004 3401606 3367378 3337627 3311684 3288547 3266980 3245348 3221113 
3584.862 3190804 3150285 3096187 3026680 2943207 2850945 2757636 2672580 
3588.719 2602842 2552511 2521750 2506853 2502254 2500654 2495955 2482259 
3592.577 2455567 2414683 2360877 2297783 2231002 2166729 2110323 2064977 
3596.434 2031387 2007885 1990875 1975830 1958855 1937321 1910197 1877850 
3600.292 1842943 1808338 1776930 1750715 1731054 1717747 1709631 1704708 
3604.149 1700982 1695826 1686413 1670081 1643905 1605890 1555144 1493397 
3608.006 1425044 1355871 1293156 1241781 1203503 1176259 1154531 1131741 
3611.864 1102110 1062582 1014090 961254 910151 866855 834553 813074 799165 
3616.203 787381 772245 748778 713995 667434 611222 549477 487774 432316 
3620.543 387377 355408 336241 328018 327288 330770 336241 343006 351727 
3624.883 363267 377162 390361 396298 386116 350169 282924 187015 75651 
3629.222 -31376 -113833 -161134 -173985 -162425 -139405 -117245 -104260 
3633.080 -103995 -114926 -132416 -151561 -167923 -179913 -187994 -193724 
3636.937 -198758 -204256 -210714 -218563 -228498 -241546 -258832 -280521 
3640.794 -305554 -331280 -354290 -370744 -377563 -373789 -360117 -338663 
3644.652 -313169 -287640 -265819 -251646 -248997 -260686 -288998 -334591 
3648.509 -396036 -469686 -549213 -627039 -694232 -743586 -770973 -775835 
3652.367 -761878 -735515 -705744 -681826 -671637 -681562 -712823 -762076 
3656.224 -820319 -877562 -924383 -956155 -972520 -977347 -975364 -970735 
3660.082 -966603 -964487 -964388 -965611 -966999 -967561 -966239 -961544 
3663.939 -952386 -938236 -918696 -894624 -868237 -842179 -820418 -807553 
3667.796 -808082 -826371 -864765 -921903 -990604 -1058633 -1111680 -1138053 
3671.654 -1132799 -1099320 -1048254 -994835 -955527 -945939 -975000 -1041379 
3675.511 -1130254 -1219573 -1290143 -1331799 -1346399 -1343361 -1333550 
3678.886 -1325061 -1321889 -1323905 -1328034 -1331073 -1331040 -1327571 
3682.262 -1321625 -1313598 -1302862 -1287533 -1265729 -1236985 -1203581 
3685.637 -1170736 -1145092 -1133658 -1141688 -1169810 -1214485 -1267744 
3689.012 -1321295 -1368200 -1405390 -1432966 -1452616 -1465660 -1472892 
3692.387 -1474510 -1471208 -1464537 -1456810 -1450304 -1446737 -1446110 
3695.763 -1447002 -1446011 -1439968 -1426857 -1406909 -1382501 -1357729 
3699.138 -1337910 -1327406 -1328958 -1343162 -1367374 -1396770 -1425205 
3702.513 -1447002 -1457767 -1456215 -1442775 -1420153 -1391782 -1361230 
3705.888 -1331205 -1303688 -1279869 -1259915 -1243858 -1232228 -1225950 
3709.264 -1226644 -1236093 -1255917 -1286707 -1326811 -1372824 -1418831 
3712.639 -1458692 -1487124 -1500299 -1498219 -1482798 -1457866 -1428310 
3716.014 -1399115 -1373551 -1354327 -1341808 -1335466 -1333616 -1335202 
3719.389 -1339496 -1346102 -1354822 -1364897 -1374475 -1381213 -1382700 
3722.765 -1377646 -1366912 -1353072 -1340256 -1331997 -1331073 -1337481 
3726.140 -1349240 -1361693 -1369983 -1370314 -1360801 -1342237 -1317463 
3729.515 -1290936 -1267183 -1249772 -1240455 -1239100 -1242966 -1248615 
3732.890 -1252976 -1255322 -1257635 -1263483 -1276466 -1298039 -1325820 
3736.266 -1354657 -1377283 -1388843 -1387026 -1372725 -1348315 -1316373 
3739.641 -1277821 -1232492 -1180186 -1122983 -1065144 -1016686 -990405 
3743.016 -999133 -1050998 -1140862 -1248648 -1343691 -1399709 -1406480 
3746.391 -1369488 -1304514 -1229717 -1163102 -1117497 -1100113 -1111515 
3749.767 -1146777 -1197732 -1255454 -1313433 -1366218 -1409155 -1438019 
3753.142 -1448686 -1440067 -1414274 -1376127 -1332724 -1290573 -1254893 
3756.517 -1228659 -1212205 -1204341 -1203779 -1209529 -1220994 -1237448 
3759.892 -1256445 -1273592 -1283965 -1283800 -1272238 -1252117 -1229651 
3763.268 -1211577 -1203482 -1207249 -1220366 -1236886 -1249111 -1251688 
3766.643 -1243494 -1227172 -1208736 -1194131 -1187819 -1191256 -1202821 
3770.018 -1218351 -1233582 -1245080 -1251391 -1252679 -1249904 -1244155 
3773.393 -1236358 -1227140 -1216434 -1204209 -1190562 -1175758 -1160690 
3776.769 -1146877 -1136665 -1132270 -1135112 -1145555 -1160987 -1177510 
3780.144 -1189736 -1194098 -1189075 -1176485 -1160161 -1145389 -1136368 
3783.519 -1135310 -1141920 -1153453 -1166308 -1176518 -1182202 -1182995 
3786.894 -1180087 -1174833 -1169050 -1163763 -1159533 -1157121 -1156427 
3790.270 -1157517 -1159500 -1160194 -1157617 -1149685 -1135310 -1115580 
3793.645 -1093635 -1073474 -1059162 -1053576 -1056055 -1063657 -1070367 
3797.020 -1070863 -1061641 -1042999 -1019033 -996918 -985182 -991430 
3800.395 -1019232 -1066169 -1123082 -1174965 -1207612 -1212932 -1191091 
3803.771 -1149685 -1100212 -1056352 -1029611 -1027297 -1050072 -1090925 
3807.146 -1137326 -1174965 -1194758 -1194659 -1178633 -1153750 -1126817 
3810.521 -1101336 -1078002 -1054138 -1027132 -995794 -962007 -931161 -910033 
3814.378 -905437 -920150 -951163 -988753 -1019992 -1034371 -1027231 -1001447 
3818.236 -966140 -933442 -915389 -920812 -953676 -1009348 -1075820 -1136136 
3822.093 -1175230 -1185506 -1168356 -1131311 -1085901 -1043461 -1012422 
3825.469 -997381 -998108 -1010042 -1025479 -1037049 -1040057 -1033016 
3828.844 -1017777 -998042 -977909 -959991 -945410 -933111 -920977 -906925 
3832.701 -888838 -866716 -841517 -815788 -792637 -776497 -771701 -781789 
3836.559 -808347 -850248 -903254 -959627 -1011430 -1051460 -1076250 -1085835 
3840.416 -1083389 -1073044 -1059823 -1047329 -1038139 -1033313 -1031925 
3843.791 -1032189 -1031528 -1027132 -1016686 -999497 -975430 -945774 -912083 
3847.649 -875611 -836722 -794423 -747655 -695985 -640935 -588194 -547658 
3851.506 -531575 -554078 -623730 -738195 -880207 -1022636 -1138681 -1212965 
3855.364 -1244452 -1241479 -1215773 -1177245 -1133162 -1087653 -1042767 
3858.739 -1000058 -960652 -926366 -898559 -878289 -865393 -859242 -858978 
3862.596 -864236 -875313 -891979 -912612 -933012 -946997 -948452 -933541 
3866.454 -903221 -863674 -825346 -798326 -792009 -809637 -847205 -893500 
3870.311 -934136 -959197 -965710 -958701 -946865 -939823 -942765 -955593 
3874.168 -972851 -986075 -987265 -972223 -942038 -901866 -859540 -822899 
3878.026 -798458 -790190 -798888 -821576 -851273 -879943 -898824 -901667 
3881.883 -887085 -858052 -822072 -788271 -766442 -763432 -780697 -812878 
3885.741 -848495 -874156 -879348 -860532 -822039 -773719 -727246 -693339 
3889.598 -680106 -690031 -720134 -762308 -806892 -844097 -868237 -877264 
3893.456 -872668 -857424 -834738 -807256 -777026 -745769 -715503 -688079 
3897.313 -665417 -649570 -640770 -638619 -641233 -645931 -650662 -654070 
3901.170 -656948 -661249 -670281 -686259 -710408 -741304 -775207 -806958 
3905.028 -831166 -844394 -845486 -835631 -817739 -795515 -772528 -751227 
3908.885 -733663 -720167 -710342 -703594 -698632 -694067 -688476 -680933 
3912.743 -670909 -658768 -645236 -632300 -622109 -616385 -615757 -619892 
3916.600 -627271 -635641 -642854 -648015 -650861 -652085 -652349 -652052 
3920.458 -650993 -648478 -644277 -638718 -632928 -628561 -627502 -630215 
3924.315 -636535 -644707 -652449 -657510 -658470 -655360 -648942 -640306 
3928.172 -630910 -621381 -612282 -604010 -597492 -593455 -593157 -596764 
3932.030 -603349 -610959 -616749 -618238 -613904 -603746 -589220 -572840 
3935.887 -557122 -543952 -534123 -527703 -524195 -522673 -522673 -524129 
3939.745 -526909 -530946 -535811 -541006 -545838 -550140 -553912 -557188 
3943.602 -560332 -563542 -566487 -569134 -571186 -572907 -574760 -577506 
3947.459 -581411 -585911 -590146 -592165 -590577 -584620 -574330 -561523 
3951.317 -547856 -535447 -525684 -518701 -514167 -510692 -507416 -504073 
3955.174 -500962 -498745 -498480 -500234 -504537 -510361 -516682 -522639 
3959.032 -527537 -530747 -532733 -533296 -533196 -532303 -530847 -528729 
3962.889 -525783 -521911 -517245 -511817 -505927 -500234 -494707 -490040 
3966.747 -486334 -483851 -482395 -482296 -483090 -484613 -486267 -487260 
3970.604 -487260 -485440 -481832 -476107 -469355 -462172 -455652 -450488 
3974.461 -447013 -444861 -443405 -441849 -439466 -435957 -431455 -426755 
3978.319 -422717 -420234 -420035 -422352 -426921 -432746 -438804 -443405 
3982.176 -445722 -444497 -440095 -433177 -425299 -418645 -415070 -415798 
3986.034 -420598 -428476 -437149 -444530 -448668 -448635 -444663 -437447 
3989.891 -428576 -418943 -409939 -401730 -394844 -389415 -385840 -384383 
3993.749 -385111 -387859 -391832 -396301 -399843 -401564 -400836 -398055 
3997.606 -393454 -388025 -382695 -378490 -376007 -375710 -377663 
##END=
