
##TITLE=1731a_3_b
##JCAMP-DX=5.01  $$ Nicolet v. 1
##DATATYPE=INFRARED SPECTRUM
##ORIGIN=UniL
##OWNER=Nicolet
##LONGDATE=2011/09/22
##TIME=10:35:57
##SPECTROMETER/DATA SYSTEM=Nicolet iS5
##DATA PROCESSING=
Ratio against background
%Transmittance->Absorbance
Truncated
ElementMultiply or ElementDivide
##COMMENTS=
Number of sample scans: 32
Collection length: 51.19 sec
Sample gain: 2.0
Background collected on: Jeu Sep 22 10:31:57 2011 (GMT+02:00);
Number of background scans: 32
Background gain: 2.0
Sample spacing:  1.000
Number of scan points: 12415
Resolution points: 8192
Number of FFT points: 65536
Apodization: N-B fort;
Phase correction: Mertz;
Laser frequency: 15798.0 cm-1
Number of rejected sample scans: 0
Number of rejected background scans: 0
Bench serial number: ASB1000141;
##RESOLUTION=4.000
##XUNITS=1/CM
##YUNITS=ABSORBANCE
##FIRSTX=649.893372
##LASTX=4000.122314
##FIRSTY=0.104486
##MAXX=4000.122314
##MINX=649.893372
##MAXY=0.283244
##MINY=-0.000660
##XFACTOR=1.000000
##YFACTOR=1.000000E-009
##NPOINTS=6950
##DELTAX=0.482117
##ZPD=6100
##XYDATA=(X++(Y..Y))
649.893 104486208 103851776 103288376 102811384 102412752 102068520 
652.786 101750944 101443296 101142408 100857264 100598832 100371576 
655.679 100170936 99986192 99807496 99633200 99470352 99330392 99221328 
659.054 99141392 99076416 99004944 98909816 98781432 98623520 98450904 
662.428 98282272 98132888 98009176 97906288 97808536 97691480 97520280 
665.803 97252632 96842920 96255984 95496336 94631448 93784200 93070072 
669.178 92545360 92190744 91942416 91721808 91462008 91122664 90689952 
672.553 90179328 89621152 89052304 88497200 87962240 87439976 86917896 
675.928 86389000 85857320 85334472 84833840 84362072 83916272 83485448 
679.302 83057472 82625704 82192200 81765808 81356544 80969216 80602136 
682.677 80247016 79895368 79543520 79195352 78859768 78545880 78256944 
686.052 77988336 77729016 77467272 77196304 76918112 76642696 76383624 
689.427 76150600 75947304 75768952 75607168 75454384 75308080 75171784 
692.802 75053688 74961464 74898312 74862600 74848824 74851696 74867680 
696.177 74896848 74939928 74995328 75056056 75110488 75144288 75146256 
699.551 75112464 75047504 74962768 74871336 74784776 74708904 74644128 
702.926 74588416 74540184 74499352 74467336 74444960 74429264 74413616 
706.301 74389744 74350576 74294424 74226024 74155312 74094784 74055528 
709.676 74047912 74081464 74169192 74329456 74583536 74949104 75430968 
713.051 76011760 76647400 77268224 77797376 78163152 78316144 78241032 
716.425 77954720 77500064 76931392 76312160 75711600 75200696 74864488 
719.800 74792104 75058536 75708248 76721560 78000984 79358360 80551888 
723.175 81332160 81480400 80881552 79543808 77604480 75284000 72841776 
726.550 70519952 68480200 66802620 65486676 64479032 63701788 63079932 
729.925 62561400 62111908 61714896 61361980 61046756 60762824 60505464 
733.300 60272320 60063648 59880292 59721500 59582376 59456284 59335820 
736.674 59216984 59100112 58990296 58892992 58812512 58749352 58700384 
740.049 58660936 58627148 58597944 58574360 58557980 58549184 58546452 
743.424 58547060 58548880 58552368 58560256 58575688 58600640 58632304 
746.799 58663592 58684032 58683920 58657752 58605380 58532272 58447240 
750.174 58359340 58275440 58200040 58136056 58085908 58052388 58038376 
753.548 58045192 58071440 58113216 58166020 58225424 58289800 58360744 
756.923 58441516 58535800 58645540 58770856 58910676 59064468 59233576 
760.298 59421068 59631444 59868808 60135720 60433032 60760952 61121392 
763.673 61520304 61972240 62501364 63148140 63969336 65029836 66399716 
767.048 68128184 70218744 72601568 75119200 77540464 79567128 80916752 
770.423 81381312 80879672 79496568 77464616 75120968 72794448 70751112 
773.797 69133576 67941232 67060800 66315212 65541156 64621696 63523144 
777.172 62285536 60998860 59763552 58655552 57717796 56952480 56334548 
780.547 55824076 55383120 54983480 54607136 54247740 53906164 53589108 
783.922 53306220 53070132 52894460 52790988 52769436 52835332 52990132 
787.297 53232956 53561596 53975196 54474744 55064644 55750496 56541060 
790.671 57447072 58480676 59657556 60995468 62513492 64232288 66170020 
794.046 68340024 70750016 73400048 76282224 79382032 82682456 86166752 
797.421 89825448 93664592 97715040 102039432 106726112 111886296 117624464 
800.796 123999272 130979896 138395600 145926896 153061296 159169744 
803.689 163610704 165800800 165401472 162396320 157126784 150202624 
806.581 142374240 134392832 126798304 119884224 113673080 107982720 
809.474 102522832 97014848 91300528 85367704 79350368 73456944 67923256 
812.849 62938580 58607352 54959004 51954412 49517760 47555860 45982528 
816.224 44725636 43723600 42928352 42301920 41813176 41441612 41174396 
819.598 41004488 40927552 40939020 41032600 41201756 41440992 41748168 
822.973 42124124 42572132 43094736 43692524 44364012 45106048 45916084 
826.348 46792320 47732048 48731564 49782876 50876600 52005240 53170408 
829.723 54388772 55698400 57162836 58861608 60889364 63343616 66299424 
833.098 69794256 73793480 78175376 82696480 86994968 90648880 93187048 
836.473 94205808 93467728 90943856 86845568 81560912 75604800 69482800 
839.847 63614400 58314812 53747740 49958224 46905000 44498824 42632256 
843.222 41198220 40109060 39288624 38673176 38214404 37872912 37620996 
846.597 37442324 37326796 37267440 37257800 37289392 37354096 37446368 
849.972 37564884 37713108 37896084 38118312 38380688 38680420 39013596 
853.347 39377788 39774356 40209044 40689432 41222412 41812812 42462912 
856.721 43176192 43960156 44828264 45802444 46910796 48184516 49660200 
860.096 51378416 53382316 55719528 58429840 61531032 64997048 68738832 
863.471 72595104 76318008 79619576 82199280 83785088 84204248 83402856 
866.846 81465360 78588808 75061296 71213496 67342304 63706168 60486612 
870.221 57778504 55613804 53971444 52801504 52036872 51608472 51452940 
873.596 51506876 51713232 52019952 52378404 52751744 53118212 53473596 
876.970 53832460 54223640 54684616 55246992 55929176 56723988 57596488 
880.345 58480068 59283784 59913876 60279932 60320632 60018336 59403552 
883.720 58551876 57562704 56550304 55613276 54820680 54212828 53798480 
887.095 53566168 53494432 53561596 53749540 54043444 54431440 54900648 
890.470 55436532 56025744 56656224 57320280 58014140 58735960 59483532 
893.844 60253172 61039396 61836596 62640736 63449056 64258224 65061936 
897.219 65846668 66592372 67275640 67871928 68364264 68745200 69017664 
900.594 69192408 69284080 69308608 69279840 69212456 69122432 69027960 
903.969 68951248 68917272 68949664 69072552 69308256 69675672 70192680 
907.344 70874584 71732544 72774496 74003512 75419296 77020248 78805928 
910.719 80778776 82943672 85306328 87870512 90636552 93602608 96767480 
914.093 100137344 103728696 107572104 111709232 116183920 121035992 
916.986 126287624 131934064 137928272 144168768 150496720 156664960 
919.879 162354224 167201504 170807712 172838080 173090688 171558816 
922.771 168469632 164272864 159617392 155203008 151734048 149825504 
925.664 149870000 152022240 156133680 161785184 168274768 174711920 
928.557 180211248 183940944 185329920 184156336 180525648 174805920 
931.450 167480368 159070560 150018912 140664112 131276336 122057392 
934.342 113178960 104809384 97094608 90164032 84122168 79029056 74912680 
937.717 71771048 69579824 68297368 67860464 68182688 69132144 70526936 
941.092 72152240 73749656 75061608 75874224 76025456 75446336 74161008 
944.467 72280816 69974328 67434752 64859876 62407628 60190404 58273432 
947.841 56673776 55377208 54349380 53551888 52946748 52501032 52189112 
951.216 51987760 51875772 51834848 51849000 51907096 52003820 52137812 
954.591 52309664 52519356 52764012 53039096 53339416 53661312 54004120 
957.966 54369996 54761288 55179188 55621824 56084592 56562456 57051616 
961.341 57550940 58061516 58584748 59120536 59665920 60215872 60765412 
964.716 61312256 61858028 62407284 62965432 63536376 64121208 64718172 
968.090 65324896 65940680 66568232 67213096 67880992 68576848 69302272 
971.465 70056704 70838936 71649776 72492704 73373488 74298288 75271112 
974.840 76292536 77360464 78471960 79625664 80822360 82063816 83351184 
978.215 84682088 86050160 87445448 88857552 90278184 91700976 93121760 
981.590 94535792 95935392 97310208 98648592 99940232 101178832 102361712 
984.964 103487480 104552296 105546808 106455568 107261296 107947832 
987.857 108506008 108936496 109249192 109461576 109594608 109673384 
990.750 109724864 109777080 109861088 110005088 110231592 110554928 
993.643 110977784 111493600 112089544 112753272 113474760 114248536 
996.535 115072048 115942088 116851952 117792568 118753136 119724904 
999.428 120704024 121690040 122683712 123682608 124678512 125658032 
1002.321 126606360 127511624 128368808 129181776 129961328 130721408 
1005.213 131476760 132244080 133041040 133890632 134821648 135864352 
1008.106 137047536 138392928 139910080 141596752 143441232 145427168 
1010.999 147534448 149739952 152017024 154329120 156632640 158883840 
1013.891 161042448 163085392 165011136 166839120 168601040 170330736 
1016.784 172055472 173789024 175534192 177288640 179051440 180829728 
1019.677 182640912 184511168 186477456 188586384 190889856 193449952 
1022.570 196330480 199586528 203260720 207371520 211911984 216850576 
1025.462 222140560 227729440 233557488 239561792 245667424 251771872 
1028.355 257751104 263456848 268720736 273384128 277295520 280316736 
1031.249 282333280 283243584 282967936 281465408 278743168 274870272 
1034.142 269968384 264210368 257793664 250914064 243774816 236567696 
1037.035 229469888 222662640 216309008 210550128 205510944 201279168 
1039.928 197911456 195434272 193836672 193065856 193009568 193496256 
1042.821 194271456 195001152 195329584 194886432 193364464 190590416 
1045.714 186537328 181341904 175257248 168626576 161806992 155111376 
1048.607 148807504 143075152 138010640 133646400 129957664 126884296 
1051.500 124343488 122250488 120525168 119096520 117910792 116924720 
1054.393 116100888 115406312 114804720 114256768 113725944 113176120 
1057.286 112578048 111911456 111161952 110322184 109391024 108375136 
1060.179 107290480 106162608 105029304 103933560 102919376 102029792 
1063.072 101298600 100750400 100400720 100254320 100304656 100530464 
1065.965 100894712 101340192 101790976 102166816 102385448 102380376 
1068.858 102114288 101579176 100798632 99816080 98690640 97481824 96240440 
1072.234 95007816 93809776 92657520 91551304 90483488 89443776 88423440 
1075.609 87420488 86440952 85499680 84615288 83808024 83095024 82486496 
1078.984 81986416 81593136 81301000 81101104 80981232 80925896 80914200 
1082.359 80922064 80927576 80913600 80875520 80823392 80782688 80788672 
1085.735 80880912 81099984 81478512 82041880 82807656 83784040 84970216 
1089.110 86354232 87914248 89616384 91418744 93281088 95166688 97049200 
1092.485 98912976 100746520 102535720 104257328 105873816 107338200 
1095.378 108605512 109641136 110437920 111021808 111458264 111837976 
1098.271 112265088 112839112 113622416 114623960 115780368 116964672 
1101.164 117988440 118631240 118697520 118035432 116579448 114361480 
1104.057 111504864 108198736 104651496 101080136 97667408 94543704 91796184 
1107.433 89461120 87536360 85992360 84783968 83858824 83160344 82637560 
1110.808 82243768 81936192 81678744 81437792 81180992 80880832 80513040 
1114.183 80060600 79516784 78884560 78176448 77410008 76606728 75787144 
1117.558 74969656 74170608 73403536 72679000 72004464 71382952 70812920 
1120.934 70288112 69800552 69342224 68906984 68490872 68090504 67698952 
1124.309 67303736 66884628 66416168 65874124 65240136 64509124 63691504 
1127.684 62813088 61910948 61023304 60187552 59431136 58768544 58202388 
1131.059 57724040 57317676 56961548 56633496 56313464 55985900 55643404 
1134.435 55287296 54927604 54580232 54263960 53997556 53794540 53663260 
1137.810 53605340 53616288 53685872 53799232 53939252 54085888 54219172 
1141.185 54322496 54382540 54391928 54349116 54256604 54118916 53941576 
1144.560 53730080 53490536 53230148 52958684 52686908 52426292 52187316 
1147.936 51977264 51800392 51658068 51550568 51477892 51441260 51442120 
1151.311 51481848 51560044 51674824 51822864 52000532 52204876 52434144 
1154.686 52686980 52961644 53255168 53563392 53881332 54204196 54528312 
1158.061 54850792 55168616 55477756 55772308 56044516 56287132 56493432 
1161.437 56658864 56781120 56858276 56887852 56865904 56786560 56644104 
1164.812 56434072 56154644 55807232 55395348 54924596 54400828 53830772 
1168.187 53223028 52587864 51938204 51289400 50656420 50053212 49491544 
1171.562 48979400 48523028 48127840 47799108 47543032 47366324 47274436 
1174.938 47271628 47360712 47543916 47824704 48208728 48704652 49323288 
1178.313 50076304 50974696 52028956 53248912 54645160 56230972 58020540 
1181.688 60029484 62273224 64763480 67508984 70512040 73767368 77255640 
1185.063 80935760 84743904 88577848 92301664 95761408 98780768 101193056 
1188.438 102862816 103690408 103633536 102708200 100987936 98589464 95657944 
1191.814 92357488 88838688 85236400 81664544 78204488 74916376 71841760 
1195.189 69004376 66417748 64085648 62003696 60160568 58538604 57116764 
1198.564 55870012 54773088 53803204 52938548 52160640 51454280 50805380 
1201.939 50202376 49636648 49102780 48599844 48130248 47699136 47310976 
1205.315 46968496 46670520 46412712 46188704 45991996 45818132 45664800 
1208.690 45531500 45418660 45326336 45254808 45204944 45179908 45186048 
1212.065 45232116 45329056 45486908 45713720 46014616 46391696 46845024 
1215.440 47373272 47973692 48641680 49369428 50146812 50961132 51799980 
1218.816 52653468 53515308 54383440 55259484 56147068 57051732 57979492 
1222.191 58938684 59939856 60995048 62117028 63316008 64597160 65958656 
1225.566 67391288 68879064 70398752 71923712 73423272 74864056 76215328 
1228.941 77451504 78557560 79533856 80398104 81184824 81937832 82710432 
1232.317 83558064 84532312 85685912 87069456 88728896 90710808 93055248 
1235.692 95793504 98948224 102530344 106540424 110968456 115795512 120990768 
1239.067 126504960 132274192 138214688 144226496 150212496 156078960 
1241.960 161745856 167153536 172251408 176992896 181329984 185203632 
1244.853 188543728 191273808 193304416 194542560 194899296 194291696 
1247.746 192663120 189994256 186307216 181664080 176154352 169885088 
1250.639 162960624 155484320 147563312 139306304 130837608 122297744 
1253.532 113825928 105567128 97656792 90202768 83295104 76992872 71321256 
1256.908 66278584 61836560 57949008 54555508 51591644 48995088 46704276 
1260.283 44667056 42840508 41189004 39687900 38319848 37072528 35937428 
1263.658 34906640 33971796 33124994 32358366 31665218 31040326 30478740 
1267.033 29974714 29521700 29112098 28738602 28396588 28085028 27806580 
1270.409 27566824 27372900 27230636 27144776 27119594 27159662 27271314 
1273.784 27463674 27746356 28128048 28613230 29199198 29873546 30611298 
1277.159 31377624 32124330 32793838 33330056 33679380 33804756 33693164 
1280.534 33357784 32836184 32179452 31446834 30690628 29948620 29245518 
1283.910 28591500 27988894 27437202 26936480 26488666 26096376 25761040 
1287.285 25482144 25257612 25085496 24964964 24896184 24879412 24913132 
1290.660 24992724 25111966 25262948 25439702 25639442 25861538 26105910 
1294.035 26371126 26652706 26944344 27240584 27540064 27847168 28172664 
1297.411 28532230 28941956 29417446 29972264 30617202 31360920 32208070 
1300.786 33155714 34187476 35269060 36350492 37364676 38238500 38907944 
1304.161 39321888 39454488 39307308 38907800 38303420 37552312 36721800 
1307.536 35874336 35064408 34336128 33716192 33216048 32832324 32551922 
1310.912 32356866 32229092 32155226 32125682 32133498 32172102 32233302 
1314.287 32307144 32384892 32459330 32527782 32590710 32650002 32706410 
1317.662 32758464 32802522 32835256 32855588 32866560 32873352 32882110 
1321.037 32896154 32914740 32933470 32946124 32948412 32939584 32922924 
1324.413 32904484 32892116 32893866 32917886 32974790 33077362 33239656 
1327.788 33474724 33790752 34186868 34653280 35173080 35727860 36300708 
1331.163 36881456 37465004 38049120 38630656 39202892 39754852 40274872 
1334.538 40752024 41179496 41555612 41882356 42164172 42405876 42613688 
1337.914 42795672 42962336 43128288 43309064 43517596 43762880 44047540 
1341.289 44369996 44728132 45122040 45556596 46040328 46583056 47193352 
1344.664 47877676 48640384 49484632 50412760 51423432 52505892 53631696 
1348.039 54753996 55800868 56684460 57318808 57624560 57549196 57076140 
1351.415 56226108 55055580 53644744 52096080 50512908 48990304 47612980 
1354.790 46439484 45503132 44811368 44349556 44087216 43986704 44014168 
1358.165 44140544 44343940 44609588 44925080 45280844 45672380 46101928 
1361.540 46581616 47130672 47771772 48519360 49371320 50303520 51271652 
1364.916 52217324 53069456 53756628 54210088 54366692 54184488 53648452 
1368.291 52778904 51628288 50275988 48814420 47325088 45876308 44513324 
1371.666 43257192 42116676 41094736 40198172 39440848 38840652 38410912 
1375.041 38152356 38049880 38078416 38209844 38425356 38720916 39108976 
1378.417 39615300 40276436 41139788 42257764 43690580 45500040 47728608 
1381.792 50379156 53382652 56594048 59776136 62629104 64851492 66147492 
1385.167 66294060 65184736 62864132 59550640 55595652 51438840 47473464 
1388.542 43970500 41065672 38763268 36990980 35641384 34610792 33809840 
1391.917 33167764 32636252 32181128 31781562 31429488 31125746 30877180 
1395.293 30690060 30566148 30500706 30484498 30506322 30556942 30631778 
1398.668 30731774 30862772 31032710 31249818 31518370 31838250 32204218 
1402.043 32607674 33037678 33481740 33929376 34371484 34801048 35212460 
1405.418 35599768 35957080 36280752 36571288 36836480 37090572 37352832 
1408.794 37642600 37973572 38351880 38774928 39235312 39725116 40240304 
1412.169 40782048 41354320 41960372 42600128 43269456 43964192 44684464 
1415.544 45438160 46243064 47124580 48111776 49228716 50485516 51867184 
1418.919 53328552 54796808 56187604 57425364 58452240 59235628 59769176 
1422.295 60073124 60199540 60229496 60271788 60431732 60788432 61378388 
1425.670 62193304 63198492 64354048 65633760 67025536 68525552 70130648 
1429.045 71830384 73611344 75466328 77404776 79454152 81647272 84011216 
1432.420 86552800 89259632 92105824 95072936 98165032 101407352 104839880 
1435.796 108490816 112351904 116359704 120417424 124436096 128355760 
1438.689 132147368 135784528 139223424 142374032 145098640 147242672 
1441.582 148636672 149132960 148632144 147083648 144502912 140971872 
1444.475 136649904 131754504 126528368 121237360 116117856 111361784 
1447.368 107116000 103454840 100378376 97811152 95632880 93707312 91920424 
1450.743 90216104 88603888 87155024 85963968 85118608 84657648 84556832 
1454.118 84729968 85047504 85370120 85558632 85523648 85261760 84875328 
1457.494 84533320 84397768 84583560 85137632 86064904 87350792 88966896 
1460.869 90870128 92991952 95245864 97511392 99633040 101445392 102778464 
1464.244 103505976 103589576 103096416 102178472 101010264 99759048 98548392 
1467.619 97453624 96519744 95759384 95155472 94657736 94184568 93633024 
1470.995 92894072 91898280 90651128 89256296 87883296 86711352 85872416 
1474.370 85420864 85357856 85657216 86288712 87224120 88432336 89873288 
1477.745 91487984 93202200 94939536 96620936 98183064 99588368 100827048 
1481.120 101922728 102925424 103906952 104945640 106123264 107531224 
1484.013 109262528 111413848 114071368 117284152 121035856 125211048 
1486.906 129602048 133886528 137655328 140480960 141933232 141678384 
1489.800 139569856 135691360 130361768 124033752 117196832 110243640 
1492.693 103419024 96862184 90617936 84699120 79146280 74036240 69491744 
1496.068 65656424 62643648 60502192 59204336 58674816 58815776 59534184 
1499.443 60754552 62408432 64426756 66738592 69257728 71888368 74534088 
1502.818 77074296 79369296 81250696 82482728 82777264 81824016 79387840 
1506.194 75469440 70405848 64793484 59214208 54034928 49367940 45164760 
1509.569 41330668 37793488 34520344 31520400 28820242 26436618 24369678 
1512.944 22597356 21084716 19794126 18691824 17748580 16934966 16222714 
1516.319 15588654 15018662 14513923 14085404 13743891 13488907 13302944 
1519.695 13152166 13000111 12821079 12618652 12426070 12289675 12241242 
1523.070 12280915 12382055 12505964 12621790 12714173 12790024 12870361 
1526.445 12979661 13130139 13316815 13522028 13727921 13926007 14120282 
1529.820 14323205 14546540 14793884 15057903 15323318 15575294 15810648 
1533.196 16042279 16296221 16594270 16943820 17332064 17735774 18129252 
1536.571 18493802 18822428 19116224 19382436 19626760 19849024 20041456 
1539.946 20194924 20310768 20403726 20494166 20597202 20712046 20823510 
1543.321 20908582 20949506 20941680 20898984 20846592 20811170 20808042 
1546.697 20835816 20880212 20923114 20953642 20972768 20995128 21040198 
1550.072 21124684 21252018 21413082 21591618 21774478 21958320 22149876 
1553.447 22362586 22608244 22889528 23197556 23515456 23823436 24105508 
1556.822 24349178 24544594 24684684 24769532 24814398 24848678 24909378 
1560.198 25021014 25185730 25389324 25607598 25814872 25986080 26104222 
1563.573 26164218 26174214 26154294 26128220 26114426 26117134 26126110 
1566.948 26122062 26086102 26006342 25883692 25731966 25574880 25437276 
1570.323 25335544 25276470 25258172 25274714 25318124 25378224 25441634 
1573.698 25489066 25498238 25450240 25338250 25176706 25000762 24853590 
1577.074 24763218 24732456 24741084 24760166 24762026 24727826 24650314 
1580.449 24531378 24377984 24197388 23994738 23772196 23531756 23277252 
1583.824 23015424 22753646 22497124 22245250 21992198 21729854 21452662 
1587.199 21162150 20868216 20585112 20328200 20108882 19932482 19800436 
1590.575 19713296 19673284 19683998 19746234 19854472 19992118 20134042 
1593.950 20253590 20327054 20342366 20300908 20215958 20106800 19992326 
1597.325 19889432 19811776 19771410 19783236 19863210 20027264 20288514 
1600.700 20653212 21121728 21690422 22353936 23105502 23934338 24822538 
1604.076 25739560 26640728 27475358 28186276 28720832 29039968 29120424 
1607.451 28960692 28578904 28011122 27301940 26496484 25640778 24775110 
1610.826 23934410 23149394 22440004 21814298 21267606 20784650 20343686 
1614.201 19921208 19497788 19061210 18610198 18157616 17728146 17351822 
1617.577 17053082 16845024 16726688 16686296 16704684 16760090 16832382 
1620.952 16905580 16973622 17041606 17125698 17245418 17415626 17640246 
1624.327 17912148 18218148 18546912 18893124 19256412 19637264 20032504 
1627.702 20431786 20819026 21178954 21501786 21787960 22045600 22285812 
1631.078 22516108 22736190 22937136 23103790 23218806 23265786 23233664 
1634.453 23120144 22935040 22699460 22441118 22186732 21952326 21741000 
1637.828 21544888 21350606 21141450 20902356 20624026 20305528 19956420 
1641.203 19593136 19234660 18894820 18576930 18273784 17969160 17643628 
1644.579 17278688 16864416 16403565 15914951 15428739 14979870 14597937 
1647.954 14298514 14082837 13940308 13853548 13799640 13749706 13669582 
1651.329 13518508 13258565 12876641 12409091 11941976 11563486 11315832 
1654.704 11184204 11126275 11098401 11070495 11027873 10966873 10891373 
1658.080 10807393 10719797 10629399 10533385 10427040 10306302 10169620 
1661.455 10018774 9858829 9697316 9543484 9405824 9291428 9203933 9143053 
1665.312 9103530 9076665 9050919 9013400 8953054 8863598 8745829 8608150 
1669.170 8463961 8328432 8212226 8119885 8050514 7999211 7959084 7921289 
1673.027 7876244 7813255 7724000 7605898 7467199 7325780 7202127 7110909 
1676.885 7054363 7023785 7004120 6981526 6948597 6906312 6863290 6830639 
1680.742 6815694 6816502 6820912 6808222 6757504 6655444 6508269 6343391 
1684.599 6199817 6106424 6068588 6071949 6095268 6121008 6137844 6141474 
1688.457 6132669 6114455 6090698 6065598 6044162 6031865 6034015 6053368 
1692.314 6087741 6129241 6163990 6175585 6150346 6084347 5988862 5890443 
1696.172 5819245 5791810 5805410 5840200 5869754 5867671 5816458 5715089 
1700.029 5584611 5461788 5378215 5346581 5357383 5391433 5427934 5452024 
1703.886 5454574 5432329 5388145 5329776 5268262 5213765 5173660 5150759 
1707.744 5143852 5149015 5160885 5174834 5187643 5198709 5209574 5222384 
1711.601 5239085 5259978 5283556 5307403 5329105 5347084 5360368 5368252 
1715.459 5368654 5358456 5335478 5300695 5261018 5229560 5221076 5245389 
1719.316 5304351 5392103 5498732 5613845 5729593 5842753 5954026 6067043 
1723.174 6185869 6313604 6450657 6595189 6744311 6895202 7045439 7191987 
1727.031 7330835 7456850 7563818 7647510 7706866 7745081 7767782 7780263 
1730.888 7783468 7772133 7733916 7653479 7520057 7336429 7126942 6930989 
1734.746 6788769 6721260 6724154 6777292 6855851 6940248 7015839 7076017 
1738.603 7120071 7151901 7177401 7202026 7229180 7259839 7292994 7326825 
1742.461 7359412 7388496 7411853 7427323 7433390 7429177 7414279 7388766 
1746.318 7352200 7303406 7240399 7160760 7062007 6942133 6800280 6636738 
1750.176 6454794 6260623 6063851 5875766 5706595 5561722 5441522 5340443 
1754.033 5248978 5156090 5052395 4933342 4800887 4663817 4534558 4423748 
1757.890 4335521 4266318 4206058 4143432 4068306 3976006 3868045 3751957 
1761.748 3638439 3536508 3452069 3386145 3336392 3298196 3267147 3238438 
1765.605 3207360 3169977 3123852 3069624 3012000 2958219 2915420 2887201 
1769.463 2871257 2859317 2841073 2806689 2752500 2683749 2613409 2556844 
1773.320 2523916 2516351 2527848 2549179 2572243 2593142 2611842 2630909 
1777.177 2651978 2674247 2694018 2706354 2707721 2697919 2680582 2662079 
1781.035 2648344 2641743 2640877 2641543 2639510 2632843 2622475 2612375 
1784.892 2606875 2608708 2618009 2632476 2649478 2667213 2685416 2703986 
1788.750 2722358 2737762 2745665 2740496 2718323 2678815 2627009 2572376 
1792.607 2524716 2491290 2473928 2470129 2474661 2482725 2490690 2496855 
1796.465 2500088 2499221 2493056 2480926 2462831 2440739 2417915 2398224 
1800.322 2384564 2378401 2378667 2383398 2390794 2400023 2411585 2426412 
1804.179 2444538 2465231 2486191 2505120 2520416 2532014 2540680 2547446 
1808.037 2552578 2555345 2553878 2547312 2536014 2522683 2511385 2505786 
1811.894 2507786 2516317 2528648 2540880 2550712 2557944 2564510 2573676 
1815.752 2588075 2608575 2634609 2664346 2695918 2728693 2763071 2799952 
1819.609 2839672 2881730 2924627 2966760 3006995 3044965 3080570 3113607 
1823.467 3143176 3168341 3188835 3206259 3224418 3247618 3279399 3320064 
1827.324 3366911 3414063 3455208 3486437 3508315 3526186 3548133 3581540 
1831.181 3629384 3689530 3756168 3822649 3884794 3940963 3992759 4043590 
1835.039 4096569 4153568 4215092 4281074 4352589 4431915 4522672 4628184 
1838.896 4749833 4886561 5035199 5191197 5350439 5509839 5667217 5821629 
1842.754 5972603 6120504 6267044 6414910 6567402 6726240 6889682 7051971 
1846.611 7204384 7336159 7437604 7502426 7528216 7517326 7473974 7403089 
1850.469 7308157 7190539 7051096 6891903 6717323 6533933 6349242 6168527 
1854.326 5994540 5826465 5662450 5501417 5344770 5196395 5060675 4940112 
1858.183 4833419 4735630 4640508 4542895 4440920 4336860 4235100 4140321 
1862.041 4054493 3977176 3906224 3839931 3778461 3724218 3679572 3645389 
1865.898 3618926 3594570 3565404 3526787 3478421 3425985 3378298 3343938 
1869.756 3327710 3329246 3343904 3365909 3390820 3416033 3440045 3461521 
1873.613 3476918 3481894 3472275 3445890 3404178 3351685 3295191 3239973 
1877.470 3189069 3142208 3097455 3053140 3009564 2968528 2932733 2903645 
1881.328 2879496 2856281 2828500 2792416 2747232 2695851 2642977 2593275 
1885.185 2549312 2510852 2475927 2442838 2410885 2381932 2358012 2340788 
1889.043 2329829 2323000 2317803 2313772 2312673 2317670 2331927 2355713 
1892.900 2386197 2417782 2445071 2464364 2476194 2484092 2492823 2505420 
1896.758 2521316 2537214 2549245 2555278 2556411 2556511 2559278 2566777 
1900.615 2576576 2584309 2584242 2573543 2554011 2531215 2511785 2500454 
1904.472 2497588 2499754 2500987 2496888 2486524 2473162 2461932 2457433 
1908.330 2461199 2471662 2484992 2497821 2509452 2521216 2535847 2555611 
1912.187 2580342 2607842 2636010 2662679 2688183 2713322 2738129 2759770 
1916.045 2772541 2769740 2746432 2703553 2647777 2590975 2543846 2512918 
1919.902 2496888 2489590 2482026 2467397 2444471 2416916 2391694 2374936 
1923.760 2369572 2373903 2384464 2397391 2411318 2426778 2444971 2465697 
1927.617 2486124 2501721 2508552 2505920 2497488 2489324 2487757 2495689 
1931.474 2511885 2530815 2547046 2556944 2561744 2565810 2573609 2586909 
1935.332 2603342 2617242 2623709 2620842 2611675 2603442 2602975 2612875 
1939.189 2630209 2647977 2657478 2654078 2638910 2618775 2603442 2599475 
1943.047 2608442 2626609 2647711 2666880 2684049 2702286 2726359 2758736 
1946.904 2798085 2838805 2874959 2903378 2924293 2941639 2959754 2980505 
1950.761 3001390 3017872 3025179 3022543 3014435 3008730 3011966 3026213 
1954.619 3047201 3066321 3073929 3064786 3040060 3006695 2974299 2950079 
1958.476 2936302 2929897 2925794 2920390 2914152 2910249 2912384 2921558 
1962.334 2934234 2944041 2945976 2938771 2926795 2917221 2915954 2923926 
1966.191 2935268 2940472 2930331 2901944 2859717 2813959 2774709 2748399 
1970.049 2734761 2729760 2728226 2728426 2732961 2747665 2776676 2818861 
1973.906 2868289 2916721 2960488 3003058 3055076 3129593 3233898 3363371 
1977.763 3500800 3621833 3704300 3736583 3719907 3666373 3592298 3512324 
1981.621 3433967 3359765 3289549 3223783 3165671 3120415 3091815 3079535 
1985.478 3078968 3082371 3082905 3078000 3069858 3063451 3062450 3066421 
1989.336 3071026 3070158 3060748 3045666 3033153 3035189 3060248 3109702 
1993.193 3175818 3245915 3307945 3353922 3383039 3399937 3410723 3418471 
1997.051 3422312 3417402 3399736 3368514 3327310 3282771 3241208 3206092 
2000.908 3175217 3144544 3109669 3069991 3029216 2994584 2972398 2965992 
2004.765 2974599 2994083 3020641 3053541 3094518 3145979 3206259 3269251 
2008.623 3323704 3358930 3368981 3356726 3332385 3310048 3301835 3312185 
2012.480 3338362 3371719 3404245 3431462 3454440 3478354 3508115 3544693 
2016.338 3585683 3625475 3660291 3689363 3715696 3744003 3775753 3808710 
2020.195 3837725 3858117 3870118 3879378 3896228 3929695 3983697 4052186 
2024.052 4122158 4178658 4211746 4220478 4212917 4202010 4199802 4210742 
2027.910 4231988 4255209 4272776 4281074 4282982 4284621 4293121 4313634 
2031.767 4345595 4388401 4441489 4506903 4587831 4685453 4795192 4906667 
2035.625 5006640 5082934 5130508 5152536 5159678 5163701 5173425 5190493 
2039.482 5210580 5228085 5238682 5243779 5249582 5264405 5292813 5333633 
2043.340 5379389 5420520 5449810 5465110 5470680 5474405 5485041 5508228 
2047.197 5545982 5596325 5655938 5720293 5784759 5843559 5890376 5918891 
2051.054 5926180 5914290 5891887 5871131 5865825 5885136 5930043 5992356 
2054.912 6059281 6116539 6156496 6178643 6190440 6202204 6222135 6253228 
2058.769 6292828 6335120 6374122 6406605 6432565 6453852 6470600 6481564 
2062.627 6482775 6470331 6443326 6404452 6359766 6316092 6278238 6246740 
2066.484 6219211 6191717 6161940 6131157 6103165 6082432 6071109 6067715 
2070.342 6067312 6063851 6053502 6035997 6015167 5996992 5985738 5983790 
2074.199 5989803 6000990 6014428 6029479 6046984 6068252 6093823 6121714 
2078.056 6148800 6171653 6189163 6202775 6215413 6230908 6251211 6275246 
2081.914 6300324 6323589 6343357 6360808 6378460 6399207 6423216 6448034 
2085.771 6469154 6481766 6482977 6473560 6456913 6437205 6417399 6397660 
2089.629 6375770 6349208 6316730 6280053 6243513 6213430 6195045 6191314 
2093.486 6202338 6226034 6258774 6297366 6338651 6379503 6416491 6445579 
2097.344 6464446 6472517 6473055 6471744 6475645 6490040 6516577 6552871 
2101.201 6593338 6631893 6664596 6691413 6715674 6742091 6775273 6817377 
2105.058 6868238 6926040 6988126 7052982 7119363 7185856 7251820 7314929 
2108.916 7373735 7427289 7476536 7523563 7570798 7619926 7670577 7720931 
2112.773 7768592 7811737 7850130 7885320 7919029 7952572 7986049 8017808 
2116.631 8046532 8071915 8095680 8120795 8150370 8185248 8224382 8264094 
2120.488 8301379 8334512 8365654 8398996 8440244 8493322 8558404 8631978 
2124.345 8708675 8783425 8853758 8920043 8984884 9051223 9120042 9189888 
2128.203 9258594 9323891 9386051 9447270 9511139 9580100 9654017 9730726 
2132.060 9806024 9876861 9943066 10007348 10073707 10145674 10223419 
2135.436 10304367 10383431 10456263 10520180 10575686 10624815 10668856 
2138.811 10707366 10738035 10757462 10764119 10759364 10746662 10731072 
2142.186 10716027 10701424 10684613 10661148 10627871 10584411 10533012 
2145.561 10477239 10418760 10356859 10287742 10207577 10114912 10012162 
2148.937 9905505 9801483 9704330 9613297 9522993 9425971 9316037 9191783 
2152.794 9055621 8912467 8766351 8617310 8462407 8298576 8127581 7959995 
2156.651 7813794 7711824 7672162 7701807 7790889 7917477 8054869 8178967 
2160.509 8277333 8347043 8392814 8419501 8431223 8428487 8410481 8376092 
2164.366 8326440 8263656 8189974 8107529 8016796 7918961 7816797 7714927 
2168.224 7618509 7532497 7457221 7389103 7321265 7246328 7160221 7063254 
2172.081 6961021 6861910 6773220 6699085 6639732 6591791 6551659 6516106 
2175.938 6483683 6452036 6417970 6376577 6321437 6248992 6160663 6063851 
2179.796 5970117 5891114 5834894 5803093 5790467 5787814 5786371 5780964 
2183.653 5771126 5758468 5745776 5732783 5717607 5697766 5672722 5644391 
2187.511 5618443 5600923 5594780 5600050 5612033 5624552 5632474 5632508 
2191.368 5624955 5610958 5590955 5564574 5530712 5489840 5445784 5405858 
2195.226 5377711 5368185 5378751 5405020 5438503 5469572 5493397 5508933 
2199.083 5520544 5533867 5551385 5571387 5588068 5593707 5584611 5561956 
2202.940 5532021 5504638 5487088 5482457 5488430 5498933 5506987 5508900 
2206.798 5504135 5495981 5486820 5478263 5470009 5460111 5447696 5434745 
2210.655 5425384 5424915 5437060 5461889 5495410 5531551 5564373 5589914 
2214.513 5608005 5619585 5627271 5632441 5635260 5635495 5633448 5631199 
2218.370 5631736 5637878 5650399 5667754 5685513 5699310 5705387 5703272 
2222.228 5694476 5681954 5668191 5653823 5638382 5621129 5602097 5582933 
2226.085 5565715 5552526 5543129 5535545 5526685 5514168 5498497 5482827 
2229.942 5472324 5471317 5481015 5498699 5518665 5534270 5541216 5539773 
2233.800 5533464 5527692 5528162 5537860 5557157 5584510 5618309 5657616 
2237.657 5702500 5753028 5807828 5864548 5918488 5966220 6004988 6034788 
2241.515 6057265 6075107 6090127 6103097 6113346 6120739 6125914 6131459 
2245.372 6140633 6156496 6179887 6209262 6240858 6271111 6297097 6318176 
2249.229 6335423 6350620 6365246 6379570 6393457 6406066 6418206 6431018 
2253.087 6446184 6464379 6484019 6501677 6513819 6517889 6513415 6502686 
2256.944 6489569 6477192 6466666 6456240 6442418 6422308 6394297 6360370 
2260.802 6324060 6290441 6263346 6244522 6233833 6229463 6230303 6235379 
2264.659 6244824 6258270 6274876 6292256 6308157 6320496 6329405 6336062 
2268.517 6342685 6351225 6361346 6371265 6378225 6379738 6375165 6365851 
2272.374 6354823 6344938 6337777 6333305 6329842 6325908 6320798 6315453 
2276.231 6311956 6312528 6318008 6327892 6340198 6353007 6364910 6375636 
2280.089 6385925 6396516 6407344 6417634 6426276 6432565 6436836 6440871 
2283.946 6446555 6455063 6466027 6477596 6487282 6492696 6493168 6489670 
2287.804 6484154 6478672 6474165 6469692 6463874 6455298 6443427 6429538 
2291.661 6415650 6404419 6397391 6394869 6395912 6399240 6403981 6409530 
2295.519 6416188 6424057 6432195 6439459 6443864 6444032 6439391 6430883 
2299.376 6420156 6408689 6397626 6387236 6376611 6365616 6354016 6342921 
2303.233 6333439 6326514 6322008 6318714 6314948 6308729 6299786 6288289 
2307.091 6275952 6264354 6254572 6246707 6240387 6235076 6231043 6229228 
2310.948 6230975 6237362 6247984 6261396 6274674 6285297 6291012 6290945 
2314.806 6285734 6276153 6262942 6246639 6227009 6203850 6177602 6149404 
2318.663 6121075 6094764 6072150 6054006 6040533 6030924 6023566 6016578 
2322.521 6006970 5991348 5966053 5927692 5874691 5807962 5730734 5648150 
2326.378 5566554 5491652 5426861 5374022 5332425 5300795 5277284 5260917 
2330.235 5251191 5248072 5250789 5258301 5268899 5281040 5294121 5308275 
2334.093 5324073 5341784 5361072 5380898 5399517 5415688 5429242 5441086 
2337.950 5453333 5467761 5485545 5507323 5532558 5560748 5591458 5624586 
2341.808 5660067 5697229 5735301 5773174 5811286 5851954 5900183 5962324 
2345.665 6043691 6147355 6271346 6409295 6550818 6685053 6801390 6891196 
2349.522 6948699 6971560 6960617 6919441 6854167 6772547 6682395 6591051 
2353.380 6503627 6423216 6350889 6286575 6229328 6179080 6135559 6099468 
2357.237 6071243 6050982 6039088 6035426 6039962 6052696 6073326 6100880 
2361.095 6133543 6168561 6203548 6237194 6269800 6303922 6343459 6392313 
2364.952 6452843 6524986 6605921 6691816 6778605 6863290 6945533 7025738 
2368.810 7105083 7184475 7263916 7343101 7422200 7502257 7585229 7673983 
2372.667 7770581 7875130 7986386 8101655 8217797 8332857 8445717 8556748 
2376.524 8667232 8777948 8889503 9001493 9113580 9225120 9336147 9446559 
2380.382 9556423 9664655 9770067 9870489 9964288 10050885 10130445 10204286 
2384.239 10274205 10341454 10406881 10470552 10532095 10591303 10647905 
2387.615 10702238 10754406 10804438 10851895 10896130 10937106 10975063 
2390.990 11011119 11046533 11082663 11119918 11157720 11195084 11230988 
2394.365 11264924 11297434 11329980 11364365 11401985 11443588 11489243 
2397.740 11538442 11590710 11645536 11702956 11763141 11826127 11891914 
2401.115 11960401 12031591 12105450 12182388 12262509 12345680 12431253 
2404.491 12518275 12606065 12694486 12784053 12876094 12971809 13071983 
2407.866 13176791 13285622 13397795 13512800 13631082 13753502 13880540 
2411.241 14012269 14147084 14282421 14414854 14541229 14659587 14768858 
2414.616 14869140 14960801 15044250 15119412 15186421 15245580 15297678 
2417.992 15344565 15388298 15430387 15472137 15513891 15555959 15598648 
2421.367 15642889 15689777 15740829 15797041 15858656 15925160 15996108 
2424.742 16070884 16150247 16235715 16329350 16432676 16547007 16672146 
2428.117 16807618 16952674 17106914 17270274 17442598 17623992 17813648 
2431.493 18010464 18213140 18420610 18632540 18849348 19071700 19300088 
2434.868 19534662 19774912 20020638 20271190 20527028 20788508 21055780 
2438.243 21328540 21606070 21886704 22169018 22451796 22734374 23016298 
2441.618 23297286 23576146 23851160 24120990 24384608 24641864 24894254 
2444.994 25143736 25392522 25642010 25891642 26140466 26386404 26627412 
2448.369 26862030 27089864 27310584 27524460 27731132 27930588 28122852 
2451.744 28308412 28488708 28665222 28840038 29014708 29190374 29367740 
2455.119 29547058 29728686 29912698 30099130 30287598 30477104 30666198 
2458.495 30853276 31037016 31216384 31390768 31559664 31722102 31876900 
2461.870 32022480 32157760 32282874 32399204 32510106 32619678 32732918 
2465.245 32854662 32989380 33140800 33311918 33505506 33722852 33964916 
2468.620 34231644 34522280 34836088 35172612 35531984 35914788 36321024 
2471.996 36750288 37199572 37664896 38140852 38621600 39103032 39581616 
2475.371 40055392 40522004 40978524 41420728 41843132 42240092 42606236 
2478.746 42937864 43232484 43488812 43706044 43883760 44021428 44119344 
2482.121 44179024 44202976 44194576 44157384 44095212 44010540 43906156 
2485.497 43784944 43649656 43503900 43350764 43192004 43027928 42856780 
2488.872 42675900 42481836 42272156 42045528 41801940 41541608 41265076 
2492.247 40971532 40659776 40328132 39974952 39599292 39200932 38779968 
2495.622 38336896 37872080 37385980 36879652 36354780 35814424 35261404 
2498.998 34699540 34131556 33559984 32986232 32411702 31837892 31267122 
2502.373 30701970 30145546 29600474 29068626 28551478 28049858 27564848 
2505.748 27097798 26650486 26224154 25819866 25437312 25075316 24732034 
2509.123 24405706 24095666 23802122 23526054 23268654 23030902 22812870 
2512.499 22614284 22434490 22273116 22130142 22005618 21899458 21810710 
2515.874 21738004 21679346 21632954 21597502 21572744 21558502 21554950 
2519.249 21561706 21578176 21603528 21637342 21679868 21731594 21793324 
2522.624 21865412 21946576 22034864 22127108 22220316 22311588 22399112 
2526.000 22481666 22557742 22625524 22682844 22727078 22755986 22768138 
2529.375 22763354 22742334 22706060 22655578 22591700 22514780 22425874 
2532.750 22326168 22217454 22101934 21981916 21858968 21734590 21609484 
2536.125 21484970 21362300 21243458 21130076 21023576 20924366 20832098 
2539.500 20745306 20662978 20583654 20506810 20431892 20358338 20285424 
2542.876 20212104 20137514 20061514 19984450 19907782 19833140 19761942 
2546.251 19694504 19630260 19568248 19506868 19445564 19384374 19323646 
2549.626 19264170 19206294 19149710 19094100 19038950 18984290 18930466 
2553.001 18878866 18830282 18785508 18745030 18708394 18675672 18646826 
2556.377 18621750 18600514 18582462 18566312 18550094 18531386 18508080 
2559.752 18479212 18444154 18403328 18357458 18307306 18253534 18197142 
2563.127 18139272 18081788 18026488 17975064 17928548 17886804 17848792 
2566.502 17813578 17780336 17749338 17721486 17699120 17683764 17676412 
2569.878 17677412 17685626 17699776 17718378 17740226 17763974 17788480 
2573.253 17812646 17835292 17856178 17875202 17893848 17913976 17937562 
2576.628 17965844 17999102 18036506 18076364 18117194 18158238 18199768 
2580.003 18242958 18288712 18338274 18391990 18449442 18510190 18573748 
2583.379 18639770 18708464 18779730 18853190 18928494 19004954 19082224 
2586.754 19159856 19238158 19317340 19397922 19480184 19564434 19651060 
2590.129 19740374 19832898 19928630 20027264 20127380 20226996 20323860 
2593.504 20415950 20502260 20582890 20658912 20731784 20802272 20870582 
2596.880 20936360 20998570 21056614 21110492 21161384 21210892 21261240 
2600.255 21314064 21370688 21431880 21498164 21569540 21646536 21729086 
2603.630 21817538 21911514 22010846 22114764 22223174 22335412 22451378 
2607.005 22570726 22693212 22818842 22947930 23081286 23220274 23365882 
2610.381 23518918 23679146 23845070 24014556 24184986 24354328 24521420 
2613.756 24685876 24848046 25008028 25165506 25319528 25469004 25613118 
2617.131 25752076 25886788 26018550 26148700 26277552 26404292 26527160 
2620.506 26644214 26753902 26855756 26950336 27039048 27123508 27205236 
2623.882 27285214 27363832 27441156 27516728 27590022 27660288 27726504 
2627.257 27787716 27843532 27894016 27940304 27983806 28026496 28069724 
2630.632 28113980 28158804 28203282 28245784 28285390 28321604 28354602 
2634.007 28384560 28411940 28436206 28457398 28474946 28488850 28499498 
2637.383 28508168 28516164 28524974 28535624 28549142 28566022 28586440 
2640.758 28610646 28638570 28670390 28706000 28745186 28788060 28835184 
2644.133 28887098 28944968 29009290 29080390 29157878 29240202 29326192 
2647.508 29414042 29502692 29591784 29681462 29772224 29864354 29958206 
2650.884 30053854 30151122 30249976 30350590 30452722 30556300 30661290 
2654.259 30766874 30872984 30979544 31086808 31195556 31306826 31421042 
2657.634 31538676 31659372 31782490 31907066 32032360 32157864 32283406 
2661.009 32408882 32534636 32660290 32786156 32912094 33037998 33163830 
2664.385 33289700 33415392 33540796 33665808 33790644 33915084 34039880 
2667.760 34165072 34290624 34416568 34542332 34667708 34792684 34917588 
2671.135 35043824 35172612 35305320 35443064 35585960 35733832 35886036 
2674.510 36042176 36202052 36365624 36532612 36703052 36876368 37051744 
2677.885 37228416 37405952 37584396 37764284 37946200 38130760 38318656 
2681.261 38510072 38705340 38904720 39108756 39318228 39533600 39755144 
2684.636 39982580 40215440 40453080 40694888 40940876 41191192 41446136 
2688.011 41706224 41971648 42242388 42518340 42799440 43085660 43376648 
2691.386 43672228 43971928 44274956 44581280 44890688 45204100 45522632 
2694.762 45847808 46180744 46521904 46870856 47226740 47588132 47954080 
2698.137 48323668 48696648 49073136 49453072 49836796 50223876 50614724 
2701.512 51008752 51405716 51805020 52205216 52604992 53002408 53396064 
2704.887 53784828 54168648 54548036 54923656 55296216 55665516 56030984 
2708.263 56391516 56746268 57094808 57437468 57774720 58107420 58436324 
2711.638 58761756 59083788 59402336 59717848 60029976 60338752 60643480 
2715.013 60943004 61235028 61517060 61786512 62041268 62279840 62501548 
2718.388 62706576 62895492 63069700 63231648 63384212 63531084 63677116 
2721.764 63826852 63985004 64155356 64341256 64544880 64767444 65009520 
2725.139 65271056 65551520 65850252 66166088 66498444 66846408 67209648 
2728.514 67587208 67978120 68380520 68791432 69208184 69627312 70046616 
2731.889 70464456 70879808 71292360 71701280 72105024 72501400 72887160 
2735.265 73259256 73615264 73953456 74272960 74573584 74855632 75119704 
2738.640 75366840 75599200 75819968 76032840 76242488 76453320 76669384 
2742.015 76893784 77128984 77377096 77639904 77919504 78217472 78534920 
2745.390 78871800 79227160 79598488 79982792 80376216 80773664 81170328 
2748.766 81559712 81934952 82288664 82613960 82904856 83157616 83370336 
2752.141 83542552 83675232 83769376 83825592 83844320 83824944 83767008 
2755.516 83669048 83529464 83346248 83117048 82839168 82510696 82130272 
2758.891 81697896 81214864 80683528 80106936 79488496 78832312 78143488 
2762.267 77427552 76691400 75942648 75188968 74438552 73698144 72974088 
2765.642 72272176 71597800 70956472 70353680 69794600 69283848 68824744 
2769.017 68419144 68066984 67766880 67516144 67311928 67150632 67029132 
2772.392 66943692 66891044 66867352 66868512 66889732 66926644 66973380 
2775.768 67024300 67073792 67115976 67145288 67157088 67147296 67112576 
2779.143 67050704 66960276 66841380 66695512 66525824 66337212 66135488 
2782.518 65927336 65718904 65514916 65318888 65132184 64954868 64785404 
2785.893 64621808 64460888 64298832 64131460 63953712 63760572 63548036 
2789.269 63312756 63053308 62770008 62464516 62140008 61800344 61450412 
2792.644 61095228 60740604 60392932 60058132 59742448 59451388 59189072 
2796.019 58959328 58765132 58608716 58492352 58417676 58385944 58397736 
2799.394 58452356 58548504 58684260 58857476 59065908 59307408 59580056 
2802.770 59881244 60207496 60555060 60919368 61296152 61681516 62072648 
2806.145 62466316 62860416 63252032 63637412 64011732 64369804 64705364 
2809.520 65012440 65284924 65517268 65705024 65844120 65932080 65967680 
2812.895 65950788 65882640 65765852 65603816 65401196 65163828 64898848 
2816.271 64614156 64318732 64022364 63734136 63462972 63217424 63004308 
2819.646 62830204 62700452 62619112 62588720 62609656 62680468 62797076 
2823.021 62953860 63144116 63360140 63594640 63839896 64088292 64332528 
2826.396 64565136 64778596 64966648 65124100 65247296 65334944 65387212 
2829.771 65406240 65395728 65360172 65305560 65237596 65162516 65085688 
2833.147 65010904 64940824 64876728 64818828 64767480 64723208 64687484 
2836.522 64662336 64650416 64654456 64677336 64722636 64794092 64897620 
2839.897 65039500 65227740 65471112 65778272 66158296 66620068 67172592 
2843.272 67825752 68589648 69473552 70484608 71625080 72889160 74259320 
2846.648 75704224 77179400 78622272 79961928 81122872 82029120 82619688 
2850.023 82854120 82718608 82228352 81425872 80375464 79148112 77818696 
2853.398 76456720 75115568 73837344 72649736 71566504 70592416 69723784 
2856.773 68951792 68263600 67644624 67080944 66559000 66067704 65598496 
2860.149 65144388 64699368 64258224 63815376 63365504 62904032 62427444 
2863.524 61934216 61424988 60902972 60372524 59840552 59315572 58806784 
2866.899 58324436 57879496 57481152 57138348 56857256 56641424 56491280 
2870.274 56404080 56373368 56389552 56440752 56513204 56592428 56665584 
2873.650 56722628 56756612 56764692 56747136 56706356 56645312 56566496 
2877.025 56471884 56362504 56239724 56105364 55961968 55813036 55662088 
2880.400 55512172 55366144 55225808 55092668 54968364 54854324 54752380 
2883.775 54663764 54589100 54528464 54481280 54446688 54424040 54413600 
2887.151 54415176 54429524 54456940 54497620 54551076 54616416 54692924 
2890.526 54780192 54877820 54986680 55108088 55244508 55399116 55576332 
2893.901 55780748 56016996 56289624 56601672 56954444 57346596 57774340 
2897.276 58230768 58705388 59185388 59655772 60100940 60506800 60863252 
2900.652 61165792 61415868 61622284 61798088 61958676 62120204 62297468 
2904.027 62501976 62743864 63031280 63371524 63771972 64240240 64783864 
2907.402 65411560 66132516 66957488 67898968 68968568 70176872 71528256 
2910.777 73017600 74626304 76319160 78048488 79751376 81356504 82795736 
2914.153 84003384 84927624 85536800 85819160 85785496 85463944 84898744 
2917.528 84140096 83238120 82241768 81190856 80116696 79043840 77988536 
2920.903 76962176 75972136 75022504 74115104 73250272 72427672 71646880 
2924.278 70907984 70211888 69559680 68952296 68389360 67868672 67385680 
2927.654 66934256 66506208 66093160 65687412 65281764 64870916 64451584 
2931.029 64022748 63585624 63143692 62702744 62269440 61851456 61456136 
2934.404 61089700 60757140 60461704 60204908 59987368 59808344 59666568 
2937.779 59560788 59489268 59450892 59445000 59471372 59530004 59620760 
2941.155 59742676 59893720 60069624 60264780 60471648 60680512 60880752 
2944.530 61060216 61205388 61303784 61343316 61315536 61216640 61049464 
2947.905 60823040 60552012 60255572 59954728 59668312 59412896 59200160 
2951.280 59036300 58922740 58857248 58834556 58847608 58888780 58950672 
2954.656 59025936 59108656 59194084 59278464 59359672 59436836 59510168 
2958.031 59581044 59651548 59724504 59802256 59886644 59978504 60077536 
2961.406 60182340 60291048 60401728 60513044 60624124 60734544 60844384 
2964.781 60953184 61060484 61165640 61268184 61367740 61464380 61558980 
2968.156 61652260 61745680 61840572 61938880 62043368 62156788 62282404 
2971.532 62422968 62580072 62753508 62941372 63139936 63344112 63548416 
2974.907 63747488 63936128 64109608 64263604 64394168 64497784 64571864 
2978.282 64615040 64626916 64608924 64563328 64493440 64403392 64297908 
2981.657 64181856 64060412 63937976 63817448 63699908 63583516 63463888 
2985.033 63333912 63184960 63008672 62797004 62544672 62249132 61910948 
2988.408 61533400 61121656 60681768 60219676 59740128 59246832 58742260 
2991.783 58228264 57707392 57182564 56658032 56138544 55628040 55128704 
2995.158 54640164 54158852 53678860 53192804 52694280 52178088 51642060 
2998.534 51086976 50516108 49934064 49346188 48757884 48173632 47597304 
3001.909 47031852 46479492 45941644 45419068 44912180 44420640 43944248 
3005.284 43482952 43036632 42605536 42189548 41788332 41400936 41026120 
3008.659 40662216 40307956 39962268 39624772 39294972 38972924 38658360 
3012.035 38350796 38049336 37753188 37461680 37174088 36890112 36609640 
3015.410 36332984 36060540 35793156 35532124 35278760 35033876 34798072 
3018.785 34570964 34351616 34138692 33930952 33728256 33531134 33341364 
3022.160 33160758 32991558 32835576 32693904 32567530 32457508 32365504 
3025.536 32293368 32242614 32214138 32206930 32217886 32241616 32270736 
3028.911 32296970 32311250 32305182 32271560 32205108 32102636 31964094 
3032.286 31791904 31591058 31367798 31129058 30881058 30628578 30374648 
3035.661 30120970 29868222 29616934 29368060 29122870 28883202 28650392 
3039.037 28425312 28207844 27997270 27792414 27592210 27395804 27203224 
3042.412 27014718 26830942 26652846 26481164 26316908 26160278 26011690 
3045.787 25871030 25737802 25611288 25490754 25375412 25264810 25158730 
3049.162 25056710 24958822 24864500 24773320 24684790 24598662 24515110 
3052.538 24434378 24357236 24283962 24214904 24149712 24088312 24030070 
3055.913 23974920 23922994 23874404 23829388 23787980 23750010 23715224 
3059.288 23683452 23655142 23630932 23611550 23597834 23590348 23589090 
3062.663 23593918 23604868 23621974 23645698 23676522 23714628 23759492 
3066.039 23809612 23863062 23916450 23966936 24011440 24046914 24070870 
3069.414 24081306 24076508 24055636 24018970 23967706 23904334 23832082 
3072.789 23754698 23675088 23596192 23519652 23446486 23377176 23311690 
3076.164 23249742 23190740 23133774 23077792 23021468 22963580 22903744 
3079.540 22841856 22778648 22715172 22652612 22591876 22533346 22477374 
3082.915 22423814 22372494 22323552 22277092 22233218 22191964 22153678 
3086.290 22118356 22086282 22057486 22032352 22010670 21992198 21976374 
3089.665 21962432 21949850 21938174 21927616 21918694 21912142 21908518 
3093.041 21908344 21911654 21917996 21927094 21938454 21951698 21967172 
3096.416 21984948 22005302 22028170 22053408 22080598 22108838 22137568 
3099.791 22166264 22194612 22222930 22251352 22280614 22311066 22342878 
3103.166 22375878 22409614 22443456 22476954 22509826 22542210 22574390 
3106.542 22606570 22638892 22671044 22702882 22733990 22764332 22794466 
3109.917 22825232 22857572 22892288 22929696 22969588 23011268 23053996 
3113.292 23096940 23139434 23181094 23221570 23260682 23298438 23334660 
3116.667 23369902 23404590 23439456 23474568 23509790 23544102 23576042 
3120.042 23604168 23627188 23645032 23658468 23669106 23678868 23689574 
3123.418 23702346 23717464 23734400 23752528 23771568 23791342 23812308 
3126.793 23835268 23860962 23889912 23921980 23956712 23993232 24030210 
3130.168 24066562 24101446 24134720 24166280 24197038 24228218 24260592 
3133.543 24295176 24332110 24371326 24412402 24454920 24498528 24543474 
3136.919 24589686 24637304 24685772 24734208 24781494 24826434 24868466 
3140.294 24907764 24945242 24982406 25020452 25060362 25102626 25147144 
3143.669 25193560 25242020 25292344 25344994 25400004 25457128 25515948 
3147.044 25575442 25634874 25693962 25752602 25811252 25870610 25930822 
3150.420 25991498 26051936 26110908 26167634 26221902 26273960 26325004 
3153.795 26376334 26428870 26483242 26539064 26595812 26652706 26709292 
3157.170 26765814 26823012 26882156 26944448 27010592 27080166 27151902 
3160.545 27223580 27293328 27359560 27421990 27481922 27541546 27603368 
3163.921 27669610 27740986 27817106 27896454 27976630 28056186 28134200 
3167.296 28210566 28286026 28361110 28436100 28510468 28583254 28654038 
3170.671 28722530 28789334 28855972 28923964 28994234 29067458 29142854 
3174.046 29219398 29295814 29371000 29444254 29515600 29585504 29654428 
3177.422 29723506 29793586 29865774 29940740 30018596 30099024 30180992 
3180.797 30262728 30342704 30419992 30494594 30567642 30640846 30716090 
3184.172 30794796 30877430 30963460 31051608 31140734 31229736 31317864 
3187.547 31405122 31491648 31577944 31664256 31751298 31839638 31930174 
3190.923 32023620 32120474 32220882 32324706 32431122 32539674 32649432 
3194.298 32759644 32869708 32978866 33086266 33191442 33294566 33396140 
3197.673 33497776 33600972 33707488 33817756 33931636 34047764 34164680 
3201.048 34280548 34394760 34507464 34619404 34731664 34845136 34960036 
3204.424 35076404 35194168 35312688 35431884 35551076 35669724 35786612 
3207.799 35900360 36010064 36116024 36219196 36321636 36425688 36533260 
3211.174 36644860 36759804 36876624 36993508 37109336 37224192 37338892 
3214.549 37454748 37572836 37693120 37815036 37937016 38058052 38177064 
3217.925 38294264 38409936 38525244 38640544 38756672 38873952 38992896 
3221.300 39114052 39237924 39364660 39493716 39624192 39754456 39883084 
3224.675 40009064 40131952 40252300 40371112 40489632 40608620 40728444 
3228.050 40848876 40969020 41087996 41204704 41317912 41426852 41531512 
3231.426 41632040 41729640 41826388 41924244 42024500 42128028 42233992 
3234.801 42341148 42447348 42551012 42651372 42748800 42844272 42939472 
3238.176 43036048 43135024 43237280 43343548 43454060 43568844 43687836 
3241.551 43809752 43932880 44055240 44174988 44291540 44405520 44518940 
3244.927 44634704 44755420 44882272 45015224 45152260 45290956 45428628 
3248.302 45563736 45695976 45826120 45955788 46086340 46219220 46354976 
3251.677 46493912 46635876 46780588 46927668 47076424 47226672 47377928 
3255.052 47530204 47683528 47838316 47994748 48153124 48313484 48475608 
3258.427 48639200 48804076 48970392 49138136 49307400 49477728 49648536 
3261.803 49818812 49987816 50154956 50320708 50485668 50651320 50818640 
3265.178 50988668 51161712 51337616 51516464 51698004 51882304 52069412 
3268.553 52259364 52452316 52647708 52845360 53044524 53244680 53444628 
3271.928 53644068 53841536 54036616 54229120 54419608 54609576 54801356 
3275.304 54996984 55198156 55405928 55620284 55840392 56065516 56295396 
3278.679 56529548 56768244 57011228 57257788 57506760 57757232 58008268 
3282.054 58260360 58514492 58772416 59035728 59305472 59581688 59863712 
3285.429 60150676 60442052 60737744 61038556 61345224 61657724 61975988 
3288.805 62299304 62626764 62958152 63293972 63635572 63984388 64341672 
3292.180 64707980 65083220 65466680 65857268 66254340 66656916 67064240 
3295.555 67475656 67890408 68308032 68728936 69153752 69584064 70021472 
3298.930 70466880 70920264 71381312 71848840 72322144 72801184 73287304 
3302.306 73782248 74288104 74806272 75337000 75880144 76434280 76997976 
3305.681 77570136 78150144 78737648 79332984 79937072 80551248 81177832 
3309.056 81819168 82477112 83152600 83844920 84551440 85268896 85994016 
3312.431 86724952 87461496 88205264 88958640 89723632 90501440 91291608 
3315.807 92093368 92905688 93727784 94559312 95400736 96251272 97109656 
3319.182 97974464 98844040 99718072 100597456 101483608 102377944 103280640 
3322.557 104190104 105103072 106016032 106926328 107832720 108735432 
3325.450 109635032 110531168 111422120 112303920 113172344 114023632 
3328.343 114855176 115666312 116457000 117226944 117974480 118696872 
3331.236 119390496 120052632 120681752 121277664 121840512 122369456 
3334.129 122862272 123315288 123724808 124088376 124406272 124680992 
3337.022 124916560 125115928 125279976 125406576 125491592 125529584 
3339.916 125516536 125449480 125328304 125153360 124925744 124646504 
3342.809 124315384 123932720 123498296 123011880 122472936 121880304 
3345.702 121232800 120529192 119769352 118955184 118091008 117182376 
3348.595 116235320 115254984 114244824 113206360 112140160 111046664 
3351.488 109927488 108785704 107624656 106448200 105259696 104062040 
3354.381 102857608 101649424 100440424 99235032 98037496 96851080 95678720 
3357.756 94521872 93381528 92258680 91154912 90072000 89012120 87976768 
3361.131 86966472 85980400 85017208 84074952 83152432 82248848 81364288 
3364.507 80499232 79654128 78830048 78027752 77248072 76492552 75761816 
3367.882 75056648 74376328 73719416 73083576 72466120 71864712 71277376 
3371.257 70702792 70139992 69587296 69042640 68503632 67968048 67434320 
3374.632 66902140 66372692 65847896 65329864 64820216 64319776 63828848 
3378.008 63346944 62873660 62408432 61949888 61496560 61045876 60594944 
3381.383 60140744 59681392 59216032 58745900 58272976 57800568 57331284 
3384.758 56867188 56409476 55958388 55513712 55074948 54641440 54212680 
3388.133 53787828 53365828 52945584 52526088 52106992 51688336 51271016 
3391.509 50856556 50446516 50042284 49644784 49254248 48869664 48489980 
3394.884 48113368 47738336 47364144 46991016 46620052 46253532 45893804 
3398.259 45542612 45200536 44866400 44538064 44212404 43886508 43558844 
3401.634 43229080 42898108 42567640 42239288 41914392 41593792 41277324 
3405.010 40964944 40656248 40351224 40049392 39750424 39453148 39156728 
3408.385 38860436 38564168 38268568 37975056 37685132 37400176 37120384 
3411.760 36845424 36574168 36305392 36037712 35770848 35504508 35239448 
3415.135 34975800 34714292 34455376 34199088 33945752 33695244 33447780 
3418.510 33203136 32960888 32720912 32483216 32248254 32016952 31790688 
3421.886 31570212 31356186 31148138 30945206 30745928 30549156 30353824 
3425.261 30159858 29967222 29776164 29587030 29399826 29213976 29029056 
3428.636 28844640 28659984 28474840 28288396 28100618 27911294 27720642 
3432.011 27529720 27339694 27152678 26969762 26792280 26620366 26453344 
3435.387 26290504 26130226 25971976 25815400 25660392 25506950 25355250 
3438.762 25204726 25054920 24904992 24754448 24602976 24450714 24298118 
3442.137 24145614 23993688 23842444 23691534 23540570 23388680 23235446 
3445.512 23080588 22924386 22768278 22614214 22464184 22320204 22182828 
3448.888 22051978 21925770 21801862 21677674 21551294 21421644 21288660 
3452.263 21153278 21016236 20878646 20741168 20604152 20468672 20335388 
3455.638 20205788 20080774 19960928 19845210 19732330 19620034 19506522 
3459.013 19390162 19270958 19149570 19027248 18905306 18785232 18667682 
3462.389 18552964 18441562 18332918 18226960 18123068 18020134 17917568 
3465.764 17814302 17710266 17606118 17502824 17401036 17301342 17202668 
3469.139 17103916 17003324 16900102 16794358 16687537 16581809 16478792 
3472.514 16379239 16282255 16185878 16087526 15985485 15879378 15770480 
3475.890 15660921 15553143 15448858 15348923 15252513 15158628 15065998 
3479.265 14973525 14880900 14787816 14694511 14601192 14508784 14417800 
3482.640 14329369 14244379 14163618 14086636 14012611 13939727 13866069 
3486.015 13790439 13712497 13632621 13552485 13473527 13396462 13321427 
3489.391 13247737 13174264 13100019 13024454 12948152 12871760 12796508 
3492.766 12723419 12653071 12585906 12521139 12458530 12397396 12337022 
3496.141 12277165 12218067 12160171 12104359 12051689 12002228 11955599 
3499.516 11910643 11865761 11819079 11769745 11718036 11665242 11613613 
3502.892 11565086 11521498 11482949 11449065 11418210 11388923 11359774 
3506.267 11330014 11299032 11266761 11233369 11199198 11165268 11133379 
3509.642 11105029 11082357 11066348 11057341 11053772 11053976 11055234 
3513.017 11055846 11054452 11050543 11043916 11034569 11022164 11006599 
3516.393 10987670 10966125 10943223 10921034 10901838 10886888 10876594 
3519.768 10869290 10863004 10854511 10841330 10821152 10792719 10755866 
3523.143 10711068 10659348 10601862 10540242 10475848 10409935 10343422 
3526.518 10276376 10208561 10139602 10068757 9995854 9921065 9844966 9768441 
3530.376 9692268 9617361 9544128 9473548 9405553 9339871 9275992 9212055 
3534.233 9146064 9075888 9000242 8918758 8832893 8745356 8659018 8576450 
3538.091 8499303 8427710 8360756 8297157 8235593 8175219 8115732 8056489 
3541.948 7997119 7936913 7874725 7809713 7741539 7670139 7596255 7520563 
3545.805 7444278 7368006 7293095 7220993 7153047 7090465 7034124 6983143 
3549.663 6936039 6890456 6843497 6793515 6739466 6682362 6623583 6565182 
3553.520 6509009 6455702 6405595 6358521 6314377 6272993 6234101 6196860 
3557.378 6159957 6121277 6079072 6031831 5979221 5922183 5862701 5802992 
3561.235 5744836 5689743 5637811 5589075 5542324 5496249 5448031 5394519 
3565.093 5331755 5255920 5165412 5061178 4948524 4835496 4731007 4642216 
3568.950 4572629 4521333 4484506 4456653 4431781 4405371 4374043 4336057 
3572.807 4290879 4239182 4181603 4120151 4057169 3995400 3937185 3883858 
3576.665 3835752 3791530 3749450 3707408 3664401 3620697 3577364 3535840 
3580.522 3497593 3462756 3431162 3401707 3373389 3345507 3317360 3288213 
3584.380 3256732 3220779 3177987 3125555 3062850 2991281 2914753 2839272 
3588.237 2771241 2715356 2674014 2646311 2629576 2619242 2610708 2600109 
3592.094 2583676 2559311 2526282 2485258 2438707 2389128 2339922 2293786 
3595.952 2252484 2216415 2185311 2158338 2134396 2111988 2090280 2068606 
3599.809 2046766 2025594 2006687 1992074 1984351 1984984 1994104 2009915 
3603.667 2028557 2045335 2054723 2052359 2035315 2002459 1954362 1893524 
3607.524 1823777 1749750 1676334 1607986 1548061 1497653 1455828 1420158 
3611.382 1387515 1355240 1321970 1288737 1257698 1231514 1212076 1198553 
3615.239 1188718 1178153 1162604 1138651 1105332 1063346 1016149 968061 
3619.096 923465 885813 857393 839234 831034 831897 840595 855036 873097 
3623.436 892951 912807 931534 948303 961785 968991 965106 944119 899658 
3627.776 828942 735933 633487 538928 469796 434571 431553 451022 480211 
3632.115 508076 525890 530534 523236 508673 491855 477193 466446 459414 
3636.455 454273 449762 445185 440939 437788 436329 435666 434670 431354 
3640.794 424621 414240 401405 388272 377361 370596 368971 372188 378986 
3645.134 386912 393114 394374 387111 368872 337866 294131 240089 179921 
3649.474 120193 67167 27237 4870 1060 14082 39696 71509 102064 123972 131197 
3654.778 119961 90465 47815 894 -40852 -69575 -81932 -79448 -66925 -49996 
3659.599 -33596 -21172 -14611 -14015 -18687 -27135 -38036 -49068 -58345 
3663.939 -63148 -61691 -52812 -36909 -16500 4804 22001 29291 21835 -4241 
3668.761 -49698 -111183 -179781 -243268 -289362 -309394 -301944 -272508 
3672.618 -231677 -193260 -170043 -173388 -207667 -268865 -342702 -411396 
3676.476 -460716 -485208 -488816 -479416 -465184 -451216 -439333 -428046 
3680.333 -415269 -399810 -382231 -364718 -349721 -338299 -329393 -320552 
3684.190 -308434 -292044 -272342 -253600 -242076 -243996 -263898 -302540 
3688.048 -356210 -417453 -478225 -531641 -574197 -604904 -624227 -632333 
3691.905 -630182 -618767 -600503 -579161 -559406 -544911 -538193 -539186 
3695.763 -545176 -551861 -554343 -549941 -537697 -519793 -500234 -483785 
3699.620 -474452 -474551 -484315 -501492 -521944 -540874 -553912 -558512 
3703.478 -553615 -540510 -521614 -499969 -478357 -459193 -443603 -432448 
3707.335 -425497 -422783 -424471 -431257 -444332 -464721 -492490 -526313 
3711.192 -562715 -596665 -622374 -635410 -633524 -617345 -590477 -557552 
3715.050 -523864 -494045 -471142 -456181 -448469 -445490 -444596 -442677 
3718.907 -438738 -433011 -427053 -423445 -424107 -429800 -439731 -452110 
3722.765 -464026 -474088 -481204 -486036 -490206 -495336 -502088 -510130 
3726.622 -517411 -520720 -517576 -506721 -488849 -466839 -445325 -429271 
3730.479 -422981 -428509 -444663 -467865 -492225 -512711 -527173 -536837 
3734.337 -545176 -556593 -572443 -591569 -609073 -618801 -616749 -601992 
3738.194 -576547 -544415 -509137 -473492 -438539 -405404 -375809 -353462 
3742.052 -344622 -356442 -394678 -458366 -536506 -609338 -654897 -660256 
3745.909 -626774 -567513 -498778 -436520 -392924 -374816 -383257 -413779 
3749.767 -458564 -508574 -556229 -596930 -627436 -645170 -648181 -634980 
3753.624 -606757 -567480 -522904 -479549 -442643 -415699 -399445 -392626 
3757.481 -392758 -397029 -403418 -410667 -417089 -420499 -418413 -408383 
3761.339 -389812 -364983 -337935 -314560 -299925 -297110 -305487 -321215 
3765.196 -338100 -350151 -353826 -349324 -340054 -331147 -327241 -330916 
3769.054 -342735 -360348 -379517 -396400 -407920 -412786 -411660 -405636 
3772.911 -397029 -387561 -378457 -370214 -362566 -354488 -345185 -334458 
3776.769 -323565 -314725 -310785 -314129 -325320 -342338 -360911 -375610 
3780.626 -382728 -380576 -370942 -357170 -343927 -334789 -331512 -333763 
3784.483 -339855 -347039 -353197 -357336 -359090 -358527 -355846 -350880 
3788.341 -343099 -332703 -320188 -306547 -292872 -279693 -267309 -255057 
3792.198 -242639 -230220 -218993 -211178 -209588 -215847 -230154 -250354 
3796.056 -271978 -289561 -299196 -299097 -291183 -279991 -272442 -275488 
3799.913 -294494 -330651 -379781 -431919 -473359 -492887 -485308 -453037 
3803.771 -404808 -352072 -307474 -280786 -277408 -296647 -330684 -366970 
3807.628 -392527 -398982 -385012 -354853 -315222 -272607 -231346 -193062 
3811.485 -157291 -122843 -89916 -60200 -38036 -28063 -34623 -58875 -97005 
3815.825 -140233 -177628 -200480 -204852 -194320 -175873 -160041 -155967 
3819.682 -170408 -204620 -253567 -306116 -348066 -368559 -363593 -336478 
3823.540 -295355 -249924 -208628 -176568 -155304 -142751 -134337 -124499 
3827.397 -109394 -87796 -61591 -34325 -10403 6328 13253 10172 -1656 -19250 
3832.219 -39460 -58510 -73882 -84384 -90380 -94057 -98363 -107109 -123108 
3836.559 -146957 -177131 -209157 -237737 -257739 -266912 -265885 -258004 
3840.416 -247076 -237141 -230617 -228664 -230286 -234426 -239029 -242109 
3844.273 -241744 -236645 -225451 -208329 -185908 -159577 -131157 -102140 
3848.131 -72690 -42807 -11961 19847 50830 76115 87714 76446 33532 -43900 
3852.953 -148911 -263269 -363758 -431522 -459491 -452242 -420598 -376372 
3856.810 -328300 -281746 -239161 -200778 -166102 -135099 -107837 -84881 
3860.667 -67389 -55694 -50095 -50990 -58742 -73186 -93593 -117344 -139703 
3865.007 -154807 -157623 -145864 -121684 -91572 -65004 -51454 -58345 -87332 
3869.347 -133907 -186405 -231214 -258467 -265355 -256547 -240618 -226544 
3873.204 -220119 -222040 -228101 -230684 -222769 -199884 -162525 -115556 
3877.062 -66461 -23358 6825 19483 13783 -7455 -37373 -68018 -91208 -101345 
3881.883 -97336 -81733 -60896 -42144 -33232 -39493 -62055 -96608 -133874 
3886.223 -162790 -174746 -166632 -140962 -105717 -70105 -42972 -30714 -35186 
3890.563 -53375 -78056 -100682 -113403 -112276 -97469 -72259 -41249 -8946 
3894.902 21570 48378 70514 87548 99015 104318 102827 94541 79992 60639 39000 
3900.206 16998 -3247 -21536 -37936 -53541 -69675 -86603 -103697 -119001 
3904.546 -130131 -134536 -130495 -117808 -97833 -72590 -45093 -17958 7057 
3908.885 29158 48278 65312 81484 97822 114559 131893 149195 165768 180783 
3913.707 193380 202695 208032 208396 203523 193678 180319 165304 151084 
3918.047 139417 131661 128115 128512 132224 138621 147140 157116 167458 
3922.386 176540 182374 183535 178993 169778 157978 146808 139616 138124 
3926.726 142698 152078 164574 178065 191358 204021 215789 226364 234486 
3931.065 238630 236973 228983 215258 198253 181214 167127 157183 151548 
3935.405 148432 146079 143394 140676 139682 142566 150984 165038 182872 
3939.745 201236 216386 225734 227922 223911 216021 207402 200374 196529 
3944.084 196032 197921 200905 203656 205214 204816 202794 199015 194507 
3948.424 190065 186849 185988 187711 192617 200407 210485 222253 234586 
3952.763 246454 256798 264191 267474 265816 259052 247847 233724 218806 
3957.103 205214 194772 188275 185756 186617 189800 194275 199380 204385 
3961.443 208993 212938 216087 218573 220960 223778 227591 232497 238464 
3965.782 244564 250068 254046 256301 257461 258688 261506 266943 275398 
3970.122 286040 297479 307692 315185 318833 318534 315053 309880 304873 
3974.461 301723 302088 306697 315716 328283 342873 357398 370298 380014 
3978.801 386216 389068 389565 388670 387542 386481 385917 385718 386083 
3983.141 387012 388968 391821 395601 399614 403063 405385 406413 406247 
3987.480 405783 405517 406247 408204 411056 414273 417358 420110 422366 
3991.820 424256 425682 426644 426744 425417 422531 417855 411520 403627 
3996.159 394573 384690 374609 364992 356735 350898 347881 348179 351064 
4000.499 355806 
##END=
