
##TITLE=1731a_1_a
##JCAMP-DX=5.01  $$ Nicolet v. 1
##DATATYPE=INFRARED SPECTRUM
##ORIGIN=UniL
##OWNER=Nicolet
##LONGDATE=2011/09/22
##TIME=09:54:10
##SPECTROMETER/DATA SYSTEM=Nicolet iS5
##DATA PROCESSING=
Ratio against background
%Transmittance->Absorbance
Truncated
ElementMultiply or ElementDivide
##COMMENTS=
Number of sample scans: 32
Collection length: 51.18 sec
Sample gain: 2.0
Background collected on: Jeu Sep 22 09:51:51 2011 (GMT+02:00);
Number of background scans: 32
Background gain: 2.0
Sample spacing:  1.000
Number of scan points: 12415
Resolution points: 8192
Number of FFT points: 65536
Apodization: N-B fort;
Phase correction: Mertz;
Laser frequency: 15798.0 cm-1
Number of rejected sample scans: 0
Number of rejected background scans: 0
Bench serial number: ASB1000141;
##RESOLUTION=4.000
##XUNITS=1/CM
##YUNITS=ABSORBANCE
##FIRSTX=649.893372
##LASTX=4000.122314
##FIRSTY=0.101520
##MAXX=4000.122314
##MINX=649.893372
##MAXY=0.256849
##MINY=-0.001472
##XFACTOR=1.000000
##YFACTOR=1.000000E-009
##NPOINTS=6950
##DELTAX=0.482117
##ZPD=6100
##XYDATA=(X++(Y..Y))
649.893 101520312 101104680 100709080 100345904 100012472 99697352 99388832 
653.268 99085232 98799400 98551256 98357232 98222696 98135208 98072624 
656.643 98011584 97938056 97852128 97764176 97684800 97616592 97550176 
660.018 97467568 97351544 97195144 97005496 96802096 96610872 96452960 
663.393 96337376 96259624 96202936 96141856 96043304 95869656 95578824 
666.767 95135792 94531920 93808960 93058496 92380848 91841744 91447368 
670.142 91161208 90923552 90674024 90367728 89980152 89511768 88982960 
673.517 88424864 87863784 87312024 86768488 86223160 85668640 85105984 
676.892 84546048 84004944 83497576 83029512 82598568 82196280 81814288 
680.267 81448424 81100304 80773904 80472392 80194368 79933848 79682232 
683.642 79433592 79186400 78944088 78711832 78492208 78282776 78076968 
687.016 77866464 77646240 77417496 77186920 76964432 76757472 76567440 
690.391 76389392 76215368 76038480 75857768 75679136 75513128 75371768 
693.766 75262960 75189632 75149840 75140232 75158000 75201768 75270840 
697.141 75360960 75462544 75561104 75638360 75679296 75676896 75633432 
700.516 75560040 75471136 75380160 75294480 75215440 75139760 75064168 
703.890 74987096 74910360 74837168 74770056 74708744 74650576 74591528 
707.265 74528968 74462376 74394504 74330328 74275512 74238248 74230272 
710.640 74267576 74372128 74565832 74864024 75266144 75749392 76267376 
714.015 76753472 77140536 77372032 77415432 77270008 76960592 76529656 
717.390 76022296 75486000 74968592 74521304 74209352 74106736 74279960 
720.765 74772656 75573608 76603608 77704240 78668224 79280928 79354024 
724.139 78787976 77589232 75874416 73830392 71677440 69622416 67803792 
727.514 66292628 65091380 64158768 63432908 62854560 62381728 61986688 
730.889 61653180 61369380 61122880 60900536 60692096 60491412 60298244 
734.264 60116160 59949176 59798684 59662080 59534068 59410088 59287544 
737.639 59167696 59054404 58951924 58863356 58789448 58729172 58680276 
741.013 58641936 58613496 58594912 58586040 58586304 58594568 58610536 
744.388 58634200 58665980 58705576 58750296 58793808 58827992 58843096 
747.763 58831716 58791232 58724240 58637728 58541072 58443224 58350584 
751.138 58266648 58192504 58128972 58076548 58036024 58008304 57993232 
754.513 57990092 57998044 58016712 58046932 58090792 58150604 58228344 
757.888 58323604 58435412 58561468 58700040 58850040 59011400 59184892 
761.262 59371680 59573288 59792104 60032564 60301100 60607628 60967368 
764.637 61401056 61940944 62631816 63525944 64680912 66137576 67898856 
768.012 69904344 72017648 74037024 75702016 76762216 77028752 76417208 
771.387 74983632 72912200 70484960 67990640 65683132 63730992 62191656 
774.762 61034324 60167268 59486112 58896636 58339672 57793152 57259452 
778.136 56751780 56281024 55850604 55456448 55090900 54745764 54414912 
781.511 54094860 53783068 53478616 53182432 52899436 52637384 52407300 
784.886 52220760 52087044 52012076 51998292 52046064 52155484 52327904 
788.261 52565688 52872080 53249960 53701392 54228520 54835492 55528624 
791.636 56318784 57219604 58246796 59417076 60745256 62244312 63926032 
795.010 65799972 67876152 70165928 72682328 75443384 78474024 81805488 
798.385 85480560 89551304 94071360 99089936 104630624 110670936 117107776 
801.760 123735560 130250216 136222848 141168160 144622672 146194128 
804.653 145685440 143137792 138849760 133301584 127066240 120707000 
807.546 114622152 109017744 103890456 99083528 94364264 89521944 84453304 
810.920 79181824 73851528 68660976 63824432 59506444 55792276 52698580 
814.295 50182068 48169856 46575936 45322364 44345004 43588696 43010696 
817.670 42576448 42258164 42037532 41903300 41848604 41868160 41954680 
821.045 42098676 42290272 42521120 42787520 43090492 43434212 43823572 
824.420 44261308 44748808 45286620 45876348 46521976 47229180 48003112 
827.794 48847568 49763964 50753836 51823500 52988220 54276424 55733056 
831.169 57413980 59384632 61712260 64447776 67612032 71169112 75012616 
834.544 78935776 82633520 85750936 87891128 88713416 88017064 85775800 
837.919 82168216 77524976 72289584 66901096 61727308 57048032 53010944 
841.294 49660088 46962220 44840684 43200824 41946836 40998444 40285744 
844.669 39750096 39347824 39045132 38819568 38658976 38556420 38506632 
848.043 38503444 38538316 38602336 38689660 38798588 38931792 39094076 
851.418 39288916 39516288 39772756 40052916 40353624 40675204 41022840 
854.793 41403960 41826276 42295928 42816736 43393088 44032392 44745944 
858.168 45551484 46471416 47530316 48757400 50185976 51851612 53794616 
861.543 56048740 58628628 61511144 64619920 67817504 70895768 73614912 
864.917 75728880 77017720 77346496 76678080 75088192 72741552 69874800 
868.292 66757448 63630276 60703260 58124164 55970260 54268092 53000796 
871.667 52127836 51593812 51341752 51317928 51468192 51742568 52094888 
875.042 52481328 52869308 53238908 53587420 53928784 54291068 54709720 
878.417 55215500 55826712 56538716 57320696 58113520 58835660 59402300 
881.792 59732336 59769364 59496868 58940580 58167612 57267088 56342812 
885.166 55485928 54762076 54211104 53843488 53650068 53610212 53700832 
888.541 53900540 54190192 54553896 54976904 55444664 55946060 56473468 
891.916 57024148 57598984 58200952 58832776 59494700 60185384 60903012 
895.291 61646000 62413864 63204356 64011952 64823412 65618420 66372036 
898.666 67056896 67651056 68140896 68521712 68797608 68978048 69076048 
902.040 69105344 69081952 69024504 68952960 68890360 68860272 68883952 
905.415 68982048 69173096 69473160 69898656 70464344 71182112 72060944 
908.790 73104592 74313144 75683952 77214232 78903440 80752952 82764872 
912.165 84940728 87278960 89776232 92429624 95241032 98220952 101390024 
915.540 104777920 108415744 112331128 116537240 121024872 125750568 
918.432 130627392 135522880 140236576 144515792 148079008 150623856 
921.325 151904896 151783808 150276512 147578896 144058048 140234288 
924.218 136664976 133907896 132445184 132575824 134400240 137768160 
927.110 142310816 147436496 152417872 156553744 159210864 159982848 
930.003 158747712 155642192 150996784 145212608 138701712 131791752 
932.896 124712160 117627288 110648664 103872984 97407928 91362056 85845848 
936.271 80960272 76776016 73338296 70666296 68756152 67586632 67116168 
939.646 67282176 67984792 69083152 70408264 71754280 72912392 73704696 
943.020 73990584 73700928 72840448 71484592 69758920 67814136 65810152 
946.395 63878976 62118408 60588848 59310980 58278660 57468256 56851440 
949.770 56399552 56087308 55893976 55799960 55786136 55835532 55932528 
953.145 56066532 56232408 56429620 56660260 56925812 57226336 57559336 
956.520 57921672 58310072 58723332 59160972 59622964 60107180 60609800 
959.894 61125704 61650356 62181640 62720276 63269132 63830764 64405620 
963.269 64991160 65582348 66174464 66765488 67356736 67952624 68558104 
966.644 69176824 69809624 70455104 71111704 71779768 72462368 73164704 
970.019 73892176 74648336 75433928 76247912 77089488 77960184 78864016 
973.394 79807320 80795696 81832136 82915920 84044032 85213224 86422552 
976.768 87673384 88968400 90308696 91691816 93110392 94553504 96009944 
980.143 97470592 98928960 100379888 101817704 103232560 104612456 105943672 
983.518 107214760 108420264 109559472 110634600 111646112 112589040 
986.411 113452000 114220608 114881040 115426016 115857368 116186568 
989.304 116431352 116612304 116752792 116875888 117004920 117164968 
992.196 117378224 117662912 118029568 118479096 119004168 119592272 
995.089 120231120 120911848 121629360 122381656 123166024 123976440 
997.982 124804232 125638784 126471520 127298312 128118976 128934872 
1000.874 129745560 130545928 131326944 132078560 132793192 133469968 
1003.767 134114832 134739600 135357552 135981792 136625392 137302016 
1006.660 138028848 138828320 139724144 140739616 141892160 143189536 
1009.552 144630240 146204848 147900576 149701120 151587040 153534304 
1012.445 155508880 157469664 159374384 161183888 162874896 164443584 
1015.338 165905504 167287952 168620832 169929472 171228848 172525696 
1018.231 173824512 175131808 176461168 177834256 179277088 180821648 
1021.123 182504464 184363824 186444416 188792208 191446256 194435888 
1024.016 197771216 201441504 205416256 209653120 214106240 218725504 
1026.909 223459744 228250592 233018160 237666480 242080160 246128528 
1029.802 249687888 252640272 254877152 256307776 256848896 256432416 
1032.695 255018944 252605920 249240480 245014768 240065872 234555728 
1035.588 228648992 222520880 216340192 210265680 204462272 199080432 
1038.481 194252176 190094288 186687952 184082320 182294320 181304176 
1041.374 181052320 181426368 182266896 183346608 184376384 185052352 
1044.267 185060720 184140944 182142800 179036336 174926944 170018320 
1047.160 164592288 158947424 153350048 148034192 143162816 138830192 
1050.053 135075648 131887584 129220408 127005992 125172152 123648960 
1052.947 122374584 121302672 120395696 119621336 118950216 118349232 
1055.840 117782576 117216664 116619672 115966368 115240336 114430392 
1058.733 113531048 112541936 111469312 110328040 109142288 107947752 
1061.626 106785552 105697248 104723256 103894624 103233440 102753864 
1064.519 102460328 102348160 102399752 102583592 102849544 103130120 
1067.412 103352768 103442568 103338136 103004000 102431504 101640088 
1070.305 100667808 99566816 98390560 97184864 95988288 94825552 93708664 
1073.680 92639184 91610424 90611856 89633208 88669152 87721512 86800496 
1077.055 85921640 85103528 84363448 83713680 83161304 82707264 82348616 
1080.431 82077464 81882216 81747608 81653752 81578336 81501264 81407448 
1083.806 81291888 81162256 81038688 80948968 80924584 80997600 81194288 
1087.181 81535680 82037320 82708072 83550992 84561864 85729952 87037024 
1090.556 88460768 89979624 91574624 93231688 94940648 96687776 98450904 
1093.932 100195560 101870440 103416120 104776696 105908024 106794448 
1096.825 107454456 107945032 108350424 108769264 109299864 110007608 
1099.718 110910920 111963000 113057512 114030824 114687952 114853280 
1102.611 114387872 113227768 111395224 108993472 106185032 103150496 
1105.504 100079928 97134344 94430232 92046512 90017536 88343272 86997920 
1108.879 85940256 85121144 84487272 83990512 83587824 83240880 82919248 
1112.254 82595400 82243808 81842888 81374088 80825312 80193288 79483840 
1115.630 78710840 77892784 77050672 76204584 75370896 74564096 73794736 
1119.005 73070600 72395968 71771520 71193856 70656704 70152144 69673096 
1122.380 69214560 68773152 68346040 67926864 67504760 67062384 66577732 
1125.755 66030436 65405280 64697600 63916096 63082232 62226684 61381860 
1129.131 60580240 59846336 59194540 58628664 58142500 57722300 57348148 
1132.506 56999440 56657392 56307768 55944628 55570684 55197212 54840152 
1135.881 54518396 54249692 54046824 53917272 53861976 53876156 53949648 
1139.256 54068064 54215120 54371912 54520648 54646628 54738848 54791660 
1142.632 54804252 54778840 54719456 54630132 54515200 54379044 54227320 
1146.007 54067464 53907816 53757080 53622848 53510732 53424428 53366616 
1149.382 53339416 53345820 53389096 53471384 53593232 53752164 53943380 
1152.757 54160688 54398276 54652376 54920988 55203684 55500044 55808364 
1156.133 56125500 56446716 56767072 57081732 57386000 57675076 57943516 
1159.508 58184584 58390764 58555440 58673264 58740928 58756824 58719612 
1162.883 58626996 58475632 58260740 57978392 57626264 57204600 56716476 
1166.258 56166976 55562588 54910196 54217484 53494096 52750880 52000980 
1169.634 51259124 50538592 49851516 49207192 48611888 48069840 47584732 
1173.009 47160700 46802580 46515888 46305136 46173888 46124624 46159076 
1176.384 46280404 46493208 46804572 47223712 47760192 48423520 49222516 
1179.759 50165444 51260652 52518048 53947696 55560180 57365616 59371032 
1183.135 61580780 63994140 66603920 69390624 72316864 75325536 78328648 
1186.510 81211672 83847576 86094152 87820384 88923872 89333744 89027048 
1189.885 88026920 86402376 84254128 81703496 78884440 75918264 72912160 
1193.260 69955880 67112304 64427564 61932384 59643988 57571784 55718364 
1196.635 54080260 52649056 51411572 50350956 49445796 48673296 48010920 
1200.011 47435508 46926668 46466472 46039296 45633292 45240872 44858536 
1203.386 44487516 44132180 43798836 43492876 43217332 42971916 42753588 
1206.761 42557808 42380232 42218324 42071332 41940484 41827080 41732668 
1210.136 41658664 41607100 41581464 41587700 41633136 41726504 41875384 
1213.512 42085204 42359120 42697980 43100844 43565948 44090116 44668380 
1216.887 45293052 45954352 46640416 47339460 48042524 48743540 49440228 
1220.262 50133348 50825900 51521836 52226440 52947120 53693072 54474820 
1223.637 55303628 56187680 57130824 58130336 59177340 60257128 61350264 
1227.013 62435248 63489316 64489292 65415876 66255808 67006008 67675952 
1230.388 68289808 68884848 69503992 70195528 71006296 71975720 73139920 
1233.763 74528856 76166872 78075904 80272928 82769200 85569200 88670456 
1237.138 92063592 95731832 99652832 103795304 108114960 112557648 117056496 
1240.514 121535896 125926808 130168216 134215280 138041712 141632112 
1243.407 144974320 148052592 150838384 153288784 155347792 156941888 
1246.300 157987632 158400768 158096816 157010656 155106016 152380560 
1249.193 148867440 144627472 139741616 134296208 128381848 122096144 
1252.086 115537504 108815408 102048904 95351120 88836208 82607744 76745880 
1255.461 71315944 66359952 61895168 57919552 54411984 51338812 48655912 
1258.836 46315128 44269268 42470292 40876436 39452132 38167512 37001336 
1262.212 35939228 34971420 34091560 33294424 32574314 31925432 31341654 
1265.587 30817312 30347606 29927642 29552342 29216172 28912986 28637366 
1268.962 28386402 28160008 27961402 27795664 27668622 27585394 27549278 
1272.337 27563436 27631226 27757974 27951788 28221774 28576992 29023034 
1275.713 29559046 30174954 30848650 31548512 32229912 32840260 33328232 
1279.088 33645652 33759268 33657756 33352882 32877714 32277376 31604990 
1282.463 30907956 30222160 29572914 28972664 28426302 27934826 27498372 
1285.838 27116808 26789954 26516384 26293568 26118542 25988860 25903810 
1289.214 25863752 25869132 25918686 26008736 26133392 26286104 26461372 
1292.589 26656230 26869714 27101538 27350456 27613326 27886032 28165452 
1295.964 28451738 28750000 29069620 29423722 29825632 30287632 30821118 
1299.339 31435150 32137598 32932684 33817756 34778180 35783476 36789808 
1302.715 37737792 38563624 39211484 39636572 39816332 39751692 39466356 
1306.090 39001272 38407220 37742924 37062604 36413652 35834072 35346724 
1309.465 34961008 34673808 34474032 34346416 34275776 34250324 34261472 
1312.840 34302524 34367180 34447668 34535088 34621700 34701728 34772584 
1316.216 34834648 34889008 34935904 34973576 34998752 35008556 35002452 
1319.591 34983452 34956948 34929368 34905132 34884916 34866496 34845240 
1322.966 34817492 34781556 34739092 34694120 34652708 34622348 34611328 
1326.341 34630244 34692076 34809524 34994980 35255760 35592396 35997972 
1329.717 36460388 36966300 37503220 38062360 38637936 39223848 39812520 
1333.092 40392788 40949908 41469940 41940888 42355396 42711068 43009488 
1336.467 43254188 43449112 43599612 43712128 43795684 43862536 43926248 
1339.842 43998916 44089932 44204188 44343208 44508404 44703160 44934888 
1343.218 45214764 45555716 45970264 46469388 47061540 47753092 48547852 
1346.593 49444644 50432260 51482740 52551852 53572656 54463628 55145180 
1349.968 55541876 55602316 55306336 54666956 53730300 52565500 51262552 
1353.343 49914064 48606068 47415292 46395384 45577500 44970352 44562996 
1356.719 44331060 44243332 44270848 44387792 44573316 44811920 45090056 
1360.094 45397364 45728516 46085384 46479232 46928184 47453840 48070724 
1363.469 48778532 49557160 50367476 51156604 51858668 52406812 52736440 
1366.844 52789716 52530236 51949180 51072776 49956812 48681004 47334436 
1370.219 45993064 44717372 43544044 42486584 41545332 40715232 39994788 
1373.595 39389396 38910120 38566232 38358464 38275232 38296252 38397992 
1376.970 38563372 38786776 39075764 39449664 39937168 40576932 41412344 
1380.345 42493896 43873384 45588024 47643372 49988448 52510716 55022968 
1383.720 57285384 59053988 60085300 60191856 59277556 57367924 54631596 
1387.096 51349812 47882524 44557564 41606440 39150056 37199608 35699940 
1390.471 34563896 33704948 33046652 32526426 32100138 31735506 31412032 
1393.846 31121940 30866472 30653256 30490114 30380580 30321066 30303016 
1397.221 30315380 30349168 30401228 30474580 30577844 30722136 30917240 
1400.597 31167718 31471736 31822064 32208000 32617070 33036604 33456654 
1403.972 33869656 34270184 34654248 35017536 35355352 35664472 35945380 
1407.347 36204720 36454296 36710656 36990296 37304772 37659692 38053060 
1410.722 38479008 38930924 39405832 39904732 40431408 40989484 41579824 
1414.098 42200908 42850636 43529944 44245164 45009492 45841292 46760952 
1417.473 47784384 48916424 50142684 51425224 52705092 53913968 54990212 
1420.848 55884892 56569024 57035448 57299452 57404604 57420636 57442424 
1424.223 57562628 57851104 58340584 59022824 59865348 60828872 61885960 
1427.599 63021124 64228528 65505752 66848068 68251384 69717640 71262768 
1430.974 72915880 74707320 76659616 78774632 81035376 83410520 85872624 
1434.349 88411376 91032560 93756240 96598000 99553480 102583008 105626624 
1437.724 108628448 111549584 114368768 117063960 119600736 121912848 
1440.617 123901336 125456824 126458224 126796976 126395624 125208232 
1443.510 123235848 120531112 117208720 113433112 109392816 105298456 
1446.404 101339264 97669864 94407128 91608544 89270096 87326688 85678528 
1449.779 84215112 82845656 81528368 80276512 79153400 78240680 77612280 
1453.154 77298784 77274952 77460056 77733416 77964272 78022752 77828608 
1456.529 77387560 76810296 76271008 75931720 75902048 76220856 76885320 
1459.905 77874032 79154480 80682008 82389064 84191856 85976728 87601048 
1463.280 88919272 89789752 90119336 89896520 89202136 88183912 87000232 
1466.655 85795824 84673832 83694872 82893584 82275808 81821088 81478272 
1470.030 81168128 80793144 80250808 79475048 78467000 77314984 76165408 
1473.406 75174432 74456872 74060400 73986224 74211440 74709728 75456352 
1476.781 76423680 77575360 78858016 80204488 81546192 82812504 83947504 
1480.156 84918072 85715896 86362120 86900168 87392768 87907392 88513616 
1483.531 89287432 90304168 91640704 93364112 95512144 98071880 100956456 
1486.906 104009792 106991352 109596440 111507352 112402808 112031736 
1489.800 110280408 107205520 103040928 98123880 92823576 87438640 82156608 
1493.175 77084264 72255496 67680400 63390964 59448880 55953336 53019816 
1496.550 50739868 49153424 48239052 47937500 48171264 48865960 49960344 
1499.925 51397064 53117236 55060580 57154784 59321312 61482664 63542320 
1503.301 65387756 66882036 67832416 68003040 67142312 65064364 61780096 
1506.676 57576472 52948652 48374108 44149788 40362092 36965112 33876108 
1510.051 31032460 28405502 26001840 23842828 21941660 20297472 18891048 
1513.426 17693424 16673833 15805013 15063803 14426705 13870550 13375925 
1516.802 12931493 12538839 12208048 11949945 11764945 11638763 11542424 
1520.177 11442975 11316886 11165437 11016387 10910739 10878326 10921612 
1523.552 11019955 11141063 11258191 11357291 11443111 11532318 11644753 
1526.927 11790241 11964148 12152197 12339952 12521685 12702607 12894697 
1530.302 13109102 13348385 13604893 13862922 14106659 14330807 14545615 
1533.678 14774275 15038453 15347585 15693076 16055550 16412169 16745593 
1537.053 17048360 17320720 17568752 17798146 18010222 18199008 18357006 
1540.428 18484292 18591350 18694144 18804330 18920360 19028320 19107604 
1543.803 19142644 19129696 19082190 19024720 18983492 18974874 18999034 
1547.179 19044004 19093442 19136516 19173118 19214988 19279168 19380286 
1550.554 19521390 19694364 19884334 20078690 20273342 20473256 20689874 
1553.929 20934136 21209534 21510140 21821964 22128084 22414186 22667692 
1557.304 22877828 23035828 23138804 23198744 23242156 23304942 23412074 
1560.680 23568134 23761278 23970088 24171080 24340836 24463334 24532710 
1564.055 24555780 24549924 24536988 24534462 24547014 24566508 24575696 
1567.430 24556200 24495232 24390918 24253164 24102146 23960948 23847170 
1570.805 23770656 23733280 23731600 23758968 23805516 23857322 23894044 
1574.181 23892642 23832958 23706720 23527348 23329170 23155476 23036036 
1577.556 22975354 22954322 22944542 22917366 22852472 22741008 22583080 
1580.931 22384706 22152422 21891374 21603562 21291236 20958928 20615234 
1584.306 20270704 19935256 19613794 19305700 19005994 18710298 18418328 
1587.682 18135610 17871336 17634276 17429318 17256208 17111496 16992126 
1591.057 16898588 16834828 16805378 16810648 16843954 16891836 16938722 
1594.432 16971900 16986304 16985890 16981168 16983994 17002462 17040780 
1597.807 17100400 17183812 17298376 17456292 17672304 17960078 18328216 
1601.183 18778936 19310204 19917564 20594702 21331916 22113440 22912652 
1604.558 23690904 24403886 25001640 25439174 25684330 25720434 25550630 
1607.933 25195702 24691278 24078750 23398506 22689860 21986586 21317196 
1611.308 20706346 20168786 19708338 19317272 18978474 18669654 18367378 
1614.684 18053188 17715756 17355168 16984580 16629145 16318755 16077556 
1618.059 15918732 15842056 15836971 15886011 15968744 16066175 16162559 
1621.434 16250746 16334374 16427550 16548626 16712811 16925422 17181158 
1624.809 17468364 17776056 18098334 18433954 18783536 19144966 19510090 
1628.185 19865396 20197630 20497224 20763308 21002118 21222964 21432506 
1631.560 21631562 21813184 21964560 22070698 22116648 22092000 21993800 
1634.935 21830222 21619408 21386768 21156688 20944290 20753194 20577122 
1638.310 20404490 20221164 20014010 19775052 19503610 19207956 18901984 
1641.686 18602348 18320612 18059336 17811576 17561886 17291550 16982340 
1645.061 16623428 16216213 15776906 15333889 14921227 14568605 14293002 
1648.436 14097041 13971582 13900245 13860835 13824883 13759247 13623834 
1651.811 13381666 13019708 12573560 12127358 11767124 11534631 11415081 
1655.187 11366950 11346543 11323825 11283525 11222420 11145244 11059483 
1658.562 10971902 10884680 10795912 10700948 10595174 10475916 10343761 
1661.937 10202489 10058346 9918929 9791384 9681494 9592769 9525195 9475376 
1665.794 9436604 9399391 9352668 9286113 9193204 9073113 8932151 8781667 
1669.652 8635933 8506196 8398658 8314281 8249743 8198956 8153138 8102161 
1673.509 8034954 7941671 7819125 7673983 7523766 7388968 7285648 7217860 
1677.367 7178479 7153552 7129300 7097303 7056754 7014256 6979270 6958260 
1681.224 6949237 6940921 6913180 6845248 6723784 6554855 6366288 6198742 
1685.082 6083171 6026321 6014462 6025414 6040264 6046413 6038248 6016041 
1688.939 5982883 5943244 5901627 5863574 5834793 5820958 5825256 5846816 
1692.796 5878587 5907472 5917951 5895246 5833786 5742184 5644659 5571018 
1696.654 5539102 5549103 5583369 5617067 5622740 5580113 5483900 5351445 
1700.511 5217823 5116795 5065838 5059502 5080655 5109252 5129100 5130240 
1704.369 5108414 5065402 5008618 4948356 4893833 4851345 4822899 4806851 
1708.226 4799748 4797604 4797504 4798408 4800686 4806315 4816600 4832045 
1712.083 4851378 4872019 4891286 4907270 4919267 4927813 4932739 4932437 
1715.941 4923490 4902244 4868433 4827522 4791641 4775560 4790032 4838210 
1719.798 4915514 5013076 5120953 5231371 5340979 5450213 5562158 5680611 
1723.656 5808298 5945293 6090093 6240017 6392650 6546210 6698277 6845147 
1727.513 6981594 7100873 7197141 7267824 7313919 7340237 7351762 7351189 
1731.371 7335384 7295521 7219612 7099290 6938160 6758345 6595121 6484221 
1735.228 6443259 6468179 6540593 6638353 6743571 6842824 6929171 7000281 
1739.085 7057225 7102792 7139539 7169957 7194211 7212739 7225069 7231302 
1742.943 7231235 7224733 7211291 7190168 7160424 7121115 7070865 7007959 
1746.800 6930720 6836866 6724928 6593473 6442250 6271481 6082499 5878788 
1750.658 5666277 5453467 5250823 5067447 4909013 4776230 4664387 4565228 
1754.515 4468169 4363902 4246710 4117007 3981724 3851865 3738488 3646959 
1758.373 3575694 3517100 3461186 3398100 3322135 3232796 3134565 3035055 
1762.230 2941739 2859817 2790982 2734294 2687483 2647944 2612942 2579176 
1766.087 2543879 2504420 2460865 2415749 2374203 2341388 2319968 2307876 
1769.945 2298016 2281029 2247755 2194102 2124041 2049297 1983885 1938220 
1773.802 1915056 1909631 1914457 1922278 1929766 1937454 1947638 1962350 
1777.660 1980623 1998598 2010748 2012645 2003158 1985283 1965445 1950068 
1781.517 1942679 1942912 1946906 1950068 1949036 1943545 1935490 1928668 
1785.375 1925373 1926338 1930498 1936223 1943179 1952032 1963947 1979059 
1789.232 1995635 2009216 2013976 2004423 1978493 1938719 1892426 1848367 
1793.089 1813828 1791669 1780357 1776099 1774635 1773604 1771840 1769079 
1796.947 1765452 1760329 1752478 1740901 1725964 1709065 1693331 1682022 
1800.804 1677498 1680592 1690837 1706703 1726862 1750016 1774768 1799721 
1804.662 1822812 1841945 1855721 1863907 1867733 1869464 1871061 1873091 
1808.519 1874589 1873124 1866669 1853990 1836687 1817488 1799987 1786812 
1812.376 1778361 1772872 1768081 1762026 1754574 1747454 1743329 1744993 
1816.234 1754241 1771142 1794730 1823710 1856985 1893657 1933460 1975131 
1820.091 2016939 2057420 2095340 2130634 2164298 2197965 2232201 2266673 
1823.949 2299715 2329562 2355846 2379900 2404321 2431776 2462665 2494556 
1827.806 2522716 2541980 2549812 2548245 2544513 2548212 2568177 2607842 
1831.664 2664746 2731794 2800620 2864820 2921658 2971831 3018506 3065019 
1835.521 3113607 3164369 3217074 3271688 3330215 3396464 3474814 3568812 
1839.378 3679572 3805100 3941933 4085164 4230750 4375047 4515206 4649282 
1843.236 4776096 4895944 5010730 5124037 5239085 5356913 5475143 5588303 
1847.093 5688064 5765619 5814107 5830058 5813872 5768742 5699243 5609750 
1850.951 5502423 5378953 5241566 5093193 4939174 4785275 4636020 4493377 
1854.808 4356639 4223356 4090849 3958919 3829502 3706038 3592064 3488909 
1858.666 3395495 3309247 3227455 3148816 3073629 3003225 2938270 2877795 
1862.523 2819062 2758769 2695518 2630176 2566243 2508486 2459866 2420281 
1866.380 2386563 2352981 2315205 2272469 2228937 2191705 2168594 2163899 
1870.238 2176486 2201595 2232168 2262143 2287824 2307277 2319935 2324998 
1874.095 2321101 2307010 2282128 2247988 2207323 2164365 2122443 2082822 
1877.953 2044736 2006520 1966277 1924308 1882309 1842677 1807274 1775733 
1881.810 1745957 1714587 1679594 1641909 1604760 1572868 1550355 1538584 
1885.667 1535292 1535724 1534494 1527844 1514311 1494927 1472584 1450110 
1889.525 1429665 1413144 1401841 1397055 1400279 1411880 1430563 1453102 
1893.382 1475710 1494760 1508426 1517968 1525583 1534128 1543971 1552783 
1897.240 1555942 1549358 1531368 1504037 1473316 1445788 1427039 1419061 
1901.097 1420158 1425909 1432258 1437112 1440702 1445423 1453003 1463708 
1904.955 1476142 1487379 1494993 1498152 1497454 1494860 1491436 1487978 
1908.812 1483489 1477871 1471554 1466467 1465037 1469193 1478569 1491336 
1912.669 1503970 1513945 1521027 1527112 1534959 1546498 1560397 1572070 
1916.527 1576426 1568944 1550122 1524918 1501510 1486415 1482226 1485584 
1920.384 1489441 1486648 1473449 1451041 1425842 1406462 1398152 1402772 
1924.242 1416601 1434020 1449844 1462411 1472983 1484387 1498551 1514677 
1928.099 1529639 1539748 1543638 1542707 1541111 1543173 1550721 1561694 
1931.957 1571471 1574564 1568711 1556141 1542208 1533663 1534760 1544935 
1935.814 1559865 1573566 1581713 1583975 1583343 1583941 1588198 1594317 
1939.671 1597543 1591923 1574264 1545467 1511817 1481495 1461181 1453501 
1943.529 1456294 1464439 1473083 1480397 1486515 1493563 1503239 1514643 
1947.386 1525716 1534993 1542807 1551851 1566682 1589262 1618196 1647696 
1951.244 1669249 1676134 1667120 1645501 1619559 1597377 1582511 1572868 
1955.101 1561827 1541211 1506497 1459253 1405764 1354974 1313329 1281891 
1958.958 1257333 1234205 1209816 1185097 1165727 1157787 1163800 1181575 
1962.816 1203404 1221114 1229620 1228557 1222609 1217824 1218223 1223107 
1966.673 1228091 1228191 1220914 1208521 1197024 1191210 1193802 1201543 
1970.531 1208055 1207025 1196061 1176857 1155196 1137123 1124499 1115895 
1974.388 1108986 1103903 1107292 1132173 1192140 1295317 1436680 1599405 
1978.246 1756570 1885104 1969872 2009549 2015008 2002126 1984684 1970205 
1982.103 1958389 1944543 1923942 1894489 1858349 1820117 1784449 1753476 
1985.960 1727661 1706071 1688209 1676400 1673141 1680325 1697123 1719377 
1989.818 1741566 1759564 1772672 1783585 1797392 1818254 1846803 1879114 
1993.675 1909797 1933327 1947838 1956026 1961152 1966044 1970971 1971403 
1997.533 1961518 1938453 1902110 1858815 1816157 1781256 1756071 1737308 
2001.390 1717049 1686745 1643073 1587400 1527012 1472019 1430829 1409022 
2005.248 1407559 1425244 1458721 1505998 1563357 1625080 1683585 1729058 
2009.105 1754274 1757002 1742265 1720176 1703211 1702146 1720808 1756270 
2012.962 1801019 1846570 1887101 1921712 1951799 1980789 2010448 2040009 
2016.820 2068639 2096339 2124873 2158304 2200063 2250053 2303946 2354314 
2020.677 2393959 2418215 2428577 2430510 2431010 2434775 2443472 2453968 
2024.535 2462898 2468563 2472195 2478793 2492823 2515184 2543513 2571476 
2028.392 2593575 2609308 2623509 2644810 2682415 2741297 2819495 2910983 
2032.250 3007662 3103595 3198748 3295859 3398134 3505409 3613513 3714326 
2036.107 3801390 3872324 3930331 3982626 4036099 4092656 4148785 4196457 
2039.964 4227337 4236873 4228006 4207196 4184112 4165879 4153836 4144837 
2043.822 4134100 4118211 4098610 4080447 4072019 4080247 4110149 4161563 
2047.679 4231854 4317684 4414074 4515039 4613583 4700158 4765108 4802797 
2051.537 4812915 4802227 4783902 4772847 4781088 4813518 4866322 4928684 
2055.394 4988407 5035802 5067614 5086723 5100099 5113644 5131480 5153643 
2059.251 5178523 5204074 5230566 5257865 5286843 5314917 5337055 5346346 
2063.109 5337424 5309181 5266652 5219198 5177617 5150391 5140466 5144892 
2066.966 5156928 5169469 5177583 5179595 5176611 5170844 5163232 5154179 
2070.824 5142679 5128664 5114180 5102513 5097384 5101541 5115421 5137013 
2074.681 5163903 5193444 5224731 5258066 5293987 5331923 5370164 5405992 
2078.539 5436456 5460882 5479974 5495712 5510645 5526182 5542324 5558399 
2082.396 5574072 5590082 5608408 5631635 5660235 5692462 5723785 5748462 
2086.253 5761288 5760079 5745608 5721267 5691556 5659328 5625895 5591559 
2090.111 5556016 5520779 5489538 5467090 5458198 5465882 5489605 5525813 
2093.968 5569475 5614751 5656609 5691623 5717137 5731070 5733353 5725665 
2097.826 5711933 5698471 5692630 5700384 5724255 5762363 5809070 5858067 
2101.683 5904113 5946099 5986511 6030555 6081995 6142213 6208455 6275851 
2105.541 6338819 6394667 6442956 6486609 6528854 6571002 6612581 6651238 
2109.398 6684683 6712545 6737615 6763763 6796140 6837775 6888537 6945837 
2113.255 7005905 7065072 7121351 7173931 7223048 7267959 7307719 7340708 
2117.113 7365579 7383407 7396450 7408853 7423953 7443570 7467705 7495043 
2120.970 7523563 7552355 7582262 7615205 7652771 7695871 7743428 7793250 
2124.828 7843146 7891326 7937622 7982404 8026651 8069923 8111579 8150843 
2128.685 8187240 8222188 8258151 8297157 8340963 8388929 8439298 8489606 
2132.542 8539176 8588684 8640530 8697114 8758946 8823324 8886358 8942299 
2136.400 8989281 9027474 9060459 9092974 9128130 9165082 9199534 9226575 
2140.257 9241298 9242347 9232498 9215338 9194762 9171309 9143154 9105560 
2144.115 9055655 8992292 8917134 8834923 8749649 8663244 8575706 8484132 
2147.972 8386530 8282196 8172045 8057367 7939039 7815920 7685113 7543792 
2151.830 7392204 7232043 7068777 6906547 6745893 6583549 6413397 6230068 
2155.687 6037005 5848865 5687930 5584711 5562997 5631669 5779420 5977440 
2159.544 6189096 6378998 6525322 6621598 6672436 6689428 6684649 6667725 
2163.402 6646158 6623011 6599932 6577158 6551693 6518763 6473358 6410707 
2167.259 6328968 6231748 6125780 6019333 5920705 5833920 5759005 5693469 
2171.117 5632038 5570985 5508464 5444240 5378886 5313877 5250420 5190259 
2174.974 5136174 5091483 5058094 5035233 5017970 4997557 4964577 4912766 
2178.832 4841326 4757604 4674635 4604541 4557193 4535529 4533654 4542092 
2182.689 4551098 4554715 4551936 4546645 4542895 4543297 4548018 4554648 
2186.546 4560373 4564760 4568778 4574069 4580866 4587931 4590343 4583880 
2190.404 4565831 4537840 4505095 4474831 4452770 4441991 4441221 4446544 
2194.261 4453774 4461373 4469475 4481259 4499169 4523844 4553141 4583311 
2198.119 4609698 4630025 4643790 4651493 4654641 4653837 4647976 4637058 
2201.976 4621184 4603134 4587429 4578991 4581335 4594897 4617601 4644694 
2205.833 4670750 4691516 4705014 4710507 4709000 4701832 4691047 4679693 
2209.691 4671253 4669812 4678621 4698516 4727758 4762562 4797437 4828092 
2213.548 4853556 4874766 4894704 4915648 4937632 4957572 4971816 4976877 
2217.406 4972252 4961896 4952143 4949228 4957070 4974732 4997591 5019244 
2221.263 5033791 5038048 5033121 5021925 5008752 4996417 4987100 4980866 
2225.121 4978486 4980765 4989211 5005032 5028528 5057725 5089539 5120517 
2228.978 5148110 5171078 5190393 5206086 5218426 5226743 5229460 5225771 
2232.835 5217085 5205851 5196496 5192874 5197401 5210211 5230030 5254545 
2236.693 5281812 5311528 5343428 5376538 5409482 5438972 5462090 5477324 
2240.550 5486048 5491752 5499806 5514940 5538431 5569105 5603004 5634925 
2244.408 5662551 5685479 5706025 5727914 5753733 5783886 5816559 5848663 
2248.265 5877042 5900183 5918421 5932394 5943748 5953220 5961081 5967329 
2252.123 5973477 5981606 5994842 6015705 6044498 6078870 6114959 6146750 
2255.980 6169267 6179483 6176492 6161436 6137071 6105987 6071276 6035628 
2259.837 6001360 5970923 5945830 5926583 5912174 5901023 5890711 5879628 
2263.695 5868343 5858839 5853969 5856455 5867537 5886345 5910125 5935451 
2267.552 5958998 5978751 5993800 6004417 6011035 6014092 6013924 6011102 
2271.410 6006970 6002401 5999579 5999680 6002871 6008818 6016679 6025549 
2275.267 6035023 6046178 6059449 6075712 6095066 6116673 6139222 6161738 
2279.125 6183013 6202708 6220589 6236286 6249665 6260623 6269161 6276321 
2282.982 6283347 6291886 6302476 6314814 6327321 6337541 6344097 6346350 
2286.839 6345375 6343526 6343156 6345341 6349645 6354319 6356369 6354083 
2290.697 6346652 6335221 6321908 6309233 6298979 6292256 6289264 6289768 
2294.554 6293870 6301736 6313335 6328464 6345846 6363766 6380242 6393726 
2298.412 6404049 6411716 6417567 6423014 6427924 6432632 6436600 6439593 
2302.269 6442351 6445512 6450590 6458190 6468246 6479782 6491889 6503627 
2306.126 6515131 6527038 6540694 6557008 6576552 6599428 6625063 6653425 
2309.984 6684481 6718703 6756393 6796914 6838617 6879582 6917657 6951291 
2313.841 6980483 7006208 7030049 7053319 7076859 7100536 7123439 7145030 
2317.699 7164769 7183027 7200746 7218332 7237063 7257076 7278775 7301990 
2321.556 7326286 7349706 7368983 7379936 7377375 7357221 7317996 7261422 
2325.414 7192897 7119903 7050894 6993244 6950887 6924727 6912573 6910756 
2329.271 6915199 6922741 6931831 6941527 6951392 6960954 6969876 6977620 
2333.128 6984893 6992772 7003043 7016882 7035134 7057293 7082248 7108485 
2336.986 7135160 7162074 7189831 7218803 7249495 7281638 7314694 7348122 
2340.843 7381621 7415493 7449772 7484087 7516686 7544769 7565032 7575383 
2344.701 7575316 7567258 7556435 7549456 7553569 7574001 7613688 7673073 
2348.558 7749500 7838187 7933741 8029250 8117825 8194228 8254639 8297259 
2352.416 8323670 8336235 8339071 8335728 8329310 8322252 8316644 8314652 
2356.273 8318232 8328972 8347043 8371195 8398928 8426629 8450616 8469029 
2360.130 8480787 8486261 8486767 8483997 8479503 8475077 8472982 8475246 
2363.988 8483930 8500283 8523935 8553131 8584899 8616262 8645127 8671187 
2367.845 8694849 8717329 8739642 8761752 8782749 8801852 8818455 8833569 
2371.703 8848448 8864680 8882773 8902219 8920990 8937157 8949537 8958297 
2375.560 8965197 8972706 8982990 8996926 9014145 9033191 9052509 9071692 
2379.417 9090977 9111583 9134762 9161055 9190159 9221160 9252941 9285030 
2383.275 9317764 9351991 9388251 9426749 9466403 9506060 9544568 9581793 
2387.132 9618548 9656727 9698400 9744415 9794298 9846221 9898013 9947643 
2390.990 9994260 10037966 10079914 10121424 10163209 10205440 10247912 
2394.365 10290321 10332496 10375354 10419200 10464476 10511354 10559049 
2397.740 10606955 10655070 10703257 10752096 10802332 10853900 10906084 
2401.115 10958140 11008876 11058156 11106797 11156462 11209296 11267304 
2404.491 11331851 11402870 11480023 11561853 11647305 11734784 11823164 
2407.866 11910950 11996948 12080477 12160989 12239470 12317386 12396885 
2411.241 12479877 12567318 12659417 12754980 12852579 12950097 13045793 
2414.616 13137856 13224611 13304515 13375822 13437573 13489489 13532966 
2417.992 13569988 13603731 13637339 13673036 13712395 13755690 13802753 
2421.367 13853104 13906574 13963404 14024075 14088963 14158243 14232020 
2424.742 14310397 14393276 14481138 14573985 14672130 14775372 14883712 
2428.117 14997053 15115707 15240502 15372266 15512140 15660269 15816489 
2431.493 15979711 16148632 16322196 16499234 16679790 16863658 17050808 
2434.868 17241452 17435422 17632586 17833222 18037024 18243928 18452660 
2438.243 18661732 18868830 19072012 19270334 19464174 19655048 19845070 
2441.618 20036044 20228212 20420848 20611518 20797822 20977774 21150844 
2444.994 21317404 21478492 21634904 21786706 21933436 22073974 22208038 
2448.369 22335412 22456856 22573762 22686754 22796630 22903498 23007494 
2451.744 23109136 23209264 23309626 23411690 23516224 23623970 23734470 
2455.119 23847764 23964100 24084914 24211892 24347108 24492218 24647720 
2458.495 24812960 24986338 25165542 25348190 25531970 25714844 25895298 
2461.870 26072732 26247244 26420770 26595706 26775470 26963274 27161214 
2465.245 27370148 27589774 27819544 28059474 28311136 28577558 28862594 
2468.620 29169856 29501308 29856508 30233030 30627476 31035628 31453888 
2471.996 31879644 32310784 32744672 33179138 33611140 34037696 34456524 
2475.371 34866352 35266108 35655232 36032024 36393872 36737196 37057228 
2478.746 37349728 37611312 37839936 38034548 38195336 38322420 38416524 
2482.121 38478176 38507972 38507536 38478792 38424816 38349672 38257316 
2485.497 38152032 38037152 37914920 37787128 37653336 37512864 37364604 
2488.872 37207224 37039512 36860716 36670096 36466804 36250024 36018524 
2492.247 35770956 35506340 35223816 34923052 34604264 34267032 33911500 
2495.622 33537290 33144198 32732562 32303576 31859108 31401630 30933998 
2498.998 30458658 29977660 29493152 29006740 28520340 28036040 27556304 
2502.373 27082988 26617970 26162108 25715970 25279700 24854396 24441390 
2505.748 24042642 23660148 23295188 22948316 22618716 22304646 22004398 
2509.123 21716266 21440270 21176832 20927390 20693558 20476800 20278098 
2512.499 20097986 19936506 19794228 19670962 19566274 19479698 19409736 
2515.874 19354616 19313114 19284224 19267530 19263268 19271824 19292538 
2519.249 19324476 19365494 19413306 19466252 19522948 19583222 19647284 
2522.624 19715478 19787744 19863626 19941952 20021956 20102670 20183504 
2526.000 20263622 20341464 20414700 20480378 20535502 20576532 20601928 
2529.375 20610024 20600644 20573892 20530120 20470026 20394522 20305180 
2532.750 20204468 20095104 19980496 19863558 19746754 19631994 19520454 
2536.125 19413098 19310204 19212182 19118130 19026902 18936940 18846822 
2539.500 18756066 18665158 18576030 18491070 18412314 18340520 18274752 
2542.876 18213000 18152572 18091320 18028906 17966224 17905000 17846996 
2546.251 17792866 17741676 17691526 17640178 17586038 17528974 17469638 
2549.626 17409658 17350616 17293584 17238834 17186466 17136556 17089612 
2553.001 17046260 17007492 16973346 16943750 16917466 16893558 16871030 
2556.377 16849638 16829316 16810442 16793222 16776966 16760951 16744008 
2559.752 16725447 16704306 16680753 16654689 16626045 16594822 16560500 
2563.127 16522914 16482439 16439766 16396547 16354397 16315108 16279915 
2566.502 16249988 16225738 16207270 16194476 16186737 16183194 16182920 
2569.878 16184639 16187735 16192136 16198739 16208576 16222781 16241975 
2573.253 16265364 16291887 16319305 16346209 16371256 16394790 16417261 
2576.628 16439972 16463924 16489459 16516374 16544495 16573478 16603772 
2580.003 16636167 16671492 16710710 16754203 16801830 16853014 16906922 
2583.379 16962702 17019656 17077550 17136142 17195498 17255932 17317892 
2586.754 17382138 17449150 17519452 17593076 17669786 17748856 17829700 
2590.129 17911836 17995094 18078954 18163352 18247278 18329496 18408616 
2593.504 18483290 18552688 18616942 18676916 18733580 18787930 18840766 
2596.880 18892258 18942408 18991246 19039086 19086484 19134368 19183370 
2600.255 19233862 19285888 19339094 19393244 19448544 19505308 19564470 
2603.630 19626760 19693254 19764510 19840874 19922386 20009154 20100762 
2607.005 20196902 20296952 20400496 20507264 20616972 20729978 20846940 
2610.381 20968248 21094352 21225156 21359934 21497746 21637518 21778378 
2613.756 21919774 22061252 22202216 22342178 22480304 22615610 22747676 
2617.131 22876186 23001414 23123882 23243800 23361266 23475864 23586780 
2620.506 23693458 23795296 23892328 23985108 24074232 24160116 24242934 
2623.882 24322648 24399258 24472376 24542316 24609076 24672830 24733472 
2627.257 24790930 24844502 24894186 24939592 24981072 25019364 25055272 
2630.632 25089638 25123516 25157432 25191630 25225830 25259402 25290764 
2634.007 25318756 25341516 25358132 25368248 25372604 25373060 25371654 
2637.383 25370602 25371340 25374184 25378926 25384686 25390588 25397052 
2640.758 25404674 25414864 25429056 25448730 25474556 25506566 25544728 
2644.133 25588410 25637160 25690412 25747682 25808086 25870750 25934972 
2647.508 26000292 26066820 26134906 26205394 26278502 26354120 26431582 
2650.884 26509798 26587604 26664122 26739244 26813318 26886986 26961088 
2654.259 27036050 27112152 27189328 27267574 27346716 27427038 27508150 
2657.634 27590268 27673142 27756350 27839502 27922532 28005328 28088246 
2661.009 28171638 28256074 28341692 28428990 28518110 28609302 28702352 
2664.385 28797052 28892658 28988532 29083188 29176306 29266784 29354834 
2667.760 29440778 29525246 29609236 29693134 29777688 29863288 29950254 
2671.135 30039296 30131092 30226246 30325506 30429018 30536642 30647922 
2674.510 30762146 30878818 30997620 31118450 31241378 31366832 31495214 
2677.885 31626906 31761956 31900648 32042742 32187588 32334630 32482930 
2681.261 32631784 32780726 32930146 33080548 33232824 33387840 33546276 
2684.636 33708240 33873920 34043104 34215904 34392288 34572508 34756680 
2688.011 34944632 35135964 35329936 35525868 35723288 35922312 36123368 
2691.386 36326968 36534160 36745240 36960640 37180296 37403860 37630860 
2694.762 37860724 38092776 38326436 38561380 38797648 39035924 39277200 
2698.137 39523000 39774388 40032352 40296940 40567148 40841744 41119104 
2701.512 41397652 41676352 41954568 42231908 42508256 42783240 43057012 
2704.887 43329416 43600600 43870748 44140068 44408640 44676128 44942276 
2708.263 45206856 45469872 45731832 45993576 46256076 46520352 46786968 
2711.638 47056112 47327860 47602036 47879080 48159124 48442672 48729340 
2715.013 49018344 49307844 49595304 49877936 50153096 50418268 50672320 
2718.388 50914188 51144636 51364428 51575676 51780792 51982792 52184812 
2721.764 52390068 52601140 52820624 53050252 53291688 53546304 53815168 
2725.139 54098536 54395984 54706788 55029028 55361064 55701148 56048136 
2728.514 56401512 56760956 57125836 57494840 57866172 58236904 58604320 
2731.889 58966308 59321196 59668088 60006464 60335400 60653648 60959552 
2735.265 61251128 61527024 61786360 62029148 62255936 62467536 62664732 
2738.640 62848428 63019744 63180484 63333608 63482688 63632236 63786404 
2742.015 63949072 64123356 64311624 64515544 64735904 64973532 65228396 
2745.390 65499856 65786676 66086604 66396900 66714564 67035900 67356968 
2748.766 67673160 67978784 68267784 68533968 68771288 68975560 69143960 
2752.141 69275528 69370912 69431520 69458816 69453800 69416712 69346856 
2755.516 69242928 69103008 68924880 68705840 68443432 68135504 67780856 
2758.891 67379216 66931784 66440760 65909484 65341456 64741096 64113492 
2762.267 63463508 62797384 62122152 61444912 60773340 60114944 59476424 
2765.642 58864076 58283812 57739672 57235864 56775456 56360544 55992308 
2769.017 55670940 55395576 55164668 54976488 54828836 54719116 54644936 
2772.392 54603116 54590300 54602628 54635616 54684652 54745352 54812936 
2775.768 54883012 54951216 55013004 55064232 55101240 55120352 55119112 
2779.143 55095824 55050164 54982656 54895456 54791924 54676012 54552352 
2782.518 54425804 54300080 54178708 54063676 53956436 53856912 53764840 
2785.893 53678672 53596420 53514596 53429000 53334320 53225280 53096944 
2789.269 52945848 52770036 52570100 52348200 52107512 51852396 51587280 
2792.644 51316624 51045348 50778376 50520688 50277404 50053624 49853260 
2796.019 49680372 49537624 49427492 49351980 49312448 49310516 49346784 
2799.394 49421624 49534508 49684716 49870504 50090248 50342140 50623728 
2802.770 50932744 51265612 51618924 51988844 52370892 52761432 53157116 
2806.145 53554364 53950432 54341944 54725504 55096804 55451744 55785120 
2809.520 56092700 56369180 56610168 56811480 56969704 57082488 57148396 
2812.895 57167484 57141028 57071192 56961548 56815672 56638440 56435508 
2816.271 56213176 55978700 55740100 55505088 55281384 55076680 54897412 
2819.646 54749936 54639520 54570200 54545104 54565204 54629564 54734980 
2823.021 54876432 55047380 55240444 55448092 55663216 55878752 56088360 
2826.396 56286264 56467244 56626816 56761712 56869948 56950592 57004804 
2829.771 57034764 57043912 57036504 57017988 56992868 56966192 56941524 
2833.147 56921240 56906432 56897444 56894004 56896348 56905452 56922864 
2836.522 56950820 56991580 57047576 57120884 57214428 57332304 57480468 
2839.897 57665920 57897480 58184620 58535800 58959512 59463276 60054440 
2843.272 60741328 61532752 62437888 63464200 64614504 65883876 67255064 
2846.648 68696568 70163632 71593272 72915096 74055528 74941504 75516080 
2850.023 75742800 75611464 75139320 74369368 73364736 72193872 70928968 
2853.398 69635952 68365504 67157168 66036528 65016328 64100280 63284732 
2856.773 62561288 61918132 61341868 60819992 60340692 59894136 59472852 
2860.149 59070236 58681076 58299996 57921404 57540008 57151004 56750648 
2863.524 56336888 55909164 55469396 55021204 54570128 54124360 53692956 
2866.899 53286632 52916468 52592016 52320952 52107996 51954636 51858968 
2870.274 51816372 51820140 51860908 51928420 52011364 52097200 52175024 
2873.650 52235220 52270908 52278796 52258688 52212428 52143492 52055776 
2877.025 51952472 51836268 51709908 51575860 51436824 51295628 51154964 
2880.400 51016912 50883156 50754948 50633636 50520612 50418008 50327624 
2883.775 50251252 50189508 50142684 50109844 50089988 50082180 50085900 
2887.151 50100996 50127620 50165592 50214612 50274352 50344332 50424520 
2890.526 50515296 50617436 50732196 50861476 51007228 51171808 51358500 
2893.901 51570936 51813048 52088648 52400460 52749236 53133488 53548740 
2897.276 53987576 54439516 54892224 55332004 55744656 56118636 56445392 
2900.652 56721460 56949420 57137136 57297556 57444728 57593992 57759200 
2904.027 57951204 58179848 58453192 58778448 59163708 59616732 60145612 
2907.402 60759428 61467396 62279688 63207464 64260916 65448076 66769816 
2910.777 68218080 69769656 71384712 73010976 74582240 76025376 77273848 
2914.153 78267024 78961808 79337240 79394008 79153952 78654008 77943776 
2917.528 77075680 76098528 75058032 73989560 72919992 71869320 70850248 
2920.903 69870952 68936112 68047408 67204576 66406392 65651020 64937480 
2924.278 64265832 63637108 63052736 62513800 62019520 61566920 61150380 
2927.654 60762936 60396052 60041660 59691960 59340528 58981756 58612016 
2931.029 58228872 57831948 57423208 57007188 56589632 56177760 55779012 
2934.404 55399720 55044972 54718516 54422688 54158476 53926312 53725576 
2937.779 53555188 53413340 53298468 53208872 53143860 53103792 53089376 
2941.155 53101208 53139180 53201380 53283860 53380480 53483152 53582548 
2944.530 53668736 53730980 53759588 53746128 53684184 53571528 53410452 
2947.905 53208500 52977216 52731800 52488804 52262536 52065116 51904520 
2951.280 51784224 51704088 51661576 51651948 51669900 51709612 51765448 
2954.656 51831672 51903252 51975660 52045540 52110612 52169420 52222028 
2958.031 52269264 52312768 52355008 52398592 52446296 52500284 52562360 
2961.406 52632744 52710664 52794844 52883080 52973136 53063428 53152436 
2964.781 53239176 53323084 53403560 53480380 53553048 53621048 53684184 
2968.156 53742640 53797128 53849224 53901852 53958836 54024272 54102740 
2971.532 54197660 54310668 54441356 54586804 54743020 54904176 55064984 
2974.907 55220128 55365052 55496056 55610040 55704160 55776944 55827316 
2978.282 55856144 55865036 55856896 55835116 55802824 55762628 55716328 
2981.657 55665588 55611396 55554944 55496996 55437548 55375060 55306112 
2985.033 55225132 55124376 54996080 54832444 54627688 54378672 54085964 
2988.408 53753328 53386812 52994696 52585056 52165272 51741484 51317704 
2991.783 50896680 50480084 50069388 49665736 49270504 48884388 48507060 
2995.158 48136464 47768588 47397848 47017856 46623188 46209712 45775896 
2998.534 45322400 44852584 44370728 43881632 43390084 42899716 42413732 
3001.909 41934536 41464176 41004272 40556600 40122796 39704204 39301864 
3005.284 38916424 38547728 38194904 37856712 37531000 37216104 36910316 
3008.659 36612088 36321168 36037140 35760164 35490164 35227012 34970196 
3012.035 34718848 34472380 34229636 33990216 33753504 33519286 33287414 
3015.410 33058092 32832112 32610390 32394242 32185092 31983708 31790476 
3018.785 31604848 31425998 31252950 31085276 30923040 30767374 30619442 
3022.160 30480730 30351940 30233350 30125268 30027970 29942764 29871664 
3025.536 29817610 29783578 29771232 29780846 29810302 29854912 29907764 
3028.911 29960904 30005352 30032302 30034290 30005494 29942800 29845968 
3032.286 29717296 29561670 29384722 29192712 28991330 28784520 28575364 
3035.661 28365602 28156544 27949526 27745824 27546984 27354478 27169010 
3039.037 26990882 26819910 26655032 26495462 26340458 26189276 26041946 
3042.412 25898532 25759530 25625418 25496726 25373834 25256804 25145388 
3045.787 25039264 24937872 24840852 24748064 24659820 24576782 24499406 
3049.162 24428070 24362600 24302360 24246226 24193150 24142216 24092828 
3052.538 24044884 23998240 23952756 23908256 23864602 23821792 23780316 
3055.913 23741154 23705600 23674702 23649510 23630056 23616062 23606618 
3059.288 23600984 23598780 23600004 23604692 23613544 23626944 23645312 
3062.663 23668580 23697026 23730620 23769466 23813776 23863482 23918130 
3066.039 23976986 24038756 24101796 24163722 24222332 24274712 24318022 
3069.414 24349914 24368520 24372726 24363090 24340836 24308142 24267634 
3072.789 24221736 24172412 24121340 24069784 24018970 23970122 23924502 
3076.164 23882876 23845594 23812062 23781262 23751232 23720052 23686390 
3079.540 23649474 23609590 23567470 23524480 23481634 23440014 23400254 
3082.915 23362524 23326828 23293228 23261662 23232474 23206364 23184064 
3086.290 23166486 23154672 23148696 23148660 23153798 23163024 23175188 
3089.665 23188992 23203638 23218668 23233908 23249742 23266276 23283720 
3093.041 23301970 23320708 23339798 23358818 23377946 23397282 23417668 
3096.416 23440086 23465790 23495974 23531406 23572194 23617392 23665394 
3099.791 23714452 23762572 23808632 23852700 23895234 23937736 23981396 
3103.166 24026812 24074058 24122216 24170204 24217044 24262238 24305864 
3106.542 24347914 24388814 24428630 24467188 24504522 24541018 24577412 
3109.917 24615002 24655190 24698960 24747048 24799104 24854430 24912254 
3113.292 24971704 25032104 25092904 25153708 25213190 25270428 25324166 
3116.667 25373482 25418024 25458358 25495250 25529650 25562824 25594946 
3120.042 25626402 25657300 25687706 25718184 25749122 25781364 25814908 
3123.418 25850072 25886506 25923540 25960966 25998534 26036634 26075652 
3126.793 26116010 26158132 26202018 26247526 26293884 26340636 26386652 
3130.168 26431018 26472996 26512052 26548330 26582568 26616386 26651262 
3133.543 26689172 26731562 26778818 26830942 26887232 26946422 27006994 
3136.919 27067576 27126966 27183930 27237904 27288320 27335672 27381334 
3140.294 27426826 27474370 27525556 27581618 27642420 27707220 27774754 
3143.669 27843178 27911578 27979070 28045582 28111222 28176200 28240586 
3147.044 28304734 28368574 28432528 28496704 28561350 28626644 28692442 
3150.420 28758180 28823536 28888018 28951730 29014782 29077554 29140622 
3153.795 29204122 29268308 29333388 29399080 29465316 29531736 29597672 
3157.170 29662944 29727302 29791066 29855018 29920862 29990086 30064188 
3160.545 30143664 30227632 30314242 30400944 30485350 30565722 30642126 
3163.921 30715272 30786830 30858824 30932470 31008368 31086450 31165866 
3167.296 31245616 31325058 31403198 31479572 31554070 31626548 31697936 
3170.671 31768874 31841174 31916198 31995370 32078986 32166536 32257068 
3174.046 32348656 32439798 32529068 32615676 32699406 32780510 32859236 
3177.422 32936436 33012938 33089594 33167228 33246454 33327658 33410526 
3180.797 33494874 33580172 33666416 33753720 33842328 33932780 34025008 
3184.172 34118512 34212464 34305896 34398456 34490316 34582232 34675276 
3187.547 34770392 34867464 34966180 35065556 35164780 35263664 35362792 
3190.923 35463412 35567116 35674832 35787152 35903632 36023564 36145588 
3194.298 36268684 36391784 36513688 36633432 36749600 36861580 36969440 
3197.673 37074008 37177048 37280796 37387356 37497876 37612684 37730996 
3201.048 37851400 37972452 38092924 38211832 38329404 38445736 38561344 
3204.424 38676980 38793804 38912368 39033388 39156620 39280972 39404820 
3207.799 39526160 39643180 39755944 39865544 39974440 40085256 40200648 
3211.174 40321264 40446644 40574896 40703808 40831840 40958024 41083080 
3214.549 41207840 41333404 41460060 41587660 41715672 41843384 41970668 
3217.925 42097436 42223912 42350100 42475772 42600492 42723720 42845664 
3221.300 42966796 43088036 43210488 43334616 43460540 43587488 43714912 
3224.675 43841900 43968152 44093816 44219080 44344304 44470044 44596224 
3228.050 44723028 44850344 44978248 45106012 45232892 45357304 45477488 
3231.426 45592292 45700800 45803476 45901904 45997780 46093232 46189884 
3234.801 46288844 46390924 46496680 46606364 46720180 46837824 46958528 
3238.176 47080520 47202656 47323612 47443304 47562808 47683788 47807648 
3241.551 47934948 48064288 48193664 48320668 48443712 48563044 48680488 
3244.927 48799108 48921468 49048764 49180992 49316192 49452668 49588804 
3248.302 49724692 49861216 50000236 50142980 50289976 50440632 50593984 
3251.677 50748920 50904724 51061412 51219080 51377632 51537020 51696248 
3255.052 51855196 52014016 52173456 52334708 52498788 52665996 52835592 
3258.427 53005928 53175616 53343800 53510508 53677024 53844872 54015004 
3261.803 54187828 54362712 54538380 54713932 54888688 55062992 55237396 
3265.178 55412516 55588572 55765492 55942592 56119316 56295092 56470032 
3268.553 56644328 56818508 56993204 57169184 57347128 57528244 57713748 
3271.928 57904216 58099696 58299236 58500920 58702392 58901832 59098252 
3275.304 59291572 59482884 59673712 59865612 60059884 60257360 60458808 
3278.679 60665384 60877508 61095992 61320996 61552180 61788040 62027544 
3282.054 62269168 62512228 62756760 63003504 63253148 63506536 63763724 
3285.429 64025320 64291416 64562448 64838796 65120832 65407976 65699168 
3288.805 65992944 66288464 66584960 66883356 67185248 67492528 67807000 
3292.180 68129424 68459800 68797456 69141192 69490424 69844600 70203552 
3295.555 70566656 70933488 71303256 71676032 72052064 72433040 72820496 
3298.930 73216112 73620288 74032192 74449872 74871576 75295856 75723392 
3302.306 76156096 76596416 77047152 77509608 77983424 78467000 78958664 
3305.681 79456464 79959856 80469208 80985664 81510976 82046648 82594080 
3309.056 83154440 83728064 84315080 84914136 85523328 86140088 86762096 
3312.431 87388232 88018240 88654240 89298416 89953088 90619448 91297208 
3315.807 91985048 92681024 93384448 94095512 94815248 95544928 96284688 
3319.182 97033120 97787416 98544184 99300368 100054232 100805360 101553632 
3322.557 102299856 103043952 103785456 104524016 105259480 105992224 
3325.450 106722040 107448304 108169016 108880128 109577384 110256104 
3328.343 110913488 111548640 112161864 112754128 113325704 113875624 
3331.236 114401456 114900504 115370696 115810000 116217696 116592576 
3334.129 116932440 117235144 117497984 117719136 117899144 118039912 
3337.022 118144848 118216312 118255552 118260776 118228752 118155328 
3339.916 118037392 117873712 117664736 117411528 117115768 116777240 
3342.809 116395392 115969184 115498120 114982144 114422496 113820112 
3345.702 113175776 112489216 111760608 110990408 110181288 109337448 
3348.595 108463936 107566040 106647952 105711904 104758936 103788696 
3351.488 102801848 101799432 100783584 99756720 98721288 97679072 96631896 
3354.863 95582128 94532744 93487696 92451888 91429624 90424240 89437872 
3358.238 88471408 87524680 86597568 85690032 84802216 83934080 83085232 
3361.614 82254816 81441744 80645392 79865736 79103272 78358608 77632088 
3364.989 76922928 76229856 75551608 74887520 74238448 73606480 72993760 
3368.364 72402464 71833080 71284280 70753056 70235952 69729544 69231384 
3371.739 68740584 68256384 67778888 67307520 66841728 66381028 65924904 
3375.115 65473312 65026492 64584284 64146132 63710420 63276300 62842720 
3378.490 62409960 61979044 61552072 61130548 60715224 60305288 59898512 
3381.865 59492536 59085232 58675276 58262976 57849892 57437580 57027740 
3385.240 56621568 56219584 55822040 55428628 55038844 54651848 54266216 
3388.615 53880620 53493608 53104840 52714480 52324168 51936260 51553180 
3391.991 51176620 50807876 50446140 50090992 49740928 49395156 49053328 
3395.366 48715664 48382184 48053256 47728720 47408304 47091712 46778924 
3398.741 46469424 46162912 45858856 45556084 45253556 44950472 44646496 
3402.116 44341992 44037780 43735288 43435748 43140036 42848440 42560660 
3405.492 42276352 41994352 41713844 41434068 41154472 40874472 40594684 
3408.867 40315812 40038784 39765132 39495388 39229692 38966840 38705520 
3412.242 38443928 38181044 37916624 37651744 37388188 37128360 36873700 
3415.617 36625572 36384104 36148644 35918064 35691020 35466612 35243364 
3418.993 35020696 34797964 34575020 34352872 34132416 33915332 33702908 
3422.368 33495698 33293136 33094172 32896690 32698870 32499890 32299862 
3425.743 32099888 31901720 31707096 31516552 31330008 31146500 30964100 
3429.118 30781386 30597222 30411000 30222942 30033650 29843874 29655208 
3432.494 29469146 29286668 29109654 28938698 28773970 28614894 28460228 
3435.869 28308022 28156544 28004550 27851338 27697050 27542216 27387228 
3439.244 27232646 27078578 26924600 26770500 26616102 26461268 26306416 
3442.619 26151480 25996494 25840858 25683838 25524696 25363084 25199774 
3445.995 25036352 24875272 24719688 24571416 24431190 24298328 24170274 
3449.370 24043728 23915818 23784166 23648180 23508600 23367000 23225518 
3452.745 23085722 22948244 22812522 22678130 22543956 22409790 22276082 
3456.120 22143844 22014366 21888794 21767546 21650160 21535452 21421472 
3459.496 21306198 21188174 21066702 20942238 20816178 20690916 20568262 
3462.871 20449638 20335492 20224428 20114504 20003152 19888878 19770750 
3466.246 19650160 19528876 19409494 19293958 19182778 19075542 18970894 
3469.621 18866650 18761498 18654850 18546324 18436514 18325900 18214314 
3472.997 18101546 17987324 17871508 17754552 17637312 17521004 17406934 
3476.372 17296066 17188880 17085650 16986268 16890456 16796698 16703892 
3479.747 16610071 16513415 16412718 16308365 16201559 16095228 15992429 
3483.122 15895704 15805768 15722208 15642030 15562587 15481202 15396056 
3486.498 15307289 15215863 15122912 15030427 14939505 14850933 14765053 
3489.873 14682824 14604311 14529478 14457877 14387898 14317383 14244448 
3493.248 14167281 14085712 14000839 13914683 13830048 13749706 13675019 
3496.623 13606705 13544657 13487984 13435420 13385903 13338100 13290576 
3499.999 13241724 13190078 13134203 13073862 13009226 12941666 12873637 
3503.374 12808077 12747644 12694726 12650512 12614626 12585565 12560428 
3506.749 12535668 12507771 12474488 12434765 12389589 12341759 12294378 
3510.124 12250546 12211797 12178129 12148006 12119555 12090867 12061603 
3513.500 12032375 12004408 11978998 11956962 11937276 11918783 11899099 
3516.875 11876794 11850744 11821428 11789798 11757456 11725967 11696148 
3520.250 11668169 11641588 11615552 11588293 11558586 11524593 11485024 
3523.625 11438859 11385827 11326137 11260333 11189032 11112202 11030457 
3527.000 10944174 10853628 10760248 10665902 10572358 10481346 10394154 
3530.376 10310814 10231153 10154391 10079404 10005550 9931913 9856999 
3533.751 9779454 9697587 9610180 9516965 9419233 9319186 9219975 9124374 
3537.608 9033767 8948454 8867183 8788869 8712225 8637386 8565162 8496904 
3541.466 8433352 8374201 8317590 8261291 8202130 8138284 8069214 7995701 
3545.323 7919501 7843685 7770143 7700829 7636652 7577238 7521406 7467165 
3549.181 7411651 7352537 7287805 7216512 7139270 7058842 6978732 6902239 
3553.038 6831885 6768811 6712242 6660390 6611606 6564274 6517485 6470768 
3556.896 6422981 6373080 6319621 6261194 6197666 6130249 6061028 5993767 
3560.753 5931957 5877613 5831469 5792482 5758065 5724523 5688299 5645565 
3564.610 5592666 5526752 5446052 5350875 5243880 5131178 5020014 4918128 
3568.468 4830806 4760083 4704210 4658626 4617501 4575743 4528599 4473592 
3572.325 4410291 4339570 4263808 4185617 4108176 4034126 3965874 3904653 
3576.183 3850595 3802694 3759009 3717267 3675161 3630988 3583712 3533468 
3580.040 3480558 3425952 3370517 3315791 3262974 3214036 3170244 3132196 
3583.897 3099491 3070058 3040194 3005761 2962823 2909115 2845175 2774142 
3587.755 2701719 2634276 2576609 2531448 2498621 2476061 2460299 2447137 
3591.612 2433209 2415350 2391294 2360011 2321301 2276399 2227239 2176086 
3595.470 2125106 2075897 2029289 1985183 1943212 1903374 1865071 1829068 
3599.327 1796028 1766983 1743063 1725199 1713756 1708433 1708500 1712192 
3603.185 1717481 1722039 1723403 1718845 1706071 1683086 1648295 1601434 
3607.042 1542873 1475045 1401775 1327620 1257399 1194998 1141840 1096861 
3610.899 1057832 1021231 984367 946112 907195 869843 837175 811049 791862 
3615.239 777954 765772 750836 729594 698662 657047 605913 548781 490461 
3619.579 436694 392318 360316 340884 332096 330737 333124 336109 338231 
3623.918 339723 342111 346886 354645 363632 369303 364428 341680 295523 
3628.258 226629 143030 58319 -12524 -60100 -83589 -88193 -82429 -74545 
3632.597 -70867 -74081 -84549 -99688 -116980 -134470 -151661 -169315 -188624 
3636.937 -210151 -233267 -255785 -275587 -290455 -300024 -305256 -308600 
3640.794 -312738 -320089 -331379 -345947 -362136 -377265 -389415 -397426 
3644.652 -401630 -403418 -405040 -409078 -418546 -435229 -461411 -497719 
3648.509 -544150 -598683 -657610 -715106 -764193 -798326 -813705 -809769 
3652.367 -789264 -758504 -724930 -696515 -679974 -680106 -697639 -729462 
3656.224 -768857 -808115 -840492 -862847 -875148 -879844 -880373 -879711 
3660.082 -880108 -882952 -888209 -895980 -905800 -917009 -928714 -940187 
3663.939 -950271 -957809 -962206 -962933 -960486 -955792 -950667 -948055 
3667.796 -951725 -965677 -992356 -1031826 -1079192 -1124999 -1158971 
3671.172 -1172388 -1162639 -1132964 -1092412 -1052650 -1025413 -1020455 
3674.547 -1042073 -1086067 -1139970 -1188183 -1219111 -1229023 -1221952 
3677.922 -1206456 -1190562 -1179063 -1173842 -1173412 -1174734 -1175494 
3681.297 -1174767 -1173412 -1173181 -1174767 -1177906 -1180550 -1180451 
3684.673 -1175791 -1167233 -1157617 -1151007 -1151701 -1162540 -1183491 
3688.048 -1211214 -1241049 -1268108 -1290011 -1307090 -1320964 -1333319 
3691.423 -1344087 -1351354 -1352444 -1345375 -1330016 -1308874 -1286113 
3694.798 -1266555 -1253968 -1250003 -1253439 -1260873 -1268372 -1272337 
3698.174 -1271478 -1266555 -1260377 -1256082 -1256181 -1261566 -1271213 
3701.549 -1282512 -1292621 -1299393 -1302168 -1302036 -1300285 -1298733 
3704.924 -1298369 -1299294 -1300847 -1302069 -1302036 -1300219 -1296849 
3708.299 -1292687 -1289284 -1288293 -1291564 -1300682 -1316538 -1338108 
3711.675 -1362882 -1387092 -1405555 -1414010 -1410311 -1394722 -1369653 
3715.050 -1339298 -1308213 -1280596 -1259122 -1244518 -1235598 -1230080 
3718.425 -1225256 -1219342 -1212106 -1204473 -1198360 -1195320 -1195882 
3721.800 -1199384 -1204209 -1207976 -1209264 -1207876 -1204870 -1202457 
3725.176 -1203118 -1208108 -1217359 -1228891 -1239034 -1244221 -1241875 
3728.551 -1231864 -1216071 -1198559 -1184680 -1178369 -1182632 -1197072 
3731.926 -1218251 -1240587 -1259320 -1271478 -1277490 -1280794 -1284725 
3735.301 -1292257 -1302763 -1313268 -1319577 -1318487 -1309237 -1293249 
3738.677 -1272766 -1250366 -1226974 -1203383 -1179889 -1158311 -1142514 
3742.052 -1138846 -1154676 -1195519 -1260641 -1339298 -1413250 -1461433 
3745.427 -1472330 -1447365 -1398652 -1341048 -1288128 -1250366 -1231831 
3748.802 -1232228 -1246798 -1268835 -1292257 -1313895 -1332163 -1346928 
3752.177 -1356474 -1357663 -1347556 -1325391 -1292324 -1253241 -1213593 
3755.553 -1178799 -1152528 -1136136 -1128601 -1127213 -1129890 -1134715 
3758.928 -1141159 -1149685 -1159500 -1168687 -1174965 -1175957 -1170603 
3762.303 -1160359 -1147967 -1137326 -1131510 -1131972 -1137491 -1146117 
3765.678 -1154444 -1160326 -1163730 -1166142 -1170108 -1177609 -1189273 
3769.054 -1204044 -1219441 -1232195 -1239364 -1239662 -1233021 -1220267 
3772.429 -1202953 -1182632 -1160558 -1138020 -1116208 -1095717 -1077341 
3775.804 -1061641 -1049279 -1041214 -1038437 -1041577 -1050832 -1064979 
3779.179 -1081472 -1096742 -1107814 -1112804 -1112242 -1108276 -1103980 
3782.555 -1102327 -1105170 -1112408 -1122256 -1132435 -1140631 -1145588 
3785.930 -1147108 -1145951 -1142647 -1137557 -1130155 -1120604 -1109202 
3789.305 -1097172 -1086364 -1078365 -1073970 -1071953 -1070301 -1066533 
3792.680 -1058997 -1048089 -1036586 -1028686 -1028355 -1037908 -1056352 
3796.056 -1079192 -1099551 -1111052 -1109962 -1096907 -1076349 -1055427 
3799.431 -1042866 -1045478 -1066599 -1103815 -1148628 -1188084 -1210123 
3802.806 -1207976 -1181838 -1137756 -1085372 -1036156 -1000389 -985083 
3806.181 -992819 -1020058 -1057542 -1093305 -1118125 -1127147 -1120703 
3809.557 -1102030 -1075259 -1043131 -1007496 -968355 -925937 -881960 -839897 
3813.414 -805701 -785692 -785692 -807785 -848759 -899022 -945576 -977083 
3817.271 -987199 -976752 -952320 -923391 -900014 -890689 -900477 -928615 
3821.129 -968487 -1009348 -1040453 -1055030 -1051923 -1034768 -1009513 
3824.504 -982868 -959362 -941840 -930069 -921076 -911124 -896906 -877231 
3828.362 -853191 -828124 -805866 -790190 -782517 -782715 -787974 -794853 
3832.219 -799649 -799814 -794952 -786287 -776563 -769121 -766905 -772164 
3836.076 -785692 -806627 -832059 -857986 -880009 -894624 -900378 -898295 
3839.934 -890954 -881861 -874685 -871643 -873792 -881232 -892574 -905933 
3843.791 -919125 -929673 -935789 -936153 -930235 -918233 -900841 -879281 
3847.649 -854844 -828653 -801104 -773090 -745637 -721159 -703792 -699856 
3851.506 -716396 -759033 -829612 -921043 -1017215 -1099122 -1150974 -1167762 
3855.364 -1153949 -1119513 -1074631 -1027297 -982240 -941575 -905437 -873561 
3859.221 -845552 -821344 -801765 -786882 -777059 -771734 -770510 -773189 
3863.078 -779970 -790653 -804709 -819029 -829480 -831530 -821939 -800740 
3866.936 -772263 -743950 -724037 -720432 -736871 -771238 -814631 -854844 
3870.793 -882026 -891384 -885597 -871081 -856398 -847767 -847503 -853621 
3874.651 -860334 -861392 -852199 -830968 -800178 -764821 -730620 -703065 
3878.508 -686689 -683580 -693306 -712526 -735780 -756718 -769287 -770577 
3882.365 -760687 -743057 -723640 -709681 -707597 -721159 -748945 -784865 
3886.223 -819459 -843072 -850314 -840327 -817541 -788139 -759364 -737599 
3890.080 -726022 -725029 -731910 -742296 -751558 -756552 -755924 -750367 
3893.938 -740940 -728503 -713749 -696912 -678320 -658404 -638851 -621447 
3897.795 -608477 -601727 -601893 -608577 -620091 -634252 -649504 -664590 
3901.653 -679841 -695787 -713286 -731910 -750499 -767037 -778481 -782814 
3905.510 -778779 -767037 -748846 -726485 -701973 -677592 -654798 -634880 
3909.367 -618900 -607187 -599709 -595904 -594282 -592860 -589849 -583859 
3913.225 -574793 -563740 -552887 -544911 -541966 -545110 -553615 -565130 
3917.082 -577043 -586705 -592595 -594514 -593422 -589915 -584620 -577506 
3920.940 -568175 -556758 -543786 -531078 -520455 -514035 -512546 -515094 
3924.797 -519826 -524029 -525419 -522673 -516219 -506919 -496461 -485870 
3928.655 -475842 -466574 -458465 -452242 -449098 -450554 -457571 -469983 
3932.512 -485870 -502518 -516749 -526114 -529821 -528795 -524923 -520058 
3936.369 -515954 -512744 -510163 -507383 -503808 -499473 -495832 -494442 
3940.227 -496891 -504073 -515657 -529920 -544547 -556857 -564766 -566983 
3944.084 -563674 -555765 -545077 -533858 -523831 -516782 -513638 -514730 
3947.942 -519363 -526710 -534950 -542529 -547658 -549114 -545904 -537730 
3951.799 -525055 -509038 -491298 -474286 -460219 -450786 -446549 -447244 
3955.656 -451150 -456082 -459756 -460716 -458498 -453897 -447906 -442048 
3959.514 -437215 -433640 -431058 -429238 -428145 -428145 -429403 -432349 
3963.371 -436983 -442478 -447277 -450290 -450091 -446450 -439929 -431522 
3967.229 -422981 -415335 -409575 -405901 -403981 -403021 -402226 -400571 
3971.086 -397625 -393023 -387131 -380510 -374154 -368989 -365447 -363593 
3974.944 -363030 -362566 -361077 -357766 -352469 -345814 -338564 -331876 
3978.801 -326810 -323665 -322738 -323665 -326512 -330916 -336809 -343828 
3982.658 -351476 -358792 -365149 -369651 -372035 -372697 -372233 -371108 
3986.516 -369750 -367930 -365314 -361275 -355647 -348695 -341312 -334160 
3990.373 -327969 -322671 -318069 -313566 -309030 -304726 -301348 -299594 
3994.231 -300587 -304097 -309626 -316314 -322671 -328068 -332339 -335551 
3998.088 -338034 -340318 -342172 -343099 -343000 -341775 
##END=
