
##TITLE=1731a_2_a
##JCAMP-DX=5.01  $$ Nicolet v. 1
##DATATYPE=INFRARED SPECTRUM
##ORIGIN=UniL
##OWNER=Nicolet
##LONGDATE=2011/09/22
##TIME=10:14:38
##SPECTROMETER/DATA SYSTEM=Nicolet iS5
##DATA PROCESSING=
Ratio against background
%Transmittance->Absorbance
Truncated
ElementMultiply or ElementDivide
##COMMENTS=
Number of sample scans: 32
Collection length: 51.19 sec
Sample gain: 2.0
Background collected on: Jeu Sep 22 10:11:43 2011 (GMT+02:00);
Number of background scans: 32
Background gain: 2.0
Sample spacing:  1.000
Number of scan points: 12415
Resolution points: 8192
Number of FFT points: 65536
Apodization: N-B fort;
Phase correction: Mertz;
Laser frequency: 15798.0 cm-1
Number of rejected sample scans: 0
Number of rejected background scans: 0
Bench serial number: ASB1000141;
##RESOLUTION=4.000
##XUNITS=1/CM
##YUNITS=ABSORBANCE
##FIRSTX=649.893372
##LASTX=4000.122314
##FIRSTY=0.109895
##MAXX=4000.122314
##MINX=649.893372
##MAXY=0.268366
##MINY=-0.003498
##XFACTOR=1.000000
##YFACTOR=1.000000E-009
##NPOINTS=6950
##DELTAX=0.482117
##ZPD=6100
##XYDATA=(X++(Y..Y))
649.893 109894976 109518664 109226352 108979376 108727608 108441312 
652.786 108126176 107821128 107574520 107420464 107358400 107360472 
655.679 107388520 107419320 107455936 107521768 107639088 107809576 
658.571 108003576 108172552 108266496 108261776 108168808 108026656 
661.464 107880592 107758104 107662944 107579320 107487088 107376424 
664.357 107251232 107116928 106964688 106756280 106420856 105875592 
667.250 105079744 104086336 103054576 102166184 101530944 101141104 
670.142 100907168 100707912 100439216 100045264 99518312 98894840 98227016 
673.517 97559432 96907280 96257760 95587208 94883752 94160816 93453432 
676.892 92799944 92221680 91712896 91245328 90785216 90310000 89820400 
680.267 89336144 88881792 88469904 88095952 87741176 87388680 87033872 
683.642 86691008 86382368 86126472 85922120 85747016 85564520 85342856 
687.016 85070560 84761536 84448432 84164672 83930176 83743016 83583480 
690.391 83428472 83266248 83102000 82953984 82840168 82767720 82727504 
693.766 82700336 82667744 82624256 82581056 82560424 82581736 82649824 
697.141 82749632 82851920 82927712 82957992 82943272 82899272 82848112 
700.516 82804640 82771848 82741904 82703896 82652472 82591760 82531328 
703.890 82479840 82437256 82393392 82332512 82243688 82126984 81996704 
707.265 81875176 81779888 81718016 81682896 81660512 81640192 81625760 
710.640 81637520 81709696 81875616 82153448 82539104 83004440 83502160 
714.015 83973672 84365256 84629904 84732424 84653536 84388104 83948664 
717.390 83366080 82693112 82001936 81372048 80889816 80631224 80648136 
720.765 80961432 81545152 82324344 83164512 83893392 84327792 84296296 
724.139 83696248 82516144 80849024 78865048 76777752 74793760 73051744 
727.514 71617032 70479384 69583520 68858096 68245840 67716808 67260752 
730.889 66875896 66555948 66284292 66039576 65805368 65576108 65359020 
734.264 65165676 65002748 64865612 64738864 64603924 64450392 64281160 
737.639 64111992 63961312 63840784 63748524 63670672 63588536 63490316 
741.013 63377352 63263340 63166260 63097788 63057288 63032388 63006988 
744.388 62969564 62920040 62868340 62827520 62803552 62791600 62775792 
747.763 62739000 62671052 62574872 62464668 62358512 62269744 62199116 
751.138 62137480 62072036 61995288 61910680 61831400 61771884 61740984 
754.513 61736512 61746408 61755804 61755724 61747740 61743464 61757024 
757.888 61796828 61861852 61942624 62027468 62109536 62192004 62285424 
761.262 62402160 62549500 62725408 62920964 63128868 63349672 63599280 
764.637 63907036 64315312 64872340 65623580 66609672 67854224 69353264 
768.012 71056288 72856552 74594080 76055576 77029784 77352712 76949944 
771.387 75872560 74289320 72454728 70621264 68994824 67684400 66688208 
774.762 65920508 65252268 64569788 63798108 62921116 61969492 61000540 
778.136 60071944 59223288 58474416 57825512 57264516 56772512 56329720 
781.511 55918208 55523728 55139648 54768916 54423664 54120716 53875516 
784.886 53697344 53585584 53532848 53530972 53576440 53674136 53835800 
788.261 54073544 54396024 54804064 55293996 55861492 56508636 57245728 
791.636 58091472 59066364 60186984 61463844 62900396 64497092 66254848 
795.010 68176368 70263888 72515216 74921304 77466432 80135584 82924736 
798.385 85851784 88962216 92320352 96002760 100071712 104548544 109388040 
801.760 114454448 119524248 124263328 128276560 131167856 132576136 
804.653 132286728 130279512 126758736 122108088 116816168 111386576 
807.546 106189856 101427400 97107376 93091048 89162832 85121224 80861352 
810.920 76390928 71827768 67340296 63112580 59289140 55950168 53121992 
814.295 50783292 48886500 47368652 46165196 45216048 44463696 43862940 
817.670 43380968 42997708 42704452 42498392 42375192 42325880 42336872 
821.045 42394116 42489292 42623084 42804488 43045012 43354020 43733528 
824.420 44178620 44681196 45235024 45838752 46494944 47205836 47968512 
827.794 48772600 49603884 50451720 51316920 52217472 53189996 54288588 
831.169 55572756 57105996 58948964 61147176 63723052 66654140 69859504 
834.544 73171248 76331992 79035776 80935040 81727896 81232640 79418712 
837.919 76432224 72550184 68145664 63589156 59192644 55197100 51735736 
841.294 48856428 46541304 44731144 43345524 42296696 41508288 40914044 
844.669 40462280 40119416 39863108 39679552 39559620 39493864 39471836 
848.043 39483628 39521548 39582412 39667644 39781468 39927832 40107168 
851.418 40316936 40552596 40810548 41089996 41393684 41726248 42091632 
854.793 42491628 42925612 43393268 43896956 44444608 45049628 45728076 
858.168 46497672 47375196 48377076 49523552 50841732 52364648 54131976 
861.543 56177084 58514188 61121392 63928916 66815756 69601056 72079248 
864.917 74038008 75282928 75687184 75204088 73884120 71861544 69342304 
868.292 66571244 63773164 61146796 58832204 56901184 55377208 54244212 
871.667 53467148 53001060 52799896 52818716 53007088 53313416 53686808 
875.042 54078460 54452620 54790116 55089580 55365392 55643028 55953712 
878.417 56324892 56775836 57310564 57913912 58546720 59147988 59647824 
881.792 59973824 60071604 59920648 59539848 58986500 58338724 57685780 
885.166 57102556 56638592 56319348 56147328 56112304 56199180 56393968 
888.541 56684912 57060348 57507816 58013796 58564692 59150304 59764348 
891.916 60403900 61066512 61748620 62443396 63143080 63841476 64536572 
895.291 65230972 65928692 66630112 67327680 68002728 68629504 69181184 
898.666 69634440 69977088 70207752 70334040 70367704 70321536 70208968 
902.040 70043816 69843120 69628096 69421408 69245640 69120256 69059576 
905.415 69075272 69178960 69383544 69705080 70159536 70759408 71511536 
908.790 72416088 73468680 74664704 76002760 77486000 79120320 80910048 
912.165 82854608 84947536 87178480 89539336 92029144 94658192 97448448 
915.540 100429192 103628784 107071264 110767568 114711600 118871440 
918.432 123180944 127535272 131769088 135666320 138980112 141439520 
921.325 142819584 142986320 141938064 139829536 136964960 133785248 
924.218 130770344 128409640 127137672 127237424 128824400 131796744 
927.110 135856416 140503360 145107808 149050240 151755296 152831760 
930.003 152128512 149714224 145833280 140806416 134982448 128658472 
932.896 122065072 115390496 108780512 102363640 96268184 90607568 85483992 
936.271 80983192 77160008 74048144 71660088 69989664 69014712 68692768 
939.646 68959912 69716552 70826144 72129000 73433832 74549072 75312328 
943.020 75595456 75336840 74543568 73290672 71701392 69922088 68106592 
946.395 66378908 64827180 63502012 62417116 61562648 60916124 60452944 
949.770 60148696 59980408 59927684 59968196 60080848 60248184 60456948 
953.145 60700628 60977812 61289248 61634620 62010996 62413060 62835372 
956.520 63274884 63732676 64212472 64719060 65255196 65819444 66407480 
959.894 67013124 67631504 68260696 68900928 69552992 70216368 70888040 
963.269 71563264 72238016 72910712 73583704 74262272 74951464 75654488 
966.644 76370784 77097840 77833008 78576608 79332744 80108128 80910168 
970.019 81743448 82608944 83505208 84430608 85386168 86377200 87411448 
973.394 88496472 89637360 90834424 92084528 93383992 94731416 96129000 
976.768 97581368 99092024 100660576 102280392 103940248 105625776 107324416 
980.143 109026008 110722496 112405208 114063008 115680072 117239616 
983.036 118726352 120130792 121450120 122686256 123841352 124913064 
985.929 125892936 126767872 127525584 128158688 128668544 129064112 
988.821 129360704 129576192 129728224 129837720 129928512 130028408 
991.714 130169464 130380464 130682368 131084424 131583112 132165792 
994.607 132816208 133522112 134275936 135074608 135915328 136791120 
997.500 137689584 138595648 139494944 140379056 141247184 142103392 
1000.392 142951584 143791136 144614480 145409696 146165840 146877504 
1003.285 147547568 148186288 148807552 149423680 150044928 150681328 
1006.178 151345280 152056144 152840816 153727152 154741392 155900624 
1009.070 157210192 158665296 160254912 161966576 163786032 165696496 
1011.963 167675216 169688784 171695856 173655472 175532096 177307664 
1014.856 178983344 180576512 182110896 183607824 185080208 186531104 
1017.748 187959088 189364080 190753344 192142496 193555136 195017584 
1020.641 196561056 198222080 200040592 202065392 204346896 206927008 
1023.534 209834736 213075488 216633312 220472000 224547072 228814080 
1026.427 233225824 237734080 242280096 246781712 251140304 255241104 
1029.320 258960640 262188672 264825888 266783808 267987552 268365824 
1032.213 267858096 266428944 264078256 260854032 256844736 252177808 
1035.106 246998224 241447696 235673776 229818144 224016864 218414896 
1037.999 213147872 208335600 204084032 200466656 197530464 195297936 
1040.892 193764784 192897456 192619440 192809312 193281520 193788192 
1043.785 194062304 193824192 192839392 190971584 188189312 184579216 
1046.678 180311856 175624080 170766480 165963856 161415376 157261344 
1049.571 153584288 150418912 147752576 145541424 143719168 142216560 
1052.464 140968752 139919968 139030032 138266576 137600016 137001296 
1055.357 136436912 135871008 135271808 134610912 133866728 133024600 
1058.250 132072496 131002024 129809752 128500816 127092656 125615376 
1061.144 124112496 122631632 121218432 119914048 118748432 117743248 
1064.037 116913264 116266496 115802296 115507280 115353584 115293784 
1066.930 115263888 115196576 115023768 114691616 114169840 113450240 
1069.823 112547424 111490304 110319240 109077336 107803840 106534416 
1072.716 105293848 104095264 102940752 101823520 100732856 99659544 98601112 
1076.091 97563456 96560800 95609792 94727416 93926248 93213048 92590464 
1079.466 92058144 91613944 91253016 90966936 90742624 90560952 90400776 
1082.842 90243440 90077176 89901696 89728480 89580096 89484728 89471744 
1086.217 89570816 89807320 90202040 90771448 91524344 92460288 93567304 
1089.592 94823160 96196104 97650032 99153216 100679376 102211168 103739088 
1092.967 105253568 106741112 108180504 109539976 110783344 111877288 
1095.860 112797776 113539440 114119968 114584192 114996440 115432504 
1098.753 115968104 116653208 117498760 118459376 119438344 120289688 
1101.646 120841328 120941080 120471728 119384168 117704320 115527472 
1104.540 112998192 110274560 107522320 104882984 102459904 100325488 
1107.433 98512304 97020656 95825816 94887056 94156048 93580456 93114328 
1110.808 92716384 92349000 91980328 91579088 91115264 90564872 89910128 
1114.183 89144400 88272656 87310440 86280144 85205152 84109136 83012864 
1117.558 81933552 80887376 79887760 78944600 78063440 77243840 76479752 
1120.934 75761264 75077680 74420416 73783152 73162000 72552424 71946312 
1124.309 71331408 70690584 70005120 69260376 68447816 67569560 66637568 
1127.684 65674112 64707712 63767596 62882856 62076168 61360336 60737936 
1131.059 60199960 59729636 59302888 58896748 58491592 58075228 57645184 
1134.435 57207700 56776248 56367256 55998416 55686080 55442748 55277060 
1137.810 55192472 55186716 55251244 55371904 55531524 55710412 55890168 
1141.185 56056768 56200388 56315876 56401928 56458600 56486600 56486864 
1144.560 56461620 56414380 56350808 56278496 56205140 56138056 56083384 
1147.936 56045684 56029248 56038636 56078220 56152648 56265408 56417284 
1151.311 56606996 56830896 57084604 57364256 57667128 57991380 58335656 
1154.686 58697612 59073616 59458756 59847856 60236196 60619668 60994288 
1158.061 61355568 61696600 62009200 62283508 62509700 62679932 62788352 
1161.437 62830544 62803164 62701672 62520912 62255400 61900672 61455028 
1164.812 60920016 60299808 59600048 58827272 57988576 57091480 56145860 
1168.187 55164440 54162004 53154832 52159444 51189408 50256536 49369948 
1171.562 48536736 47763524 47056480 46420936 45861728 45382208 44984168 
1174.938 44668524 44436644 44290072 44232580 44268904 44404568 44645280 
1178.313 44996808 45464320 46054252 46774088 47632724 48641200 49810116 
1181.688 51149224 52667080 54369360 56259672 58338536 60601532 63034572 
1185.063 65607972 68275344 70963144 73575032 76003392 78126312 79829496 
1188.438 81020560 81630320 81628112 81022560 79862152 78225440 76212640 
1191.814 73938256 71508136 69017432 66546680 64153276 61880648 59759140 
1195.189 57807344 56036524 54450144 53045012 51811628 50735512 49799784 
1198.564 48985300 48273044 47645736 47086208 46578700 46108780 45663140 
1201.939 45231676 44808172 44390436 43980436 43582540 43201812 42841896 
1205.315 42503980 42186704 41887392 41602432 41328812 41065048 40810516 
1208.690 40565616 40331224 40109496 39903460 39718004 39560348 39438888 
1212.065 39362552 39340136 39378732 39483340 39657300 39901828 40217368 
1215.440 40602328 41053648 41565820 42130620 42738308 43378072 44039764 
1218.816 44716196 45402476 46096804 46799444 47512384 48238868 48983444 
1222.191 49752668 50554636 51397956 52291016 53239996 54247140 55310176 
1225.566 56422152 57571592 58741916 59913156 61062088 62162524 63191408 
1228.941 64129808 64968764 65711348 66373736 66983932 67575288 68186448 
1232.317 68856312 69621008 70517264 71580296 72842128 74334416 76083448 
1235.692 78108456 80422032 83028664 85926240 89105312 92550408 96236960 
1239.067 100126616 104170304 108305528 112459856 116564712 120556392 
1241.960 124382568 128006312 131398336 134533680 137387248 139927968 
1244.853 142118096 143914208 145262640 146103248 146375520 146019168 
1247.746 144989408 143264832 140852064 137784736 134115856 129910560 
1250.639 125233520 120149064 114725960 109036056 103164400 97209568 91270840 
1254.015 85452360 79852440 74550136 69612656 65086380 60994440 57341304 
1257.390 54111632 51275828 48792176 46613632 44694232 42987940 41456048 
1260.765 40067708 38798260 37630824 36554668 35562764 34651344 33817792 
1264.140 33059842 32374930 31759780 31210010 30720642 30285430 29897682 
1267.516 29550816 29238856 28957398 28704620 28480924 28289138 28133140 
1270.891 28017308 27945568 27920870 27946028 28024024 28158488 28354072 
1274.266 28616132 28949534 29357104 29837982 30384596 30980434 31600394 
1277.641 32207716 32757036 33202708 33500496 33618768 33545238 33288020 
1281.017 32874602 32344408 31744238 31116634 30495090 29903362 29353984 
1284.392 28851402 28396446 27988012 27625188 27307724 27035556 26808984 
1287.767 26628574 26495462 26411686 26378588 26396298 26462430 26571646 
1291.142 26717114 26890936 27086794 27300950 27531522 27777966 28039362 
1294.518 28313434 28597588 28889754 29190196 29502904 29835462 30198860 
1297.893 30604616 31064492 31589740 32189514 32871672 33639996 34492040 
1301.268 35414840 36382092 37356588 38288292 39122716 39811356 40313336 
1304.643 40605600 40685104 40568056 40287560 39886824 39417156 38927624 
1308.019 38460508 38050280 37717588 37471072 37308960 37222424 37198596 
1311.394 37224084 37287660 37379520 37491300 37615536 37744260 37869620 
1314.769 37985072 38085288 38167404 38229636 38271064 38290608 38287132 
1318.144 38260032 38210060 38140420 38056500 37964676 37870524 37777768 
1321.520 37687232 37597256 37505280 37409092 37308456 37204804 37102156 
1324.895 37006492 36925896 36870600 36853828 36890580 36995204 37179396 
1328.270 37448532 37800212 38223596 38702732 39220080 39759104 40307592 
1331.645 40857108 41401484 41934864 42450380 42939472 43393708 43805652 
1335.021 44169964 44484032 44747380 44961456 45128916 45254292 45344392 
1338.396 45408068 45456996 45503316 45557296 45627036 45716480 45826932 
1341.771 45959104 46114600 46297172 46513344 46770548 47076792 47440164 
1345.146 47868132 48367368 48943500 49597536 50322268 51096780 51886520 
1348.521 52638956 53290004 53776504 54038568 54034480 53747328 53186928 
1351.897 52389996 51412804 50329300 49215840 48143572 47175696 46355900 
1355.272 45709120 45241568 44943376 44793920 44766260 44835172 44977480 
1358.647 45173436 45407772 45667744 45943928 46232376 46536248 46867428 
1362.022 47243552 47685932 48210360 48820168 49502572 50227744 50953124 
1365.398 51623216 52179320 52562544 52717208 52605332 52211456 51550156 
1368.773 50662860 49612092 48470312 47300112 46153104 45062528 44043648 
1372.148 43102528 42241840 41467532 40791548 40229508 39794108 39488852 
1375.523 39304584 39223380 39222980 39286160 39405616 39586300 39844912 
1378.899 40208244 40713448 41402392 42322924 43522288 45031984 46853732 
1382.274 48936488 51174460 53395240 55381388 56913044 57772028 57790500 
1385.649 56883544 55075892 52522460 49480512 46279332 43218320 40507744 
1389.024 38255908 36470444 35098100 34057692 33269058 32662004 32179490 
1392.400 31780742 31435542 31124466 30840076 30584530 30367256 30198326 
1395.775 30083754 30021578 30003542 30017816 30053606 30105416 30174244 
1399.150 30267668 30396182 30570022 30794440 31069084 31388096 31742244 
1402.525 32121294 32514390 32913416 33311882 33704804 34087936 34456524 
1405.901 34805500 35131152 35433284 35717028 35992248 36273044 36573808 
1409.276 36905264 37273396 37678736 38117988 38587236 39084248 39608548 
1412.651 40160520 40739360 41341968 41963148 42599180 43250344 43923164 
1416.026 44630816 45391880 46226848 47152868 48178520 49296340 50478076 
1419.402 51675648 52829944 53884484 54792072 55522412 56065212 56430488 
1422.777 56654260 56796716 56941072 57169448 57544624 58096552 58818696 
1426.152 59681848 60649880 61695380 62800868 63956208 65154432 66387400 
1429.527 67648728 68938976 70273120 71679392 73188736 74827376 76603928 
1432.903 78509992 80523088 82621976 84797744 87054840 89410104 91880016 
1436.278 94466808 97144712 99868664 102592904 105280424 107903952 110432328 
1439.653 112823120 115005120 116880568 118345744 119290272 119618896 
1442.546 119266240 118195744 116412120 113963320 110951304 107520280 
1445.439 103835488 100081728 96426568 93009936 89942904 87287752 85054960 
1448.814 83199712 81641832 80285128 79045632 77879624 76791280 75830816 
1452.190 75067248 74565048 74351168 74402520 74645464 74968512 75249632 
1455.565 75366400 75241992 74880200 74383920 73915632 73625432 73612552 
1458.940 73909616 74510640 75394464 76532072 77886128 79399616 81000640 
1462.315 82589032 84037032 85212656 85987552 86277720 86074840 85454096 
1465.691 84550952 83508704 82457128 81486752 80650176 79975904 79466648 
1469.066 79099376 78820440 78546400 78173664 77591520 76725520 75571680 
1472.441 74220320 72825912 71557088 70539168 69825928 69420904 69302616 
1475.816 69447504 69837216 70453704 71270304 72243216 73312992 74415696 
1479.192 75485800 76471576 77343368 78094256 78742856 79325872 79894336 
1482.567 80502752 81206952 82069384 83153640 84525472 86242520 88336448 
1485.942 90792816 93530272 96405344 99198552 101632888 103419736 104268112 
1489.317 103951528 102369592 99577616 95792392 91323376 86506536 81610840 
1492.693 76801872 72170120 67739928 63515432 59523012 55820456 52503204 
1496.068 49686088 47462080 45875576 44911996 44518684 44624828 45162148 
1499.443 46074512 47310052 48815720 50536772 52408088 54358584 56318480 
1502.818 58200872 59904484 61305196 62226836 62452844 61749308 59938676 
1506.194 57021464 53250260 49072912 44925812 41082060 37622440 34505816 
1509.569 31657734 29022716 26577670 24332636 22311170 20528972 18987440 
1512.944 17669682 16549349 15597549 14789324 14102996 13516491 13007315 
1516.319 12556711 12152640 11795450 11494823 11260809 11094356 10982335 
1519.695 10897284 10808786 10695786 10561664 10435491 10358692 10360253 
1523.070 10441702 10580846 10744317 10904216 11045615 11172339 11301344 
1526.445 11453351 11640124 11859087 12097239 12340907 12583485 12828826 
1529.820 13087828 13370492 13679773 14009086 14343992 14669457 14979768 
1533.196 15282783 15599095 15947742 16337849 16761400 17200980 17634932 
1536.571 18046210 18426834 18774230 19090430 19377134 19630122 19840112 
1539.946 19997496 20103884 20173958 20229600 20288896 20355562 20418936 
1543.321 20459086 20458808 20411018 20326254 20226824 20139494 20081988 
1546.697 20056100 20050756 20048882 20037848 20015816 19994476 19992846 
1550.072 20029486 20111866 20234460 20383028 20544014 20711038 20887686 
1553.447 21085274 21315768 21584340 21885832 22205528 22523610 22821600 
1556.822 23081042 23283826 23413928 23463028 23442988 23388890 23349342 
1560.198 23361302 23434804 23558970 23709976 23861208 23985670 24063340 
1563.573 24085158 24055670 23991798 23917184 23852630 23806042 23771218 
1566.948 23730970 23665816 23560614 23411410 23227826 23030832 22846080 
1570.323 22692512 22580880 22511710 22479746 22477024 22493040 22513978 
1573.698 22520992 22492272 22408672 22261922 22064318 21848618 21657474 
1577.074 21520620 21443960 21410750 21393974 21366546 21308948 21212978 
1580.449 21079152 20913518 20722748 20511396 20281014 20032608 19769088 
1583.824 19496818 19224338 18958884 18703172 18454110 18205018 17950442 
1587.199 17689388 17428214 17177676 16949918 16754167 16594511 16471323 
1590.575 16383987 16333686 16323021 16353227 16420219 16511591 16607489 
1593.950 16686263 16729407 16727857 16684161 16610691 16524153 16439697 
1597.325 16369192 16321026 16301932 16321197 16390765 16523052 16729098 
1600.700 17014006 17377480 17814924 18321028 18889940 19514388 20183052 
1604.076 20875934 21561462 22202252 22754484 23176444 23437008 23516680 
1607.451 23413368 23140586 22724912 22199634 21598548 20956634 20305804 
1610.826 19675816 19093790 18578312 18137336 17766458 17450634 17168506 
1614.201 16896244 16613824 16308261 15977716 15633855 15301041 15008646 
1617.577 14781097 14631451 14559526 14554729 14600199 14675661 14763031 
1620.952 14846887 14920197 14986250 15058520 15155231 15291465 15473923 
1624.327 15698504 15954513 16230555 16519886 16819604 17128524 17444356 
1627.702 17760176 18065796 18351928 18613448 18852048 19075162 19291256 
1631.078 19505586 19716830 19916004 20088478 20217278 20285042 20278376 
1634.453 20191798 20031880 19818156 19580068 19348138 19142368 18968990 
1637.828 18821630 18686602 18546360 18384558 18190232 17960352 17701950 
1641.203 17428594 17157374 16900826 16662264 16435465 16205791 15955372 
1644.579 15666349 15328741 14944100 14528313 14109328 13719953 13389730 
1647.954 13135398 12960782 12857835 12811557 12800501 12796133 12764193 
1651.329 12661360 12445437 12097239 11648225 11184408 10799920 10545572 
1654.704 10412006 10358760 10340571 10324386 10292764 10239804 10168568 
1658.080 10085814 9998193 9908013 9814158 9712326 9597816 9467757 9322504 
1661.937 9165623 9004503 8848347 8706174 8586183 8492883 8426562 8382882 
1665.794 8353427 8326675 8289288 8228874 8137169 8012543 7861770 7698063 
1669.652 7538060 7395574 7278707 7188922 7122934 7073256 7029577 6980045 
1673.509 6911395 6811992 6677819 6516140 6346216 6191785 6071310 5990307 
1677.367 5941396 5909554 5879326 5841275 5794496 5745944 5706495 5684338 
1681.224 5678664 5677959 5660940 5603910 5490008 5320954 5123031 4937665 
1685.082 4800184 4720925 4689607 4685353 4689339 4688233 4676109 4652095 
1688.939 4618103 4577317 4533185 4489996 4453941 4430911 4425990 4439346 
1692.796 4465457 4491536 4501279 4478848 4416249 4320930 4216999 4135337 
1696.654 4096268 4101453 4133564 4166816 4171733 4125536 4022154 3879011 
1700.511 3733742 3623771 3568578 3562865 3587754 3620931 3644319 3646224 
1704.369 3621732 3572921 3508315 3439912 3378097 3329847 3296727 3276395 
1708.226 3264710 3257132 3250823 3245248 3241976 3243445 3252191 3268883 
1712.083 3292253 3318963 3345374 3368280 3386379 3399603 3408118 3410857 
1715.941 3404879 3386446 3354022 3311450 3268984 3240207 3236168 3261572 
1719.798 3313387 3384409 3465462 3548935 3631389 3713022 3796777 3886867 
1723.656 3986338 4095867 4213753 4337128 4463214 4589740 4714225 4833721 
1727.513 4943765 5039121 5115421 5171179 5208869 5233752 5251828 5265545 
1731.371 5271582 5259374 5214101 5122629 4982776 4811709 4642852 4514336 
1735.228 4449824 4450326 4500408 4578254 4664253 4742597 4804338 4847056 
1739.085 4873627 4891052 4905796 4923255 4944603 4968297 4991055 5009959 
1742.943 5022294 5026148 5020919 5006138 4981837 4948122 4904690 4851244 
1746.800 4786884 4710909 4622122 4519626 4401957 4267656 4115802 3947316 
1750.658 3765927 3579001 3397432 3231194 3087744 2969262 2871991 2787947 
1754.515 2706254 2616975 2513551 2395958 2270504 2148781 2042372 1957524 
1758.373 1893424 1842544 1794298 1737641 1665491 1576226 1474346 1368768 
1762.230 1268964 1182837 1114201 1062715 1025382 998348 976662 955111 929243 
1766.570 895707 854405 808692 764710 729096 705831 693087 684292 669558 
1770.909 638962 587499 518459 443526 377361 331334 309217 306664 315418 
1775.249 327686 338695 348212 358558 372254 389963 409166 425649 434969 
1779.588 435765 429463 421172 415965 416694 422332 428767 430690 424389 
1783.928 409265 387675 364395 344565 331102 324934 325763 332428 344399 
1788.268 361145 381275 401438 416495 419978 406347 373912 325730 270192 
1792.607 217877 177469 152609 142102 141273 144753 148863 151946 153437 
1796.947 153769 152774 149526 142963 132324 118039 102329 87979 77275 71707 
1801.769 71310 74889 81351 89669 99380 110250 121950 133583 144621 154432 
1806.590 163315 171668 180485 189369 197855 204352 207534 206639 202330 
1810.930 196330 190496 186286 183634 181181 177535 171369 163547 155724 
1815.270 151018 152277 160895 176706 197888 222618 249106 277155 307526 
1819.609 341116 378489 419281 461935 504327 544136 578972 606876 626950 
1823.949 639460 646395 652037 661693 679879 709017 748081 792294 834586 
1828.288 867519 886477 891225 887141 883157 888768 910018 947539 997319 
1832.628 1053514 1110647 1164863 1215531 1263713 1311568 1360691 1411614 
1836.485 1464339 1519199 1577590 1642208 1716517 1803148 1902709 2014409 
1840.343 2134762 2259512 2384631 2506353 2621909 2730393 2832368 2930231 
1844.200 3027781 3128958 3235967 3348112 3461053 3568110 3661427 3733609 
1848.058 3779597 3797780 3789725 3758641 3708511 3641880 3558923 3459383 
1851.915 3343103 3211499 3068723 2920891 2773341 2630776 2495156 2366141 
1855.772 2242726 2124341 2011613 1906170 1809503 1721639 1640712 1564355 
1859.630 1489374 1414340 1339918 1267601 1199516 1136326 1077363 1021131 
1863.487 966268 912840 862573 817622 779846 748612 721263 693220 660266 
1867.827 621409 579304 539757 510000 495470 497593 514014 539757 569549 
1872.167 598879 624727 644570 656782 659337 650610 629870 597851 556776 
1876.506 510099 462067 415500 372254 332726 297214 265186 237138 213236 
1880.846 193081 175347 157150 135473 108394 75618 39000 2186 -31310 -59802 
1885.667 -82827 -102338 -120988 -140896 -162326 -184683 -205779 -223034 
1889.525 -235287 -241612 -241976 -237141 -227637 -214489 -199288 -184153 
1893.382 -171236 -162591 -158186 -156596 -155536 -152588 -146295 -137881 
1897.240 -129667 -124433 -124798 -131025 -141061 -152654 -162889 -169944 
1901.097 -173819 -174746 -173090 -169480 -163088 -153383 -140796 -127083 
1904.955 -114231 -104922 -100583 -100881 -105088 -111382 -119663 -130296 
1908.812 -144837 -163353 -184848 -205779 -221577 -227538 -221941 -204918 
1912.669 -180178 -152389 -125626 -102637 -84847 -72226 -65501 -66064 -74942 
1917.009 -92367 -116053 -140995 -160604 -170242 -168321 -157556 -143844 
1920.866 -133443 -130925 -137418 -150005 -163684 -174382 -179913 -180907 
1924.724 -179880 -179549 -180377 -181304 -179648 -173355 -162525 -149706 
1928.581 -137418 -128739 -124234 -122114 -119928 -116218 -110454 -104757 
1932.439 -102040 -103233 -107208 -110521 -108434 -97370 -76599 -49135 -19581 
1936.778 6560 26905 40591 49107 54376 57093 55370 47284 30948 6328 -23126 
1942.082 -52017 -75207 -88160 -89452 -80176 -62651 -38367 -9178 24188 60175 
1946.904 95635 127750 153835 173855 190098 207833 231602 263429 301558 
1951.244 339226 367910 379849 370795 341514 297314 245393 192982 145283 
1955.583 104086 68824 39099 14181 -5632 -19117 -25678 -26141 -21801 -14280 
1960.405 -5599 3810 13618 21802 26640 25116 14645 -5069 -31111 -59339 -82462 
1965.709 -94521 -92202 -74810 -45258 -8581 29291 62926 85991 93845 82843 
1970.531 51427 1259 -60995 -126619 -183590 -221378 -233167 -216708 -172428 
1974.870 -104624 -15440 94144 224110 370961 528975 684757 821174 922635 
1979.210 976928 979219 934988 855733 757109 655056 563246 489798 438418 
1983.550 408237 395767 395833 403163 412615 421172 427274 431254 435168 
1987.889 441503 450425 461868 472682 478885 477458 468204 452283 435168 
1992.229 422896 419745 428601 448070 474440 502569 528245 547951 559795 
1996.568 563644 558999 546492 526686 499948 467706 431486 392782 353087 
2000.908 313295 273574 233790 194739 157580 125165 101368 90167 95071 117774 
2005.730 157846 211446 274204 339060 398851 448269 483429 503233 509967 
2010.069 508142 501839 495238 491025 489035 489798 492087 497129 506351 
2014.409 523070 548947 585110 630169 680210 730656 777954 819182 854405 
2018.749 885481 914301 941928 970419 999079 1027707 1056370 1085700 1115497 
2023.088 1147189 1180213 1214335 1248394 1282223 1314492 1345235 1373022 
2026.946 1396722 1414008 1423914 1424812 1419293 1409853 1401409 1399116 
2030.803 1407858 1430131 1467232 1518600 1582678 1658240 1743429 1834924 
2034.660 1929466 2021899 2105795 2176253 2230336 2266273 2287424 2299649 
2038.518 2308309 2319569 2338023 2363809 2395159 2428577 2459666 2484325 
2042.375 2501487 2510785 2514385 2514651 2513885 2514418 2518617 2528682 
2046.233 2548145 2580842 2628976 2692584 2768440 2848177 2920423 2974733 
2050.090 3002291 3000122 2972498 2929130 2882631 2845742 2827966 2833102 
2053.948 2859650 2901410 2949579 2996752 3037691 3070759 3097989 3121950 
2057.805 3145512 3170110 3195310 3218943 3238838 3253159 3260604 3261806 
2061.662 3258701 3252826 3246216 3240174 3234432 3228056 3220412 3209663 
2065.520 3195277 3177854 3158095 3138036 3119981 3105731 3096087 3092082 
2069.377 3092917 3097388 3103996 3111438 3118179 3124320 3129993 3136334 
2073.235 3144244 3154991 3168441 3184696 3201953 3218876 3234132 3247151 
2077.092 3258067 3268583 3280267 3294390 3312485 3334822 3359865 3387080 
2080.949 3414430 3439711 3461253 3477820 3487840 3491380 3489343 3483197 
2084.807 3475916 3470371 3467799 3468835 3471774 3473444 3469971 3458581 
2088.664 3437808 3408319 3372554 3333787 3295492 3260337 3230226 3206926 
2092.522 3192406 3188468 3197246 3220111 3256197 3302436 3354489 3405948 
2096.379 3451467 3487806 3514027 3531564 3543791 3554614 3566507 3581240 
2100.237 3599147 3619093 3640443 3662831 3686221 3711752 3740827 3774416 
2104.094 3813490 3857849 3906425 3957681 4009345 4059778 4108076 4154538 
2107.951 4200773 4248651 4300383 4356839 4417488 4480823 4543632 4603034 
2111.809 4657320 4705316 4747220 4784672 4818208 4848296 4875704 4899898 
2115.666 4920775 4938939 4954925 4969437 4983212 4996686 5009992 5023467 
2119.524 5037847 5053367 5071402 5092154 5115723 5142008 5170743 5201727 
2123.381 5235597 5273225 5314480 5359597 5407267 5455245 5502088 5546351 
2127.239 5587934 5627942 5667888 5707636 5746884 5783550 5815283 5841174 
2131.096 5863071 5884632 5912308 5952683 6009624 6084246 6173333 6270136 
2134.953 6366524 6454929 6528921 6585567 6624727 6647840 6658775 6663014 
2138.811 6664697 6667826 6674926 6685154 6694912 6700263 6695619 6677752 
2142.668 6646461 6604171 6554216 6500970 6446656 6391372 6334784 6275145 
2146.526 6211615 6144465 6075107 6004114 5931957 5857798 5779823 5697330 
2150.383 5609314 5515175 5414548 5305994 5186402 5053904 4907706 4749632 
2154.240 4585386 4424149 4275018 4149755 4058741 4011185 4015699 4078440 
2158.098 4198397 4367048 4566434 4772177 4956232 5099294 5189487 5228454 
2161.955 5227884 5204074 5172420 5142712 5116795 5091517 5061379 5023031 
2165.813 4975872 4923356 4868333 4811742 4751240 4682707 4601159 4506836 
2169.670 4402861 4295932 4194182 4103493 4025030 3958651 3901377 3851397 
2173.528 3809713 3779062 3760078 3752792 3752191 3750753 3741028 3717467 
2177.385 3677968 3624973 3563066 3496958 3430527 3368146 3312218 3267481 
2181.242 3237870 3225753 3229558 3243412 3256565 3257967 3240474 3202520 
2185.100 3149651 3092750 3042362 3006595 2987644 2982273 2984875 2991581 
2188.957 2999688 3009464 3022510 3038592 3054709 3066955 3070592 3063451 
2192.815 3047368 3027448 3009130 2997386 2993116 2995218 3001457 3009965 
2196.672 3021042 3036924 3059280 3088144 3120982 3153856 3182259 3203755 
2200.530 3218910 3229258 3238037 3245815 3250456 3247918 3235634 3212234 
2204.387 3180457 3146614 3116343 3093984 3081170 3075397 3072728 3070458 
2208.244 3067288 3064052 3062917 3064986 3070292 3077733 3086710 3097288 
2212.102 3111805 3132529 3161165 3197346 3237970 3278097 3314021 3343170 
2215.959 3365642 3383908 3399703 3412760 3421644 3423480 3416234 3401239 
2219.817 3382572 3364774 3352953 3348646 3349481 3351584 3351384 3346676 
2223.674 3339497 3333687 3332819 3338262 3348345 3358530 3364106 3362670 
2227.531 3354489 3343203 3333153 3326976 3325707 3328645 3333754 3340332 
2231.389 3349748 3363405 3382472 3406849 3433199 3457579 3477218 3491046 
2235.246 3500766 3510219 3522512 3538646 3557153 3574959 3588690 3597877 
2239.104 3604192 3610640 3620162 3633360 3648295 3661728 3670683 3675228 
2242.961 3678736 3686923 3704501 3734177 3774985 3822549 3871321 3916622 
2246.819 3956110 3989649 4018642 4043624 4064226 4079578 4088675 4092388 
2250.676 4093759 4096736 4104463 4119181 4139719 4163839 4188561 4212449 
2254.533 4234698 4255844 4275587 4292050 4302156 4303193 4293155 4273880 
2258.391 4249019 4223423 4200572 4181000 4161932 4140288 4112725 4079477 
2262.248 4044393 4013559 3991555 3981791 3983229 3991689 4002992 4013827 
2266.106 4022889 4031551 4041484 4052922 4065029 4075330 4081183 4081652 
2269.963 4077872 4071852 4065998 4061316 4057136 4052085 4045932 4039310 
2273.821 4035832 4039076 4051450 4073022 4101018 4131056 4158620 4181636 
2277.678 4200338 4216698 4232691 4249019 4264444 4277126 4285257 4289039 
2281.535 4291247 4295832 4305971 4322770 4344323 4366345 4384585 4395631 
2285.393 4398308 4394125 4385121 4372972 4359116 4343118 4325046 4305536 
2289.250 4285793 4267690 4252432 4239884 4228743 4216698 4202245 4185082 
2293.108 4167318 4152264 4142262 4138783 4141492 4147848 4155241 4162032 
2296.965 4167485 4172302 4177755 4184245 4191472 4198631 4204352 4208032 
2300.823 4209906 4210274 4209136 4205825 4198999 4186988 4169860 4148316 
2304.680 4125168 4103694 4086367 4074494 4067771 4064795 4064360 4066366 
2308.537 4071751 4081685 4097071 4117007 4139385 4161463 4180699 4195854 
2312.395 4207464 4216999 4225865 4234798 4243063 4249387 4252599 4252699 
2316.252 4250357 4246777 4242695 4237442 4229546 4217936 4202177 4184948 
2320.110 4170061 4161430 4162032 4171332 4184747 4194717 4193479 4174544 
2323.967 4134635 4074895 3999279 3914082 3826125 3741529 3665470 3601152 
2327.824 3549937 3511255 3482663 3460819 3442583 3426252 3412159 3401907 
2331.682 3398367 3403243 3416534 3436071 3458181 3479089 3496758 3510854 
2335.539 3522979 3535506 3550137 3567275 3586117 3605394 3624506 3644486 
2339.397 3667108 3694175 3726423 3763086 3801189 3838059 3871321 3900340 
2343.254 3926051 3950560 3975972 4004597 4038808 4081250 4135137 4202981 
2347.112 4285893 4381607 4485109 4588400 4681267 4755226 4803266 4822430 
2350.969 4814322 4783936 4738544 4685085 4628954 4573466 4520563 4471952 
2354.826 4429037 4393589 4366044 4345327 4329263 4315542 4303127 4293322 
2358.684 4289072 4293155 4306874 4328259 4352656 4375047 4391548 4401790 
2362.541 4408986 4418459 4434526 4459900 4494282 4535027 4579828 4626944 
2366.399 4676210 4728830 4785075 4844074 4903550 4961527 5016361 5068788 
2370.256 5121188 5175940 5235127 5298950 5365736 5433437 5500880 5568400 
2374.114 5637543 5710490 5788016 5868981 5951272 6031899 6108944 6182542 
2377.971 6253967 6325875 6399980 6476217 6553577 6629841 6702887 6771807 
2381.828 6837169 6900016 6961493 7021799 7080429 7136171 7188652 7238040 
2385.686 7285715 7332857 7380408 7427964 7474210 7517495 7557143 7593422 
2389.543 7628086 7662787 7698839 7736075 7773145 7808296 7840447 7869496 
2393.401 7897028 7924732 7954023 7985172 8017504 8050008 8082379 8115260 
2397.258 8150404 8189535 8233431 8281419 8331067 8380281 8427406 8472172 
2401.115 8516299 8561952 8610820 8663920 8720643 8780010 8841550 8905399 
2404.973 8972368 9043544 9118926 9197232 9276568 9355072 9431998 9508972 
2408.830 9588704 9674074 9767052 9867337 9972696 10079676 10184918 10286046 
2412.688 10382582 10474761 10562784 10646717 10726215 10800091 10868202 
2416.063 10930548 10987942 11040891 11089767 11133890 11172747 11206644 
2419.438 11236837 11266182 11297842 11334163 11375692 11421952 11470566 
2422.813 11519932 11570224 11622733 11679844 11744008 11815640 11893242 
2426.189 11974842 12058162 12142691 12229859 12323181 12426139 12540920 
2429.564 12667536 12804391 12949210 13099814 13255355 13415667 13580723 
2432.939 13749500 13920191 14090709 14259754 14427630 14597286 14772081 
2436.314 14955246 15148197 15349885 15557367 15767526 15978025 16188113 
2439.690 16398404 16609795 16821532 17032234 17239040 17439492 17632482 
2443.065 17819308 18002106 18183356 18363852 18543280 18720086 18893124 
2446.440 19061972 19228320 19394526 19561940 19730526 19897966 20060404 
2449.815 20215126 20360806 20498752 20631600 20762578 20892414 21020688 
2453.191 21145034 21263848 21377024 21487578 21599802 21718288 21846040 
2456.566 21982752 22126306 22272908 22419384 22564372 22707700 22849364 
2459.941 22989292 23125980 23256942 23380148 23495448 23603992 23709204 
2463.316 23814582 23922612 24034624 24151112 24272576 24400872 24539336 
2466.692 24691874 24861940 25051270 25259120 25483374 25722438 25974930 
2470.067 26241542 26524132 26824000 27141144 27473452 27817212 28168208 
2473.442 28523594 28881326 29240414 29599092 29954266 30301346 30635406 
2476.817 30952002 31248892 31525996 31784772 32025154 32246150 32444152 
2480.193 32614138 32751962 32855768 32925926 32965426 32977868 32966032 
2483.568 32931860 32876890 32803378 32714948 32617320 32515712 32413698 
2486.943 32312318 32209176 32099784 31980284 31848554 31704496 31549900 
2490.318 31385996 31212574 31027976 30829476 30614714 30383638 30137698 
2493.694 29879012 29608740 29326050 29027532 28710034 28371190 28011760 
2497.069 27635568 27248310 26854840 26457992 26057848 25652694 25241104 
2500.444 24823240 24401256 23979016 23560264 23147192 22740624 22340156 
2503.819 21945460 21557876 21180206 20814958 20464260 20128490 19806194 
2507.195 19495570 19196078 18908904 18637210 18384868 18153676 17943604 
2510.570 17752100 17575480 17410520 17255898 17112222 16980582 16862108 
2513.945 16755752 16659303 16570965 16489597 16416572 16355671 16310120 
2517.320 16282357 16272003 16275890 16289892 16310705 16337229 16370395 
2520.696 16411962 16463304 16522879 16588142 16654551 16718905 16780134 
2524.071 16839684 16899484 16961494 17025824 17090198 17151340 17206254 
2527.446 17253346 17292616 17324754 17349686 17365686 17369826 17358618 
2530.821 17330030 17284274 17224110 17153342 17075896 16993606 16907026 
2534.197 16815884 16720351 16621983 16523259 16427137 16335199 16247582 
2537.572 16162904 16079240 15996624 15916325 15840786 15773160 15714513 
2540.947 15663154 15616302 15569800 15520897 15469493 15417272 15366465 
2544.322 15318821 15274134 15230584 15185700 15138282 15088159 15037561 
2547.698 14989028 14944031 14902538 14863242 14823813 14783428 14742566 
2551.073 14702772 14665687 14632033 14600884 14570113 14538077 14504502 
2554.448 14471271 14441640 14418005 14401154 14389713 14380090 14368479 
2557.823 14352862 14333067 14310877 14288242 14265848 14242120 14214525 
2561.198 14179810 14137020 14088074 14036395 13986707 13942225 13903940 
2564.574 13870790 13840994 13812945 13786917 13764583 13747653 13737052 
2567.949 13732264 13731204 13731683 13732332 13734042 13738112 13746286 
2571.324 13759349 13776348 13794954 13813082 13829741 13845680 13862990 
2574.699 13883276 13907326 13934390 13962480 13990059 14016786 14044129 
2578.075 14074109 14108507 14146947 14187478 14227055 14263554 14296597 
2581.450 14328753 14363685 14404921 14454588 14511867 14573711 14637277 
2584.825 14700304 14762517 14825322 14890364 14958195 15027991 15097558 
2588.200 15164941 15229863 15293868 15359119 15428396 15502766 15581339 
2591.576 15662124 15742375 15820716 15897216 15972801 16047815 16122153 
2594.951 16193718 16259791 16318342 16368916 16413165 16453704 16493522 
2598.326 16533826 16574718 16615614 16655549 16695730 16738327 16785818 
2601.701 16840200 16901686 16968488 17037678 17107568 17177402 17249036 
2605.077 17325238 17407796 17497132 17591834 17688940 17786202 17883282 
2608.452 17981488 18083652 18192026 18307204 18427766 18550992 18674324 
2611.827 18796374 18917454 19039122 19162452 19287548 19412752 19535668 
2615.202 19654702 19769640 19882046 19994304 20108154 20223630 20338478 
2618.578 20449500 20553986 20650850 20741204 20827438 20912024 20996346 
2621.953 21079744 21160446 21236604 21307764 21374586 21438946 21502342 
2625.328 21565468 21627556 21687184 21743196 21795172 21844090 21891338 
2628.703 21937618 21982612 22024580 22062018 22094370 22122436 22148936 
2632.079 22177004 22208214 22242600 22278000 22311206 22339772 22362936 
2635.454 22381494 22397682 22413242 22428348 22442410 22453716 22461112 
2638.829 22465264 22468684 22474198 22484876 22502114 22525390 22553518 
2642.204 22585314 22620078 22658790 22702394 22751342 22804698 22860574 
2645.580 22916632 22971336 23025346 23080482 23139574 23204722 23276276 
2648.955 23352806 23431692 23510418 23587620 23663120 23737760 23812376 
2652.330 23886760 23960004 24030842 24098820 24164880 24231338 24300888 
2655.705 24375426 24455552 24540458 24628364 24717760 24808190 24900220 
2659.081 24994514 25091392 25190014 25288270 25384124 25476348 25565074 
2662.456 25651956 25739664 25829816 25922872 26018092 26113616 26208352 
2665.831 26302192 26395700 26490040 26585666 26681984 26777300 26869960 
2669.206 26959536 27046946 27134936 27226226 27322826 27425098 27531696 
2672.582 27640196 27749146 27858086 27968432 28082448 28201480 28325848 
2675.957 28454532 28585448 28716902 28848606 28981058 29115500 29252926 
2679.332 29392946 29534326 29675714 29816760 29957886 30101402 30249726 
2682.707 30403964 30564158 30728536 30894684 31061358 31228526 31397644 
2686.083 31571138 31750690 31936348 32127254 32321240 32517068 32714590 
2689.458 32915204 33120166 33330556 33545882 33764320 33983728 34202924 
2692.833 34422304 34643984 34870912 35105000 35346616 35594552 35846556 
2696.208 36100680 36356544 36614724 36876800 37144204 37416392 37691856 
2699.583 37968908 38245844 38522528 38800148 39080408 39364076 39650872 
2702.959 39938804 40225252 40508256 40787292 41063232 41337776 41611876 
2706.334 41885348 42156652 42423524 42684164 42938264 43187172 43432856 
2709.709 43677172 43921112 44164312 44406144 44646088 44884364 45122588 
2713.084 45361904 45603004 45844828 46085460 46322424 46553656 46778408 
2716.460 46996556 47208460 47413592 47610240 47795776 47968068 48126544 
2719.835 48272824 48410408 48544076 48677856 48814976 48957184 49105636 
2723.210 49261968 49428268 49607228 49801308 50011388 50236632 50475020 
2726.585 50724152 50982260 51249356 51526204 51813756 52111696 52417920 
2729.961 52728920 53041004 53351480 53659024 53964276 54267940 54569752 
2733.336 54868348 55160684 55443272 55714028 55972064 56217472 56451508 
2736.711 56674344 56885316 57083320 57267392 57438036 57597696 57750308 
2740.086 57899444 58048224 58197992 58348652 58500728 58655628 58816800 
2743.462 58988928 59176616 59382392 59606544 59847584 60101968 60366696 
2746.837 60639972 60920016 61205120 61491976 61775172 62047956 62303932 
2750.212 62537292 62744708 62925136 63078440 63204660 63302904 63372024 
2753.587 63411096 63420564 63402236 63358256 63290292 63197612 63077064 
2756.963 62924140 62733680 62502660 62230240 61918168 61568832 61184632 
2760.338 60767168 60317204 59835988 59327008 58794912 58247212 57691348 
2763.713 57133544 56579028 56031400 55493756 54970696 54467724 53991140 
2767.088 53546940 53139368 52770112 52439152 52145580 51888688 51668744 
2770.464 51486808 51342988 51236008 51162528 51118208 51097448 51096332 
2773.839 51111648 51140760 51181800 51231160 51283992 51335192 51379420 
2777.214 51412876 51433092 51439212 51430072 51404336 51359732 51294212 
2780.589 51207712 51102296 50982296 50854432 50724824 50597596 50474944 
2783.965 50357020 50242884 50132196 50025700 49923728 49826352 49731488 
2787.340 49635124 49531648 49415612 49283384 49133128 48965160 48780796 
2790.715 48581056 48367368 48140388 47902428 47657648 47411596 47171080 
2794.090 46942396 46729996 46536840 46363972 46212844 46085128 45983816 
2797.466 45912328 45873180 45867472 45894356 45952028 46038924 46154468 
2800.841 46298832 46472816 46676056 46905888 47158260 47427376 47708564 
2804.216 47998484 48296080 48601620 48915316 49235876 49560540 49884552 
2807.591 50202896 50511232 50806384 51085112 51344476 51580192 51786952 
2810.967 51959488 52093544 52187464 52241800 52258132 52239184 52186232 
2814.342 52100416 51982944 51836788 51666916 51481212 51288244 51096852 
2817.717 50913852 50744000 50590968 50458460 50350772 50273384 50231760 
2821.092 50230124 50269664 50349092 50464040 50609028 50778864 50968248 
2824.468 51172224 51385648 51602208 51815136 52018312 52206708 52377468 
2827.843 52529940 52664312 52780400 52877504 52954156 53009672 53045236 
2831.218 53064516 53073244 53077736 53083536 53093156 53107648 53126712 
2834.593 53150376 53180332 53219884 53272432 53340800 53426416 53528728 
2837.969 53647816 53785352 53946080 54138020 54370788 54653880 54996496 
2841.344 55405140 55886288 56446864 57095756 57843680 58702616 59682456 
2844.719 60789956 62025252 63380532 64836876 66363232 67916016 69434592 
2848.094 70847472 72078584 73048760 73695112 73976088 73878824 73420536 
2851.469 72645472 71618200 70408032 69086888 67721920 66366284 65065360 
2854.845 63851608 62744820 61754044 60878004 60106872 59426460 58820748 
2858.220 58275628 57778504 57320168 56892724 56488900 56101596 55724656 
2861.595 55352440 54981488 54609164 54233328 53852072 53463364 53065564 
2864.970 52660348 52252224 51850904 51467596 51115152 50804224 50541496 
2868.346 50330232 50170464 50060912 49999824 49984100 50009788 50069388 
2871.721 50152168 50245336 50335292 50410676 50464676 50494520 50500888 
2875.096 50486444 50453660 50404424 50340128 50262896 50175260 50081360 
2878.471 49985104 49889424 49796068 49705336 49617368 49533392 49456192 
2881.847 49389064 49335500 49297528 49274548 49264232 49264084 49272140 
2885.222 49288728 49315600 49354724 49407480 49473232 49549656 49633936 
2888.597 49724804 49821856 49926888 50042024 50168456 50306048 50453884 
2891.972 50611072 50778864 50960688 51162308 51389864 51648740 51941864 
2895.348 52269828 52631328 53023668 53443352 53885160 54340748 54798800 
2898.723 55244436 55661448 56035960 56359372 56629684 56851932 57036696 
2902.098 57197800 57347996 57500140 57665728 57855040 58079356 58349904 
2905.473 58676448 59068264 59532548 60075404 60704060 61427776 62258116 
2908.849 63209264 64293528 65519156 66884628 68377840 69971992 71624960 
2912.224 73285304 74888664 76364544 77647064 78674016 79399136 79798720 
2915.599 79871832 79640792 79144776 78435648 77566456 76585272 75536232 
2918.974 74452984 73362616 72286888 71240512 70232416 69265816 68338208 
2922.350 67444032 66577576 65735556 64918400 64130196 63375780 62660336 
2925.725 61986384 61354080 60762060 60208068 59689412 59202588 58742712 
2929.100 58302268 57872112 57443028 57008056 56563816 56111964 55657608 
2932.475 55207784 54768580 54344652 53938464 53552076 53187528 52847976 
2935.851 52536892 52256632 52007592 51787924 51594144 51423096 51273220 
2939.226 51145048 51040952 50963368 50913220 50889676 50890084 50910648 
2942.601 50947644 50997464 51055224 51114368 51165808 51197496 51197348 
2945.976 51155076 51064764 50926112 50744672 50530592 50295336 50052396 
2949.352 49815060 49595080 49403508 49249016 49136208 49065272 49031664 
2952.727 49027212 49042236 49068500 49100516 49135392 49172568 49211088 
2956.102 49248312 49280636 49303204 49313264 49310816 49299308 49284088 
2959.477 49270464 49262080 49260152 49264084 49273104 49287096 49307624 
2962.853 49336760 49375216 49421884 49473272 49524516 49571756 49612688 
2966.228 49647416 49677840 49705892 49732236 49756124 49776524 49793056 
2969.603 49807516 49823940 49847168 49881172 49928228 49987484 50056748 
2972.978 50133272 50215208 50301736 50392480 50485964 50578908 50666472 
2976.354 50742696 50802732 50844044 50866056 50870116 50857524 50828584 
2979.729 50782732 50720060 50641568 50551212 50455032 50359140 50268736 
2983.104 50185380 50107244 50029308 49945696 49850288 49737808 49604256 
2986.479 49444796 49255512 49032816 48775272 48484460 48165528 47826332 
2989.854 47474464 47115824 46752764 46384616 46009348 45625968 45236236 
2993.230 44844428 44456644 44077352 43708864 43349848 42996720 42644320 
2996.605 42288700 41926836 41557068 41177636 40787144 40383584 39966704 
2999.980 39537880 39101688 38664520 38233076 37812392 37405084 37010284 
3003.355 36626472 36252044 35887148 35533528 35193668 34869224 34559700 
3006.731 34263588 33978176 33701472 33433392 33175312 32928180 32692012 
3010.106 32464542 32241330 32018482 31792934 31564404 31335458 31109942 
3013.481 30890878 30679710 30475684 30276974 30082190 29891044 29704380 
3016.856 29523650 29349732 29181584 29017508 28855510 28694882 28536758 
3020.232 28384066 28239490 28104964 27980308 27863846 27753666 27649270 
3023.607 27551998 27465298 27393192 27338388 27301726 27282426 27278476 
3026.982 27287894 27309808 27343294 27385886 27433286 27478006 27510516 
3030.357 27521918 27505328 27457250 27378476 27272088 27142344 26993208 
3033.733 26828334 26651190 26466232 26278608 26093700 25915626 25745852 
3037.108 25583138 25424594 25267198 25109508 24952822 24800226 24654628 
3040.483 24517740 24388744 24265112 24143896 24023522 23904334 23788646 
3043.858 23678972 23576496 23480478 23388784 23298998 23210138 23123744 
3047.234 23042466 22969310 22905908 22850866 22801346 22754066 22706722 
3050.609 22658964 22612748 22569784 22531112 22496112 22462752 22428560 
3053.984 22393006 22357318 22323796 22295160 22272872 22255714 22241692 
3057.359 22228300 22214596 22201762 22192522 22189626 22194336 22205912 
3060.735 22221884 22239426 22257212 22275698 22297148 22324460 22358960 
3064.110 22400612 22447854 22498728 22551774 22607478 22666156 22728124 
3067.485 22791778 22853484 22908354 22952366 22982864 22999982 23005746 
3070.860 23002184 22990792 22971930 22944892 22909612 22868258 22824638 
3074.236 22783292 22748200 22720898 22699950 22682284 22664410 22644164 
3077.611 22622034 22599484 22578438 22559450 22540884 22520434 22495832 
3080.986 22466486 22434456 22402566 22374028 22350308 22330878 22313576 
3084.361 22296624 22279394 22263454 22250830 22244240 22244484 22250412 
3087.737 22259932 22271058 22283336 22298160 22317796 22343644 22375214 
3091.112 22410172 22444434 22475070 22500786 22523158 22545108 22570166 
3094.487 22599554 22632890 22668530 22704454 22739856 22776030 22814790 
3097.862 22857360 22903848 22952192 22999388 23043724 23085024 23125316 
3101.238 23167846 23215278 23267780 23323646 23379798 23433092 23483068 
3104.613 23531162 23579924 23632016 23687894 23745948 23803206 23856900 
3107.988 23905700 23950724 23994632 24039632 24087260 24137172 24188140 
3111.363 24239360 24291742 24346724 24406864 24473358 24544840 24618018 
3114.739 24688788 24753502 24811384 24863940 24913906 24963982 25015118 
3118.114 25066012 25114038 25157432 25195736 25230712 25264950 25300704 
3121.489 25338812 25378576 25418236 25457234 25496164 25537452 25583630 
3124.864 25635752 25692734 25751338 25807980 25860306 25908838 25956112 
3128.240 26006062 26060664 26120126 26181146 26239606 26292476 26339122 
3131.615 26381652 26424364 26470810 26522618 26578586 26635972 26691814 
3134.990 26744986 26796826 26849446 26905458 26965708 27029174 27093812 
3138.365 27157932 27221252 27284720 27350490 27419272 27490678 27562588 
3141.740 27632604 27699204 27763062 27826362 27891932 27961296 28033920 
3145.116 28107050 28177896 28244900 28308660 28371934 28438896 28511600 
3148.491 28590652 28673538 28757046 28838654 28918086 28996502 29076104 
3151.866 29158162 29241478 29323286 29400606 29471450 29536772 29600190 
3155.241 29665568 29735996 29812252 29891932 29971980 30049878 30124876 
3158.617 30198610 30273918 30352190 30433602 30516346 30598252 30678290 
3161.992 30757770 30839474 30926634 31021000 31121120 31223326 31323492 
3165.367 31418550 31508214 31594976 31682040 31771760 31864170 31956780 
3168.742 32046128 32130428 32209854 32287262 32366578 32450688 32540030 
3172.118 32632784 32725274 32814778 32900620 32983624 33066030 33149562 
3175.493 33233684 33317104 33397894 33475336 33550854 33627716 33709492 
3178.868 33798164 33892944 33990860 34088620 34184068 34277248 34370624 
3182.243 34467072 34568380 34673592 34779620 34882544 34980288 35072956 
3185.619 35163452 35255296 35351364 35452088 35555464 35658900 35760668 
3188.994 35861132 35962876 36069324 36182208 36301068 36423452 36545656 
3192.369 36664940 36780468 36894296 37008332 37124712 37242928 37361208 
3195.744 37477140 37589708 37699484 37808960 37921248 38037764 38158184 
3199.120 38280152 38400996 38519596 38636848 38755368 38878120 39006856 
3202.495 39140304 39275496 39408920 39538064 39663072 39786336 39910072 
3205.870 40036024 40163864 40290940 40414752 40534080 40649368 40763344 
3209.245 40879132 40998480 41121176 41245440 41369300 41491848 41614428 
3212.621 41739672 41869984 42006508 42147560 42289612 42429772 42565992 
3215.996 42698932 42830852 42964164 43099348 43235044 43368008 43495624 
3219.371 43617380 43735912 43855276 43980216 44112704 44251660 44394144 
3222.746 44535828 44673996 44808868 44942680 45077708 45215500 45354988 
3226.122 45493308 45627920 45757380 45883456 46009016 46137668 46270228 
3229.497 46404932 46537688 46664580 46783092 46895184 47004016 47114940 
3232.872 47231176 47353024 47478048 47602628 47723948 47841384 47956892 
3236.247 48073724 48194256 48319780 48449048 48580276 48711956 48844156 
3239.623 48977660 49113800 49252836 49393296 49532760 49668964 49800788 
3242.998 49929456 50057600 50187760 50321676 50459164 50598788 50739124 
3246.373 50880324 51023584 51171696 51326540 51488336 51655232 51824320 
3249.748 51992504 52158620 52323716 52489144 52656796 52826688 52997056 
3253.124 53165352 53330124 53491544 53652316 53816368 53986528 54163208 
3256.499 54344652 54526996 54706788 54882748 55055996 55229232 55405024 
3259.874 55584204 55765228 55945492 56122180 56294600 56464752 56635192 
3263.249 56808572 56986028 57165856 57345576 57523060 57697664 57870904 
3266.625 58045988 58224704 58407816 58593508 58778828 58961412 59141040 
3270.000 59319524 59499260 59682380 59868504 60054900 60237984 60414980 
3273.375 60585568 60752264 60919440 61090192 61266088 61445828 61627020 
3276.750 61807448 61987568 62169328 62356792 62552444 62756652 62966696 
3280.125 63178488 63388236 63594640 63799256 64005388 64216344 64433636 
3283.501 64656184 64881384 65106972 65332444 65559380 65790720 66028624 
3286.876 66273524 66523468 66775532 67026848 67277232 67528800 67784616 
3290.251 68047216 68317616 68593808 68873472 69154296 69436304 69721680 
3293.626 70013952 70314760 70623992 70939112 71256288 71572760 71888368 
3297.002 72205536 72528536 72860632 73202696 73552776 73907648 74263960 
3300.377 74620752 74980168 75344920 75718384 76101560 76493624 76892080 
3303.752 77295256 77703136 78117696 78541752 78976552 79421656 79874616 
3307.127 80331800 80790904 81253016 81721088 82199448 82691672 83197744 
3310.503 83715328 84241256 84772536 85309384 85855016 86414024 86989624 
3313.878 87582480 88189464 88805520 89426104 90048560 90673128 91301952 
3317.253 91937176 92578616 93224912 93872952 94520840 95169408 95821720 
3320.628 96481472 97151296 97830288 98514584 99197968 99875464 100544536 
3324.004 101206352 101864080 102520736 103177000 103830568 104476808 
3326.897 105111008 105730336 106334464 106924248 107500800 108062808 
3329.790 108607000 109128664 109624336 110091664 110532064 110946984 
3332.683 111336944 111699968 112031304 112324912 112576800 112786432 
3335.576 112957448 113095600 113206656 113293048 113353616 113384032 
3338.469 113379128 113336152 113254520 113135880 112982336 112794816 
3341.362 112571864 112310792 112009216 111666288 111283256 110862080 
3344.255 110403992 109908160 109371968 108791952 108166728 107498344 
3347.148 106791744 106054352 105293216 104512040 103712120 102892760 
3350.041 102053216 101194600 100319896 99432608 98535792 97630112 96713904 
3353.417 95784872 94842496 93888912 92930016 91973336 91025688 90092184 
3356.792 89174792 88273512 87387384 86516768 85662144 84824816 84004872 
3360.167 83200912 82410816 81632912 80867344 80116216 79383384 78671680 
3363.542 77981480 77310656 76654240 76008008 75369944 74742272 74129176 
3366.917 73536496 72967736 72422936 71898800 71390456 70893192 70404872 
3370.293 69925552 69456288 68997624 68548368 68105624 67666312 67229264 
3373.668 66794580 66364700 65942144 65527940 65120600 64716904 64313932 
3377.043 63909680 63505352 63103496 62707072 62317436 61933532 61552108 
3380.418 61170292 60785724 60399024 60011716 59626120 59242464 58859108 
3383.794 58473660 58083972 57690664 57296764 56906584 56524188 56151024 
3387.169 55785460 55423696 55062048 54698820 54334664 53972384 53614112 
3390.544 53260412 52909840 52559704 52208840 51858632 51513184 51177736 
3393.919 50856260 50548048 50248200 49949452 49645076 49331636 49011448 
3397.295 48689640 48373184 48066876 47770848 47481892 47195604 46907952 
3400.670 46618320 46328656 46041580 45758888 45480392 45203584 44925188 
3404.045 44644252 44361664 44080320 43803488 43532396 43265648 43000232 
3407.420 42732604 42460828 42186120 41911764 41640828 41376044 41116588 
3410.796 40860456 40605380 40350060 40095212 39843136 39595844 39353920 
3414.171 39115392 38877324 38636632 38392744 38147180 37902884 37662512 
3417.546 37427332 37196144 36966808 36737704 36508860 36282444 36061440 
3420.921 35847420 35639832 35435372 35230068 35020444 34806436 34590700 
3424.297 34377296 34169624 33968860 33773024 33579208 33384406 33188224 
3427.672 32992810 32801058 32615070 32434228 32255356 32073810 31887028 
3431.047 31694978 31501054 31310350 31127172 30952430 30784054 30617948 
3434.422 30449524 30277898 30104848 29933924 29768958 29611612 29460208 
3437.798 29311552 29162378 29010670 28856928 28702706 28549000 28395350 
3441.173 28239420 28078524 27911860 27741728 27571980 27407662 27251450 
3444.548 27102172 26955060 26804720 26646542 26480354 26310148 26141804 
3447.923 25980558 25828410 25682854 25538788 25391574 25238684 25081178 
3451.299 24922748 24767076 24615984 24468836 24323244 24176756 24029196 
3454.674 23882420 23738916 23600878 23467854 23336546 23203426 23065178 
3458.049 22921592 22775610 22631528 22492272 22358540 22227778 22096322 
3461.424 21961456 21823426 21685094 21551016 21424674 21306094 21191860 
3464.800 21077100 20957502 20831506 20701376 20570764 20443734 20321324 
3468.175 20201794 20081328 19956730 19826376 19692076 19557296 19425190 
3471.550 19297178 19172390 19048296 18922888 18796026 18669896 18547778 
3474.925 18432054 18323344 18219462 18117404 18014434 17909488 17803534 
3478.301 17698292 17593906 17488714 17379792 17263310 17138864 17009044 
3481.676 16878952 16755579 16643740 16544081 16453221 16365338 16275100 
3485.051 16178930 16077418 15972767 15868587 15767319 15669234 15573852 
3488.426 15480378 15388366 15298536 15211436 15126034 15040031 14950478 
3491.802 14854842 14752781 14647386 14543045 14444175 14353547 14269957 
3495.177 14189807 14109191 14025547 13938940 13852488 13769405 13691979 
3498.552 13619560 13549409 13478312 13404459 13328909 13254125 13183623 
3501.927 13118766 13058222 12998847 12937159 12871692 12804698 12740684 
3505.302 12683536 12635536 12595219 12557939 12518616 12473773 12423001 
3508.678 12369747 12318444 12271984 12231222 12194281 12158228 12121020 
3512.053 12083271 12046988 12014797 11987411 11963194 11937888 11907783 
3515.428 11870630 11827523 11782104 11738698 11700165 11666365 11634883 
3518.803 11602144 11566005 11526533 11485535 11444982 11405420 11364433 
3522.179 11318212 11262883 11196716 11121516 11041265 10960077 10880093 
3525.554 10800532 10717759 10628482 10531280 10428194 10324013 10224233 
3528.929 10131157 10044748 9961373 9876828 9788571 9696605 9603439 9511987 
3532.787 9423601 9336757 9248033 9154050 9053557 8948387 8842835 8741062 
3536.644 8645059 8554314 8464468 8371903 8275205 8176029 8079173 7989930 
3540.501 7911200 7841931 7778711 7715770 7648690 7576294 7499628 7421357 
3544.359 7343169 7264691 7184172 7099626 7010686 6919711 6831279 6749225 
3548.216 6675127 6607434 6542039 6474434 6402367 6326278 6248992 6173636 
3552.074 6101988 6032739 5963164 5890174 5813335 5735234 5660738 5593975 
3555.931 5537256 5488867 5444139 5397337 5344569 5285098 5221177 5156392 
3559.789 5093562 5033791 4976140 4919033 4861899 4806114 4753651 4705650 
3563.646 4660837 4614252 4558465 4487151 4395799 4285826 4162701 4035531 
3567.503 3912777 3800320 3699822 3610874 3532366 3463625 3404178 3353421 
3571.361 3309247 3267715 3224584 3176585 3122718 3065219 3007929 2953616 
3575.218 2903511 2855047 2803754 2745531 2678215 2602842 2523183 2443838 
3579.076 2367640 2295918 2228105 2163299 2101833 2045834 1997632 1959221 
3582.933 1930199 1907102 1884173 1856220 1818387 1769212 1708666 1638483 
3586.791 1560730 1478303 1393897 1312598 1240220 1182073 1140910 1116095 
3590.648 1101910 1089952 1072314 1042919 999743 945779 886710 828478 774436 
3594.988 725445 679945 636938 596723 560857 531662 508938 488836 465948 
3599.327 434040 389897 335412 277652 224972 185523 162784 155061 157050 
3603.667 163016 168486 171568 171568 167690 156255 132158 89504 25745 -56522 
3608.489 -148779 -239426 -318731 -382628 -433574 -478159 -523831 -574660 
3612.346 -629454 -682786 -727874 -760224 -779408 -789826 -797433 -808248 
3616.203 -826371 -853257 -889201 -934401 -988455 -1050270 -1117101 -1182863 
3620.061 -1239992 -1282941 -1308742 -1319874 -1322154 -1322154 -1324598 
3623.436 -1330511 -1336754 -1338472 -1332592 -1320106 -1307487 -1305538 
3626.811 -1326547 -1378967 -1464999 -1575313 -1691309 -1792789 -1863826 
3630.187 -1899490 -1905988 -1893980 -1874549 -1856865 -1847066 -1848155 
3633.562 -1860824 -1882632 -1909287 -1935974 -1958306 -1973545 -1982615 
3636.937 -1988288 -1994390 -2004581 -2020346 -2040200 -2061833 -2082542 
3640.312 -2101239 -2118979 -2137971 -2159270 -2181359 -2200744 -2211919 
3643.688 -2210667 -2196821 -2174040 -2150401 -2134476 -2134080 -2152808 
3647.063 -2190128 -2241719 -2302598 -2369598 -2441102 -2515295 -2588422 
3650.438 -2652250 -2697628 -2717516 -2710569 -2681657 -2640921 -2600576 
3653.813 -2570965 -2559206 -2567441 -2593165 -2630316 -2671284 -2710174 
3657.188 -2742837 -2768057 -2785539 -2796074 -2800913 -2801901 -2802164 
3660.564 -2805489 -2814510 -2830179 -2851082 -2873334 -2892688 -2905985 
3663.939 -2912172 -2912074 -2907960 -2900817 -2890976 -2878633 -2864249 
3667.314 -2850984 -2844762 -2853222 -2882188 -2932545 -2996618 -3059168 
3670.689 -3104405 -3120953 -3107761 -3073414 -3031859 -2998954 -2987338 
3674.065 -3004943 -3051370 -3119110 -3192925 -3256433 -3299348 -3318453 
3677.440 -3317368 -3303590 -3284287 -3265411 -3251500 -3244758 -3244989 
3680.815 -3250612 -3258966 -3267023 -3272778 -3275145 -3273534 -3268305 
3684.190 -3259623 -3246962 -3230781 -3212692 -3195753 -3185195 -3186708 
3687.566 -3203746 -3235583 -3276263 -3316250 -3346106 -3361723 -3363959 
3690.941 -3358633 -3352057 -3348111 -3347059 -3346500 -3342686 -3334104 
3694.316 -3322103 -3311318 -3306418 -3310397 -3321938 -3335716 -3345054 
3697.691 -3344758 -3333776 -3316283 -3300006 -3292804 -3298921 -3318387 
3701.067 -3346138 -3375072 -3398184 -3412550 -3417810 -3416200 -3409625 
3704.442 -3398809 -3383784 -3364189 -3340911 -3316908 -3295336 -3279256 
3707.817 -3269588 -3265214 -3263767 -3264260 -3267483 -3277546 -3299249 
3711.192 -3334269 -3378853 -3424780 -3460742 -3477375 -3471852 -3446936 
3714.568 -3410348 -3370436 -3333644 -3303360 -3279716 -3260840 -3245022 
3717.943 -3231834 -3222362 -3217954 -3219171 -3225289 -3233708 -3242555 
3721.318 -3249790 -3254888 -3259097 -3263208 -3267549 -3272054 -3277053 
3724.693 -3283663 -3294350 -3311350 -3334828 -3361493 -3384606 -3395916 
3728.069 -3389340 -3363827 -3323549 -3278204 -3239332 -3214863 -3208745 
3731.444 -3217626 -3233017 -3245482 -3250612 -3249395 -3249691 -3259623 
3734.819 -3284189 -3321379 -3363367 -3399006 -3419914 -3423859 -3414161 
3738.194 -3396442 -3375006 -3350807 -3321478 -3284649 -3239990 -3191477 
3741.570 -3147598 -3120558 -3121940 -3159506 -3231472 -3323648 -3413438 
3744.945 -3476257 -3498246 -3480004 -3432505 -3370239 -3306582 -3252849 
3748.320 -3217231 -3204996 -3217362 -3250744 -3297474 -3347322 -3390951 
3751.695 -3421492 -3436253 -3435266 -3421032 -3397099 -3366129 -3330981 
3755.071 -3294777 -3259919 -3230222 -3208943 -3198418 -3198944 -3208943 
3758.446 -3225091 -3243015 -3259163 -3271068 -3276724 -3275441 -3266496 
3761.821 -3250152 -3228281 -3203450 -3180262 -3164144 -3158585 -3164407 
3765.196 -3178485 -3194405 -3204798 -3205719 -3197793 -3185985 -3177663 
3768.572 -3179538 -3193188 -3215619 -3238608 -3253605 -3255677 -3244627 
3771.947 -3225289 -3204108 -3186807 -3175459 -3168650 -3162960 -3155197 
3775.322 -3144045 -3131085 -3119374 -3112794 -3113880 -3122301 -3136315 
3778.697 -3152993 -3169111 -3182367 -3191477 -3195293 -3193385 -3185985 
3782.073 -3173946 -3159407 -3145953 -3136217 -3132269 -3133914 -3138289 
3785.448 -3141841 -3141875 -3137664 -3130822 -3124867 -3122137 -3123486 
3788.823 -3127334 -3130525 -3130065 -3125163 -3117005 -3108057 -3101115 
3792.198 -3096970 -3094700 -3092726 -3089305 -3085225 -3083087 -3086212 
3795.573 -3095819 -3109998 -3122038 -3124111 -3110524 -3080915 -3041335 
3798.949 -3002771 -2979078 -2980296 -3010537 -3064399 -3127532 -3181511 
3802.324 -3211409 -3211936 -3186347 -3144605 -3097924 -3057720 -3032682 
3805.699 -3027878 -3044428 -3077724 -3118288 -3153749 -3173913 -3173485 
3809.074 -3152763 -3117367 -3074862 -3032287 -2994183 -2961802 -2932940 
3812.450 -2905754 -2879357 -2856876 -2844334 -2848910 -2874124 -2917010 
3815.825 -2965948 -3004417 -3019520 -3006062 -2969338 -2921980 -2880016 
3819.200 -2856020 -2858126 -2886664 -2934124 -2987799 -3034294 -3064103 
3822.575 -3074434 -3067920 -3049133 -3023863 -2997441 -2973813 -2956964 
3825.951 -2948671 -2948671 -2953969 -2960288 -2962756 -2958708 -2948440 
3829.326 -2934585 -2921487 -2912271 -2907894 -2905787 -2902364 -2893445 
3832.701 -2877679 -2856876 -2834755 -2816090 -2803646 -2798543 -2799728 
3836.076 -2806378 -2817736 -2834195 -2856481 -2883307 -2911053 -2934651 
3839.452 -2949000 -2952061 -2945643 -2935145 -2927279 -2927509 -2937876 
3842.827 -2956668 -2979078 -2999382 -3013992 -3020869 -3021034 -3015637 
3846.202 -3005305 -2989247 -2966113 -2934421 -2894432 -2847922 -2798675 
3849.577 -2751398 -2710174 -2679978 -2665785 -2673392 -2708922 -2776946 
3852.953 -2874157 -2986614 -3092957 -3170920 -3207397 -3203351 -3168025 
3856.328 -3115525 -3058082 -3004779 -2958807 -2920400 -2886862 -2855855 
3859.703 -2827250 -2803251 -2786823 -2780337 -2783893 -2794658 -2809242 
3863.078 -2824781 -2840153 -2856118 -2872511 -2887191 -2895650 -2892424 
3866.454 -2874157 -2843412 -2808057 -2779053 -2768189 -2782214 -2818361 
3869.829 -2864809 -2904109 -2922244 -2915200 -2889791 -2857962 -2833570 
3873.204 -2825340 -2834163 -2854045 -2874716 -2886763 -2885052 -2870306 
3876.579 -2847001 -2821456 -2798872 -2782774 -2775399 -2778197 -2790938 
3879.955 -2812238 -2837685 -2860431 -2872676 -2869120 -2849272 -2818460 
3883.330 -2785901 -2763382 -2759727 -2777605 -2810889 -2846540 -2870602 
3886.705 -2873038 -2852465 -2815333 -2773028 -2736120 -2712577 -2706716 
3890.080 -2718669 -2744944 -2780074 -2817473 -2850753 -2874387 -2884492 
3893.456 -2879522 -2860529 -2830541 -2794658 -2758542 -2726077 -2699538 
3896.831 -2678693 -2662327 -2649154 -2639109 -2634136 -2635684 -2644840 
3900.206 -2659659 -2676355 -2691404 -2702765 -2711721 -2722060 -2737898 
3903.581 -2760550 -2788008 -2814246 -2832154 -2837388 -2829982 -2813522 
3906.957 -2793835 -2776222 -2763053 -2753801 -2745767 -2736219 -2724003 
3910.332 -2710272 -2696377 -2684390 -2673227 -2660581 -2643951 -2622346 
3913.707 -2597381 -2574160 -2559074 -2556406 -2567540 -2588949 -2614474 
3917.082 -2637529 -2654127 -2663677 -2668287 -2670856 -2672009 -2669670 
3920.458 -2660878 -2643061 -2616714 -2586149 -2557592 -2537729 -2530284 
3923.833 -2534731 -2546689 -2560425 -2570372 -2573699 -2570504 -2562994 
3927.208 -2554034 -2544976 -2537004 -2530284 -2525573 -2523992 -2527484 
3930.583 -2536609 -2550543 -2566090 -2579924 -2588587 -2590596 -2587302 
3933.958 -2581275 -2575445 -2571756 -2570768 -2571690 -2573567 -2575708 
3937.334 -2577684 -2579364 -2580451 -2579529 -2575313 -2567210 -2556406 
3940.709 -2545338 -2537893 -2536543 -2541945 -2551893 -2562072 -2568297 
3944.084 -2568659 -2564147 -2557855 -2554265 -2555121 -2559963 -2566551 
3947.459 -2570965 -2570932 -2566749 -2560985 -2556768 -2556472 -2559436 
3950.835 -2562434 -2562137 -2556011 -2544119 -2529757 -2517107 -2509926 
3954.210 -2509629 -2514966 -2523070 -2531437 -2538618 -2544613 -2550543 
3957.585 -2556834 -2562039 -2563982 -2559963 -2549258 -2533051 -2515098 
3960.960 -2499318 -2489039 -2484921 -2484921 -2486305 -2486667 -2484823 
3964.336 -2481792 -2479419 -2478233 -2477871 -2476125 -2470623 -2460146 
3967.711 -2445913 -2430822 -2418862 -2412832 -2412832 -2417675 -2424529 
3971.086 -2431086 -2436786 -2442124 -2448680 -2456555 -2464890 -2471282 
3974.461 -2472929 -2468448 -2458103 -2444298 -2429570 -2415764 -2403111 
3977.837 -2391117 -2378760 -2366764 -2356878 -2352001 -2354110 -2363733 
3981.212 -2378100 -2393127 -2404726 -2410789 -2411514 -2409536 -2407955 
3984.587 -2408383 -2410525 -2411975 -2410064 -2403474 -2393324 -2382318 
3987.962 -2373915 -2370323 -2371180 -2374706 -2378100 -2379847 -2380242 
3991.338 -2381692 -2385976 -2394148 -2405088 -2415731 -2422717 -2424430 
3994.713 -2420871 -2413886 -2406933 -2401562 -2398234 -2395994 -2393292 
3998.088 -2389370 -2384889 -2381429 -2380308 -2381495 -2383043 
##END=
