##TITLE=1731o_1_a
##JCAMP-DX=5.01  $$ Nicolet v. 1
##DATATYPE=INFRARED SPECTRUM
##ORIGIN=UniL
##OWNER=Nicolet
##LONGDATE=2011/09/29
##TIME=14:39:43
##SPECTROMETER/DATA SYSTEM=Nicolet iS5
##DATA PROCESSING=
Ratio against background
%Transmittance->Absorbance
Truncated
ElementMultiply or ElementDivide
##COMMENTS=
Number of sample scans: 32
Collection length: 51.22 sec
Sample gain: 2.0
Background collected on: Jeu Sep 29 14:37:42 2011 (GMT+02:00);
Number of background scans: 32
Background gain: 2.0
Sample spacing:  1.000
Number of scan points: 12415
Resolution points: 8192
Number of FFT points: 65536
Apodization: N-B fort;
Phase correction: Mertz;
Laser frequency: 15798.0 cm-1
Number of rejected sample scans: 0
Number of rejected background scans: 0
Bench serial number: ASB1000141;
##RESOLUTION=4.000
##XUNITS=1/CM
##YUNITS=ABSORBANCE
##FIRSTX=649.893372
##LASTX=4000.122314
##FIRSTY=0.115064
##MAXX=4000.122314
##MINX=649.893372
##MAXY=0.269139
##MINY=-0.002319
##XFACTOR=1.000000
##YFACTOR=1.000000E-009
##NPOINTS=6950
##DELTAX=0.482117
##ZPD=6100
##XYDATA=(X++(Y..Y))
649.893 115063848 114315784 113655392 113095600 112628632 112235224 
652.786 111897096 111606048 111363624 111175776 111041232 110949504 
655.679 110880464 110814776 110741608 110665080 110596896 110549496 
658.571 110524240 110506720 110470528 110388016 110242952 110035952 
661.464 109785104 109516104 109257456 109030608 108846320 108707472 
664.357 108608240 108535360 108463008 108350720 108139096 107757680 
667.250 107161584 106369120 105486864 104657608 103987560 103502192 
670.142 103157800 102878224 102585528 102224960 101769744 101227440 
673.035 100627568 100009968 99402752 98813664 98232792 97643760 97037264 
676.410 96416848 95797808 95197136 94624408 94076384 93540752 93004144 
679.785 92463320 91928536 91421112 90962320 90565560 90228872 89937640 
683.159 89669656 89405304 89134720 88858000 88582312 88315168 88060568 
686.534 87816528 87579240 87346176 87117488 86896848 86687008 86486800 
689.909 86290296 86089056 85877544 85658224 85442640 85246848 85087000 
693.284 84972072 84899144 84856648 84828240 84801744 84772296 84744504 
696.659 84727224 84728920 84751720 84789608 84831384 84864696 84881168 
700.034 84878112 84857080 84822240 84776800 84723080 84663680 84604696 
703.408 84554696 84525152 84524424 84553968 84604944 84659744 84698112 
706.783 84701656 84661832 84580136 84467872 84339824 84210200 84091840 
710.158 83996104 83935960 83928888 83993888 84145688 84387384 84703872 
713.533 85058712 85398232 85667424 85819040 85826424 85688696 85426712 
716.908 85075360 84671576 84253360 83858952 83528504 83314136 83274592 
720.282 83462688 83910520 84603408 85468624 86365232 87112264 87524520 
723.657 87440992 86779776 85552816 83869880 81902584 79851400 77901704 
727.032 76175552 74731376 73565656 72636504 71885864 71260576 70725760 
730.407 70260144 69852344 69494040 69175040 68884696 68614792 68362096 
733.782 68128296 67918416 67735592 67578656 67441904 67317152 67198472 
737.156 67083964 66976508 66880652 66800072 66733880 66676856 66621460 
740.531 66561200 66493964 66422684 66354236 66295372 66251488 66224588 
743.906 66213860 66217176 66232116 66256508 66287300 66319032 66343852 
747.281 66352040 66334628 66286764 66209420 66108980 65996648 65884992 
750.656 65783860 65700592 65638960 65599732 65582044 65583468 65600960 
754.031 65629556 65664552 65701828 65739140 65777300 65819444 65870264 
757.405 65933972 66012344 66104584 66208572 66321740 66442692 66572092 
760.780 66711896 66864876 67033536 67219512 67425000 67652640 67908424 
764.155 68203656 68556904 68999256 69575320 70337320 71342064 72630464 
767.530 74205864 76010496 77913880 79722912 81187656 82067136 82177792 
770.905 81433512 79881512 77692120 75130032 72472304 69969656 67802160 
774.279 66051148 64720056 63754016 63075564 62602080 62263928 62011376 
777.654 61804048 61609496 61401552 61157740 60864280 60517084 60121336 
781.029 59687360 59226360 58748668 58262708 57776724 57301568 56849132 
784.404 56432376 56061516 55741380 55471844 55249476 55071300 54937456 
787.779 54852672 54824216 54860904 54969380 55152744 55411652 55745524 
791.154 56154872 56642216 57212840 57874232 58636512 59512448 60517576 
794.528 61673496 63004656 64539844 66311584 68352472 70698184 73388672 
797.903 76467704 79987736 84008936 88588936 93778072 99596280 106014040 
801.278 112916104 120080024 127182664 133768976 139324672 143355248 
804.171 145435408 145341072 143096432 138997808 133538872 127316312 
807.063 120922872 114782328 109118944 103939568 99090064 94336512 89465592 
810.438 84373344 79084464 73746160 68560240 63744076 59464876 55808780 
813.813 52791848 50367920 48459120 46971928 45819528 44929048 44237864 
817.188 43698460 43275860 42945472 42694400 42517868 42414572 42382352 
820.563 42415156 42502700 42634012 42800320 42998328 43230364 43501776 
823.938 43818036 44181520 44592112 45048116 45549384 46099088 46704020 
827.312 47372608 48114660 48939940 49859616 50890868 52057268 53392880 
830.687 54943548 56760764 58901528 61420524 64356312 67716496 71454152 
834.062 75455088 79507512 83304744 86492416 88677728 89527488 88849504 
837.437 86628592 83051936 78454968 73280944 67964792 62868000 58264376 
840.812 54298088 51011512 48371888 46302704 44709364 43494596 42576228 
844.186 41882904 41356324 40954860 40648208 40418060 40254772 40152088 
847.561 40103392 40100084 40130500 40184288 40254916 40341224 40447080 
850.936 40577404 40736196 40924020 41137752 41374184 41632588 41916072 
854.311 42231616 42586788 42987428 43436152 43932516 44476688 45072596 
857.686 45729660 46464116 47297748 48254492 49362744 50654860 52165536 
861.060 53934712 55996796 58368964 61033524 63923000 66912456 69809928 
864.435 72392488 74428792 75710104 76105240 75574360 74183928 72086912 
867.810 69506880 66701004 63900812 61307712 59062720 57237788 55854520 
871.185 54892520 54308976 54047648 54050464 54262644 54626748 55087360 
874.560 55591772 56088552 56538640 56918632 57225052 57474228 57698648 
877.935 57940868 58239176 58620924 59091684 59630832 60188732 60691940 
881.309 61060752 61215724 61100984 60698228 60032716 59170276 58200836 
884.684 57227432 56339940 55601260 55047380 54684692 54500588 54472076 
888.059 54575272 54789288 55095448 55478208 55922768 56415096 56944924 
891.434 57505960 58097532 58722760 59385964 60090208 60835884 61621940 
894.809 62447796 63314708 64225376 65180080 66172568 67185160 68188808 
898.183 69146400 70016216 70763624 71364488 71807520 72094968 72238048 
901.558 72255152 72167816 72001920 71787304 71554392 71335896 71162984 
904.933 71061552 71054560 71160648 71394944 71771672 72302968 72997992 
908.308 73862680 74898192 76102640 77472816 79007040 80706504 82574760 
911.683 84615248 86828328 89209256 91749720 94441016 97280072 100273936 
915.058 103441688 106812416 110416128 114278576 118409280 122794920 
917.950 127387344 132094952 136781872 141244976 145229776 148455856 
920.843 150626064 151505216 150971744 149063360 145997424 142158416 
923.736 138078112 134315712 131423224 129870384 129940896 131716776 
926.628 135028880 139491872 144499536 149315712 153239920 155651632 
929.521 156170624 154708960 151443280 146738496 141018080 134702528 
932.414 128111152 121452312 114857984 108404264 102153984 96184528 90584544 
935.789 85452040 80883504 76949600 73698416 71152176 69309384 68150816 
939.163 67638160 67713280 68285200 69226448 70385048 71575296 72608960 
942.538 73324208 73591672 73344728 72583896 71374048 69827872 68082912 
945.913 66287152 64564020 63005304 61666776 60566104 59694732 59027912 
949.288 58537544 58196668 57983312 57880328 57871884 57941396 58073368 
952.663 58252440 58467560 58713316 58988664 59294988 59633572 60002816 
956.037 60399216 60818120 61256356 61713368 62191164 62692752 63219152 
959.412 63768828 64337520 64920248 65513336 66115924 66729324 67355768 
962.787 67995560 68646152 69302848 69960624 70616392 71270616 71926840 
966.162 72589896 73264232 73952352 74655504 75374560 76111952 76871912 
969.537 77659832 78479984 79334104 80221664 81140248 82088832 83069784 
972.912 84088256 85152056 86268504 87441560 88671800 89956680 91294184 
976.286 92683896 94128264 95629944 97190168 98805352 100466856 102161872 
979.661 103877192 105601688 107326576 109044448 110747552 112424736 
982.554 114063272 115650264 117175904 118635688 120028744 121354112 
985.447 122606624 123772488 124830424 125757384 126532000 127142656 
988.339 127589136 127883048 128044712 128098952 128076256 128010448 
991.232 127937224 127897056 127925800 128052544 128294856 128655848 
994.125 129126904 129692000 130335640 131045448 131813928 132636848 
997.017 133508536 134419328 135356784 136307024 137259328 138209008 
999.910 139156176 140102016 141044672 141974912 142877856 143736336 
1002.803 144535488 145267968 145935504 146547616 147117568 147661472 
1005.695 148198784 148751776 149349552 150027056 150819360 151758576 
1008.588 152866848 154152640 155611984 157231472 158994304 160880688 
1011.481 162868384 164931440 167033680 169132032 171182704 173146208 
1014.374 174999824 176740816 178384624 179955936 181478144 182965584 
1017.266 184419920 185834048 187199520 188514928 189790016 191048832 
1020.159 192324640 193662512 195116464 196744464 198612816 200786720 
1023.052 203319296 206247504 209580864 213302752 217371376 221732080 
1025.945 226328112 231098880 235984624 240917520 245807680 250548208 
1028.838 255013888 259066912 262581408 265441360 267543824 268802816 
1031.731 269138848 268484672 266800192 264082320 260379792 255788592 
1034.624 250452256 244540576 238226336 231693472 225120192 218674352 
1037.517 212530672 206848544 201766912 197408080 193855888 191160320 
1040.410 189336864 188362544 188172400 188646288 189615232 190840080 
1043.303 192018160 192834624 192966576 192150336 190238304 187208080 
1046.196 183176080 178355824 173037760 167525440 162086768 156954480 
1049.089 152288640 148179248 144660944 141716816 139296704 137327504 
1051.982 135733392 134441952 133389456 132528664 131821336 131233480 
1054.875 130733400 130284296 129845680 129379224 128848704 128225088 
1057.768 127488864 126627608 125636176 124517120 123283160 121958176 
1060.661 120577472 119189192 117845152 116595392 115486016 114550504 
1063.554 113811976 113283504 112968408 112859560 112935488 113160384 
1066.448 113478128 113814432 114090848 114227240 114158240 113846432 
1069.341 113281008 112480032 111479936 110330816 109084784 107787320 
1072.234 106477464 105180864 103910576 102668912 101449744 100243848 
1075.127 99043568 97848096 96666384 95517392 94425328 93416984 92517232 
1078.502 91742848 91104032 90602336 90231888 89978728 89821824 89734064 
1081.877 89681232 89627784 89543488 89406848 89212472 88971288 88710608 
1085.252 88466288 88277040 88181552 88211152 88390616 88739144 89268792 
1088.628 89985368 90887608 91966984 93207624 94589096 96091712 97697080 
1092.003 99389952 101156368 102975152 104813472 106624536 108344264 
1094.896 109902736 111237072 112300064 113076848 113589624 113900952 
1097.789 114100880 114295520 114590832 115060520 115732096 116567928 
1100.682 117469544 118280304 118810328 118886728 118370944 117197784 
1103.575 115386512 113035760 110303352 107365016 104406720 101586208 
1106.468 99017848 96779768 94905232 93393528 92217576 91334536 90693664 
1109.844 90239560 89922032 89695808 89519216 89357640 89177440 88946320 
1113.219 88636032 88222392 87689760 87034312 86263896 85396136 84453184 
1116.594 83460672 82442224 81417880 80405648 79420176 78472640 77571208 
1119.969 76718560 75913016 75148072 74416008 73709448 73023984 72358232 
1123.344 71712184 71083720 70466408 69847720 69210088 68536576 67813976 
1126.720 67038992 66219456 65375044 64533688 63724732 62976880 62311276 
1130.095 61738996 61260628 60867140 60541612 60261548 60003956 59748152 
1133.470 59478972 59190324 58885820 58577736 58283624 58023796 57817108 
1136.845 57677152 57611696 57621764 57701868 57840580 58021636 58226372 
1140.221 58433328 58621608 58774160 58877508 58924336 58912344 58843284 
1143.596 58721244 58551420 58340432 58095452 57825512 57541636 57255140 
1146.971 56977716 56720064 56490148 56294528 56138208 56025028 55958572 
1150.346 55941200 55973688 56054620 56179872 56344128 56541244 56765828 
1153.722 57014288 57283912 57572428 57877108 58194132 58519228 58848028 
1157.097 59177112 59503672 59825380 60138460 60437676 60715720 60964240 
1160.472 61175976 61344768 61466708 61538780 61557260 61516332 61408880 
1163.847 61226292 60961380 60609648 60170348 59645808 59040440 58360212 
1167.223 57611696 56802720 55944176 55049260 54133740 53215912 52311908 
1170.598 51436004 50599312 49808928 49070616 48389520 47771364 47223088 
1173.973 46751988 46364048 46063828 45854252 45736984 45714492 45791028 
1177.348 45972512 46266952 46682548 47226928 47907200 48729824 49702136 
1180.724 50833276 52133588 53614600 55287408 57160568 59239464 61524160 
1184.099 64007388 66669396 69471408 72355496 75232104 77985840 80489264 
1187.474 82600776 84190976 85160768 85443736 85022560 83926840 82232240 
1190.849 80044944 77489760 74701384 71798912 68885160 66043668 63331768 
1194.225 60790756 58448336 56320968 54417840 52742240 51290816 50053884 
1197.600 49015344 48154604 47445892 46861112 46373596 45955932 45583868 
1200.975 45236676 44895756 44547796 44184820 43804804 43411652 43014024 
1204.350 42623268 42249804 41901584 41582740 41293464 41031656 40794280 
1207.726 40579224 40385548 40213040 40062040 39932992 39826680 39745016 
1211.101 39692332 39674872 39700428 39777332 39912396 40110004 40371984 
1214.476 40698492 41088248 41539384 42048920 42611828 43219272 43859820 
1217.851 44519604 45184208 45842432 46486496 47113240 47722952 48319112 
1221.227 48906416 49490872 50080284 50684200 51312704 51976708 52684664 
1224.602 53440880 54244664 55089620 55964492 56853364 57738232 58599348 
1227.977 59416432 60173508 60861156 61481176 62048564 62592968 63156568 
1231.352 63784832 64526580 65425620 66515900 67825672 69375504 71180592 
1234.728 73253368 75602792 78233296 81143640 84326992 87770816 91456488 
1238.103 95360320 99451024 103684688 108008552 112358248 116662792 120859712 
1241.478 124897032 128741456 132378312 135804768 139019984 142016640 
1244.371 144772192 147245728 149379696 151095120 152299936 152898672 
1247.264 152792704 151902352 150177792 147604448 144207152 140043456 
1250.157 135196496 129759896 123836200 117539288 110983776 104294824 
1253.050 97603896 91030840 84690424 78681048 73073656 67921704 63254604 
1256.426 59079344 55386056 52148684 49331636 46889720 44774488 42937864 
1259.801 41330160 39907600 38632976 37475368 36414264 35436632 34535444 
1263.176 33707668 32951198 32263670 31642054 31082572 30581080 30133898 
1266.551 29736598 29384402 29072028 28793972 28545214 28323548 28129004 
1269.927 27964298 27833320 27740314 27688538 27680418 27718558 27807002 
1273.302 27952072 28162870 28448802 28818544 29276426 29820416 30439076 
1276.677 31110228 31802274 32472040 33068464 33541440 33844404 33945140 
1280.052 33832980 33520072 33039678 32437086 31764880 31070080 30388256 
1283.427 29744192 29150508 28612098 28130454 27705880 27338882 27028928 
1286.803 26774906 26574218 26423728 26321484 26266850 26260690 26303636 
1290.178 26394926 26530964 26706226 26914060 27148692 27406110 27683702 
1293.553 27978610 28286698 28601552 28916492 29226592 29531312 29836030 
1296.928 30151512 30492638 30874514 31311526 31816572 32399990 33070822 
1300.304 33833732 34686872 35616172 36591432 37569260 38491392 39294428 
1303.679 39923620 40334608 40505780 40438640 40157504 39704096 39129752 
1307.054 38493348 37848904 37242672 36711056 36274556 35940844 35705340 
1310.429 35556184 35477724 35454820 35475780 35531476 35614156 35716668 
1313.805 35830148 35945560 36055140 36153796 36240048 36315156 36381260 
1317.180 36439668 36489796 36529580 36557336 36573160 36579828 36581956 
1320.555 36583576 36586752 36589740 36587900 36574636 36545044 36496280 
1323.930 36429256 36347756 36258204 36169208 36091180 36037644 36024720 
1327.306 36068424 36184156 36381912 36664040 37025328 37454856 37939800 
1330.681 38467244 39027408 39612612 40214532 40823144 41425140 42004500 
1334.056 42546296 43037876 43471088 43842484 44152540 44403428 44598280 
1337.431 44741208 44837484 44894360 44921476 44929452 44927944 44924600 
1340.807 44924416 44930956 44949480 44988248 45059732 45181008 45369992 
1344.182 45644040 46019032 46506524 47115236 47849412 48707284 49675168 
1347.557 50722736 51802408 52845284 53768440 54491608 54940312 55063592 
1350.932 54841804 54288476 53449236 52392424 51207116 49984692 48809600 
1354.308 47756312 46875620 46195008 45718908 45432384 45307544 45310524 
1357.683 45410532 45581180 45801488 46056760 46334552 46626360 46928512 
1361.058 47245104 47588948 47979724 48440116 48986152 49618816 50319404 
1364.433 51049484 51756080 52372272 52828968 53059500 53004540 52629044 
1367.809 51928048 50934604 49713172 48351668 46945680 45574740 44300200 
1371.184 43157128 42156104 41292552 40555616 39937168 39434532 39050864 
1374.559 38788984 38645144 38606720 38654632 38768264 38933024 39144328 
1377.934 39409100 39744360 40175928 40739508 41476424 42436056 43670320 
1381.310 45217668 47087428 49235804 51560232 53887784 55995552 57655244 
1384.685 58637992 58764524 57940488 56183532 53646876 50592536 47359344 
1388.060 44258300 41509820 39229616 37427840 36051684 35017752 34242720 
1391.435 33653528 33190082 32809526 32479822 32179524 31899366 31639594 
1394.811 31408366 31216028 31069546 30969794 30911372 30885222 30883228 
1398.186 30901942 30944104 31018510 31136354 31308248 31539426 31828980 
1401.561 32170248 32553460 32966570 33397180 33834912 34270508 34696132 
1404.936 35104820 35489588 35844468 36166328 36456820 36724036 36980804 
1408.312 37243688 37527820 37843264 38193960 38577348 38988076 39421436 
1411.687 39876256 40355188 40862928 41403268 41977164 42583096 43219932 
1415.062 43889404 44599344 45363816 46201676 47132592 48171412 49319832 
1418.437 50558880 51845300 53114988 54296548 55329108 56167052 56786520 
1421.813 57185248 57382292 57422340 57373404 57326216 57368188 57564592 
1425.188 57945824 58504520 59211436 60032528 60944452 61935860 63003428 
1428.563 64146556 65362872 66651084 68016328 69477512 71064712 72806672 
1431.938 74722512 76809312 79046624 81401664 83848176 86377432 88995688 
1435.313 91718168 94549344 97467352 100415704 103325072 106141960 108839504 
1438.689 111412696 113855816 116146952 118230624 120017296 121404592 
1441.582 122277104 122529736 122085664 120897184 118962024 116328912 
1444.475 113108496 109462168 105575288 101654408 97882960 94406264 91328200 
1447.850 88692280 86482840 84628008 83028584 81579336 80197392 78846856 
1451.225 77543080 76349376 75345792 74606280 74163992 73999032 74036952 
1454.601 74162936 74248936 74164592 73825296 73232704 72496000 71793288 
1457.976 71293616 71112520 71292944 71832928 72711352 73895048 75339408 
1461.351 76978872 78732648 80491344 82116928 83466016 84395312 84804112 
1464.726 84669560 84058864 83108176 81968768 80781776 79649912 78634984 
1468.102 77774112 77077776 76531632 76094296 75698624 75260552 74691664 
1471.477 73935824 72997128 71957656 70950384 70115696 69555368 69309968 
1474.852 69377952 69734920 70352000 71199096 72241960 73439008 74734440 
1478.227 76062680 77359040 78557480 79605368 80470400 81143600 81644472 
1481.603 82017024 82325904 82643176 83043624 83608672 84417168 85547488 
1484.978 87066992 89012488 91371176 94057824 96920824 99727536 102183792 
1488.353 103982600 104812792 104429696 102721624 99742168 95717872 90976704 
1491.728 85878112 80712976 75664944 70839552 66272288 61974000 57975020 
1495.104 54331132 51130512 48474052 46439888 45058004 44304164 44121288 
1498.479 44437448 45184468 46304988 47744180 49444532 51345896 53377668 
1501.854 55463752 57530472 59487064 61228812 62627568 63502244 63629584 
1505.229 62768704 60739120 57549048 53474344 48996576 44582784 40523968 
1508.604 36905408 33682892 30775908 28122252 25691466 23485166 21517870 
1511.980 19796864 18316258 17054874 15984111 15075157 14303138 13646708 
1515.355 13083423 12590989 12151243 11753949 11402393 11109007 10885937 
1518.730 10734978 10641997 10577145 10505956 10401960 10263043 10115013 
1522.105 9999074 9947575 9966526 10038814 10134753 10229152 10308269 
1525.481 10375659 10446997 10540853 10666446 10819657 10986446 11153063 
1528.856 11313383 11471892 11639138 11825139 12031966 12251807 12469647 
1532.231 12670367 12849098 13016396 13196226 13411498 13674267 13979384 
1535.606 14310842 14649511 14981105 15299943 15605792 15900996 16184192 
1538.982 16445754 16669460 16841440 16962494 17049844 17128352 17217664 
1542.357 17321754 17429318 17520970 17580346 17602324 17596734 17584106 
1545.732 17586382 17616334 17673546 17746750 17821588 17888910 17949302 
1549.107 18013986 18098540 18215938 18368656 18549714 18745860 18947288 
1552.483 19151266 19363554 19595042 19855684 20148552 20468290 20802794 
1555.858 21138356 21463384 21766918 22036884 22259132 22420674 22521692 
1559.233 22582242 22640882 22733152 22873916 23059482 23272360 23490272 
1562.608 23689888 23853576 23973518 24052834 24105054 24148698 24198966 
1565.984 24260312 24325662 24379702 24405812 24392284 24337120 24249556 
1569.359 24148836 24057458 23992776 23964378 23973518 24016100 24084458 
1572.734 24168066 24252920 24318724 24342972 24305406 24196198 24026358 
1576.109 23827568 23642476 23502060 23413962 23363014 23323016 23266312 
1579.485 23171518 23027722 22832740 22590758 22308064 21990316 21641732 
1582.860 21266110 20870094 20463740 20059050 19668256 19298496 18951164 
1586.235 18622890 18309172 18008252 17721898 17454842 17211046 16991092 
1589.610 16791464 16607007 16434157 16274240 16133536 16020276 15940387 
1592.986 15894363 15876181 15877420 15890272 15912166 15946023 15998101 
1596.361 16073739 16174184 16296806 16437907 16596369 16777448 16992056 
1599.736 17254346 17578136 17971886 18438484 18976156 19580656 20245674 
1603.111 20961014 21710660 22467778 23194306 23847240 24379000 24747326 
1606.487 24923238 24893834 24666202 24264832 23728172 23099388 22418686 
1609.862 21723756 21045138 20407892 19832516 19331024 18905686 18548848 
1613.237 18244584 17972716 17710958 17441216 17150274 16834312 16501300 
1616.612 16171226 15871646 15627602 15456172 15362140 15339450 15373982 
1619.988 15447279 15540952 15638286 15730040 15816834 15909212 16022889 
1623.363 16172223 16363962 16595682 16858664 17144138 17446634 17764180 
1626.738 18095120 18435408 18775926 19103658 19407416 19681190 19927138 
1630.113 20153758 20371048 20585320 20795564 20992936 21162950 21288764 
1633.489 21353702 21345524 21259324 21100578 20886886 20644388 20400184 
1636.864 20173230 19970296 19786738 19611266 19428482 19223334 18985468 
1640.239 18712132 18410412 18094396 17781404 17485232 17209976 16950022 
1643.614 16691290 16414817 16101968 15740933 15331555 14888444 14439243 
1646.990 14017196 13652657 13363522 13154216 13017250 12938184 12896677 
1650.365 12865958 12813844 12699400 12481889 12140816 11701968 11243570 
1653.740 10853288 10580065 10417503 10328967 10273086 10220027 10154356 
1657.115 10071775 9976833 9876861 9778777 9685153 9593886 9499557 9396004 
1660.973 9278734 9146165 9000309 8846791 8694038 8550969 8425954 8324379 
1664.830 8247548 8192236 8150910 8113234 8066784 8000224 7906375 7784041 
1668.688 7639653 7485065 7334710 7199702 7086087 6994288 6920990 6859957 
1672.545 6803174 6741283 6663553 6560843 6429639 6276691 6118756 5976231 
1676.402 5864884 5788654 5740203 5705588 5670910 5627607 5575314 5521618 
1680.260 5477089 5449977 5439811 5435651 5416762 5360234 5248374 5081963 
1684.117 4885321 4698416 4555887 4469106 4428735 4414978 4409890 4400116 
1687.975 4379900 4348607 4308682 4264076 4218839 4177822 4146209 4128647 
1691.832 4128145 4143399 4167652 4188360 4189999 4158285 4086936 3984532 
1695.689 3874932 3787886 3742298 3738722 3760279 3781770 3774985 3717935 
1699.547 3604158 3448996 3288046 3157160 3075864 3040694 3034822 3037925 
1703.404 3033153 3009597 2962123 2892070 2806355 2716023 2630676 2557644 
1707.262 2499655 2455734 2422980 2397758 2377768 2362176 2352148 2349916 
1711.119 2357545 2375602 2402655 2435475 2469863 2502754 2531981 2557011 
1714.977 2577676 2592709 2598575 2591542 2569843 2536880 2502820 2481559 
1718.834 2484592 2517117 2577376 2658412 2751900 2850878 2951714 3054375 
1722.691 3161399 3276295 3401406 3537243 3681944 3832677 3986205 4139786 
1726.549 4289641 4431413 4559570 4667836 4751876 4810603 4847291 4868098 
1730.406 4879122 4883210 4877212 4850775 4790133 4684616 4534893 4360622 
1734.264 4196055 4078173 4027203 4041818 4105399 4197159 4299646 4399748 
1738.121 4490599 4570017 4639269 4700626 4756265 4806750 4851177 4887868 
1741.979 4915045 4931365 4936593 4931432 4916955 4895039 4867294 4834994 
1745.836 4798040 4755595 4705215 4644024 4568845 4477107 4366512 4236037 
1749.693 4085632 3917893 3737853 3553879 3377029 3216907 3080503 2969328 
1753.551 2879829 2803954 2731427 2652645 2561411 2457333 2346019 2238229 
1757.408 2144419 2070137 2014676 1970904 1929333 1880346 1818054 1741865 
1761.266 1656477 1570008 1490804 1424712 1373986 1337292 1311169 1291727 
1765.123 1274380 1254508 1228158 1192871 1149050 1100548 1054411 1018009 
1768.980 995625 986326 984101 979651 963080 928645 876982 816792 759532 
1773.320 714825 686084 670719 663120 657811 652368 647258 645035 647889 
1777.660 655620 665476 673341 675531 671084 662091 653032 648552 650809 
1781.999 658375 667799 674868 676394 671914 662655 651472 640621 631363 
1786.339 624296 619650 618257 621641 630733 645234 661826 675564 679945 
1790.678 669691 643210 603259 557340 513947 480112 458485 448103 445682 
1795.018 448070 453046 459746 467441 475103 481107 483595 481406 474971 
1799.358 466081 457689 452880 453245 458717 467905 479449 492253 505820 
1803.697 520051 534548 547819 558800 565800 568687 568620 567890 568421 
1808.037 571042 575256 578906 579835 577048 571175 564739 560791 561089 
1812.376 565767 572635 578872 582091 581560 578275 574725 574062 578507 
1816.716 589290 606610 630069 658474 691295 727005 763980 800626 835383 
1821.056 867885 898530 928446 958929 989880 1020268 1048266 1072812 1094669 
1825.395 1116925 1143568 1177654 1218854 1263547 1305021 1335730 1351351 
1829.253 1352215 1344970 1339452 1346000 1370629 1413243 1469060 1531834 
1833.110 1596146 1658905 1719577 1778893 1837386 1894289 1948105 1997632 
1836.968 2043304 2088448 2138392 2198831 2274001 2365641 2472029 2589242 
1840.825 2712822 2838972 2964925 3088845 3210097 3328512 3444888 3561028 
1844.682 3679037 3800320 3923878 4045597 4159054 4256246 4328928 4371901 
1848.540 4382778 4362931 4315977 4245974 4155709 4046567 3919364 3775921 
1852.397 3620630 3460218 3302636 3154123 3018039 2893905 2778510 2668313 
1856.255 2560711 2455934 2355480 2260811 2172324 2088282 2006087 1923975 
1860.112 1841878 1762059 1687677 1621289 1563224 1511119 1462079 1413410 
1863.969 1365278 1320275 1281990 1253312 1234737 1223140 1213704 1201510 
1867.827 1184133 1162604 1140877 1123204 1112573 1109119 1111112 1116327 
1871.684 1123337 1132040 1142903 1155262 1166757 1173169 1170578 1155661 
1875.542 1128486 1091580 1049595 1006850 965936 927118 889731 852812 816958 
1879.881 783796 755549 732714 713663 694447 670686 639626 601401 559729 
1884.221 519720 486348 461935 445947 435666 428004 421503 415998 413079 
1888.561 413378 416197 419281 420011 417125 411819 407076 406579 412648 
1892.900 424488 438717 451619 459712 462532 462200 462067 464422 470161 
1897.240 476629 480775 480543 475899 468635 461968 457556 455533 453676 
1901.579 449563 441304 430292 419347 411487 408502 409564 410957 409298 
1905.919 402234 390991 379285 372088 372553 380512 392948 405120 413709 
1910.259 418054 420575 425085 434870 450691 470891 492584 513284 532392 
1914.598 550473 568587 586039 600439 607473 603558 588295 564938 540487 
1918.938 521511 511692 510365 513118 514213 509535 498190 483230 469099 
1923.277 459447 454837 453377 452117 449032 445185 443891 449530 464522 
1927.617 488007 516303 544368 568753 588693 606079 623964 643940 665377 
1931.957 685056 699757 707590 709780 709482 710046 713862 719007 723188 
1936.296 723089 718476 712170 708751 712070 723089 737327 748347 749873 
1940.636 738721 717646 693684 675199 668396 674237 688374 706229 723919 
1944.975 741708 762752 791431 828843 872201 914932 949930 973508 986094 
1949.315 992470 998282 1007548 1019172 1029501 1032988 1026943 1012762 
1953.172 996289 982773 976098 974869 973607 965704 947805 921208 892155 
1957.512 869976 860713 866191 882360 901186 914932 919780 915330 904672 
1961.852 891657 877878 864067 851019 839931 834951 840429 858721 888403 
1966.191 923864 956472 979850 992005 996389 999843 1008577 1023788 1041391 
1970.531 1054643 1056138 1043583 1021198 998016 983802 985894 1006551 
1974.388 1044912 1098588 1167488 1253777 1359162 1480564 1608484 1726696 
1978.246 1817655 1869630 1880578 1858649 1817987 1773770 1735711 1705938 
1982.103 1680359 1653284 1620357 1582112 1542541 1507362 1479167 1457890 
1985.960 1439804 1420789 1399282 1376579 1356237 1342144 1335364 1333669 
1989.818 1334666 1335929 1338821 1348227 1370396 1408324 1460516 1518800 
1993.675 1572236 1612109 1633661 1638683 1633262 1625213 1618694 1614072 
1997.533 1608185 1596379 1576492 1549324 1518367 1487346 1457790 1427870 
2001.390 1393764 1351816 1301365 1245503 1191210 1145295 1113836 1099751 
2005.248 1102907 1123071 1160112 1214734 1286311 1371593 1462910 1550222 
2009.105 1624847 1681057 1720741 1749218 1773371 1797492 1821282 1839249 
2012.962 1845505 1836953 1816823 1794264 1780623 1785315 1812996 1861311 
2016.820 1923010 1990675 2059717 2127570 2193902 2257281 2313406 2357179 
2020.677 2383964 2393760 2392494 2389728 2395958 2416316 2450036 2489024 
2024.535 2524183 2548545 2561611 2569010 2580076 2601275 2634976 2677048 
2028.392 2721458 2762904 2800953 2840106 2886500 2944375 3013201 3087510 
2032.250 3159196 3222014 3274726 3319964 3362870 3406950 3451501 3492850 
2036.107 3526286 3548835 3562464 3573289 3587554 3610039 3640744 3675361 
2039.964 3708745 3736784 3759410 3779698 3801758 3826493 3851798 3871756 
2043.822 3880047 3874598 3858317 3838962 3827128 3832176 3857749 3903048 
2047.679 3963031 4030983 4100048 4165377 4222319 4266452 4293790 4301253 
2051.537 4289909 4265749 4238178 4219408 4219910 4243699 4287868 4343185 
2055.394 4396602 4437405 4459867 4463683 4454142 4437873 4420166 4404769 
2059.251 4392652 4383916 4379297 4379967 4386493 4398710 4413940 4427564 
2063.109 4434895 4433254 4422442 4405304 4385824 4367349 4351585 4337931 
2066.966 4324812 4311359 4297940 4286830 4279268 4276457 4276724 4276390 
2070.824 4272073 4261600 4245673 4227538 4211345 4201040 4198564 4204018 
2074.681 4216062 4233293 4255544 4282915 4315475 4352422 4390945 4427631 
2078.539 4459164 4483502 4500542 4512461 4520898 4527694 4533387 4537940 
2082.396 4541288 4544569 4549759 4558565 4572361 4590041 4608291 4623462 
2086.253 4632303 4633408 4628720 4621687 4615324 4611942 4610803 4609463 
2090.111 4605144 4595734 4581033 4563119 4545072 4529737 4519224 4515106 
2093.968 4517885 4527862 4545942 4570955 4601192 4632905 4661339 4682439 
2097.826 4694530 4698717 4699454 4702536 4712149 4730571 4756934 4787922 
2101.683 4820487 4852685 4884484 4917424 4953115 4991825 5032551 5073515 
2105.541 5112973 5150759 5188179 5226710 5267759 5311562 5356477 5400893 
2109.398 5444240 5487189 5531719 5579778 5631434 5684572 5735099 5778513 
2113.255 5812025 5835868 5852928 5867101 5881777 5897731 5913652 5926751 
2117.113 5935081 5939414 5943244 5950768 5965918 5989198 6018325 6048765 
2120.970 6075880 6097519 6114825 6131325 6152295 6181197 6219682 6266942 
2124.828 6321437 6381117 6446319 6517081 6593170 6673580 6754374 6830706 
2128.685 6898030 6954220 6999810 7038973 7077196 7120509 7173325 7238276 
2132.542 7315907 7405348 7504212 7607652 7710880 7806946 7890347 7957870 
2136.400 8010856 8054059 8094633 8139803 8192574 8251532 8310903 8363357 
2140.257 8402204 8425278 8433487 8430818 8420954 8404603 8380112 8344273 
2144.115 8294016 8229785 8156279 8079611 8007379 7943933 7889369 7840244 
2147.972 7790889 7734996 7668318 7589140 7496526 7391664 7276180 7152508 
2151.830 7025166 6899343 6778908 6666278 6560439 6455399 6344904 6226169 
2155.687 6103467 5990139 5906363 5874758 5909890 6012715 6166040 6341004 
2159.544 6505679 6633878 6713319 6744816 6738187 6705882 6658843 6603935 
2163.402 6543418 6478874 6410203 6338785 6266338 6194810 6125847 6060827 
2167.259 6001225 5947913 5900754 5857462 5813234 5760147 5690682 5598808 
2171.117 5483464 5350003 5207964 5070229 4948122 4849267 4775627 4725514 
2174.974 4693760 4673831 4660368 4647038 4627045 4594863 4545607 4478748 
2178.832 4398175 4313936 4238044 4181603 4151561 4146242 4158887 4177655 
2182.689 4191572 4194583 4184814 4164675 4137813 4107072 4073056 4034795 
2186.546 3993026 3948854 3907094 3871589 3844878 3826761 3814025 3801490 
2190.404 3785045 3764056 3739892 3716932 3699655 3689296 3686455 3689563 
2194.261 3696581 3707241 3722213 3741830 3766027 3792432 3817000 3835853 
2198.119 3847352 3851765 3852667 3853904 3857949 3864669 3871956 3875534 
2201.976 3872558 3862797 3847620 3830972 3816298 3805568 3799485 3797680 
2205.833 3799819 3806571 3819239 3838159 3862295 3888070 3910470 3925182 
2209.691 3930364 3926620 3917425 3907461 3900574 3897331 3897164 3897599 
2213.548 3897264 3896295 3897164 3902814 3915653 3936048 3962664 3992057 
2217.406 4022187 4051450 4079009 4105734 4130955 4153401 4171098 4182271 
2221.263 4185651 4181970 4172971 4160192 4145205 4128179 4108811 4087639 
2225.121 4066032 4046567 4032554 4025865 4026367 4031852 4039209 4045330 
2228.978 4049745 4054527 4062487 4077036 4099780 4128848 4160627 4190736 
2232.835 4215828 4234899 4249086 4260529 4271906 4285090 4300416 4318219 
2236.693 4338834 4362395 4388970 4418191 4447380 4473492 4493545 4505196 
2240.550 4508912 4507539 4504359 4503153 4505798 4511959 4520195 4529168 
2244.408 4537806 4546980 4557728 4570955 4585788 4600757 4613482 4622959 
2248.265 4630059 4637828 4649550 4667769 4692621 4721628 4750804 4776331 
2252.123 4796163 4811441 4824540 4838344 4854360 4871818 4887868 4899831 
2255.980 4905159 4903550 4895877 4883746 4867662 4847424 4821760 4789698 
2259.837 4751843 4710775 4670114 4634178 4606115 4586793 4575643 4571155 
2263.695 4571758 4576647 4586090 4599987 4617166 4635920 4653134 4666161 
2267.552 4673831 4676210 4675238 4673329 4672157 4672190 4673228 4673965 
2271.410 4673597 4672157 4670281 4668841 4668506 4669243 4670348 4671889 
2275.267 4673999 4677683 4684114 4694664 4709201 4726887 4746282 4765711 
2279.125 4784337 4801993 4819046 4835631 4852015 4866925 4879625 4889543 
2282.982 4895977 4899060 4898926 4895173 4886997 4873694 4855064 4831978 
2286.839 4806918 4782562 4761658 4745377 4732682 4720723 4706153 4686224 
2290.697 4660033 4628987 4596035 4564894 4538744 4519358 4507037 4501412 
2294.554 4501479 4506100 4514336 4524447 4534759 4542862 4546779 4545407 
2298.412 4539313 4530071 4520262 4512159 4507204 4505497 4506468 4508711 
2302.269 4511590 4514671 4518219 4522170 4526288 4529402 4530641 4529101 
2306.126 4525217 4520329 4516612 4515976 4519525 4527025 4537706 4550060 
2309.984 4562617 4575341 4588400 4602364 4617769 4634714 4652363 4670214 
2313.841 4687162 4702770 4716403 4727691 4736400 4742229 4745310 4745947 
2317.699 4745478 4745109 4746684 4750838 4758241 4768592 4781389 4795460 
2321.556 4809062 4820185 4825613 4821458 4803869 4770301 4720389 4656617 
2325.414 4584382 4510318 4441054 4381808 4334551 4298509 4271136 4248651 
2329.271 4228910 4211044 4195654 4184212 4178123 4177220 4180799 4187557 
2333.128 4196590 4207531 4220478 4235869 4253971 4274483 4296400 4319056 
2336.986 4342080 4365441 4389539 4414275 4439246 4463482 4485979 4506367 
2340.843 4524815 4542259 4559503 4576379 4592050 4604608 4612946 4617836 
2344.701 4622591 4632805 4654775 4693726 4751809 4827623 4915950 5010227 
2348.558 5103050 5187576 5258603 5312568 5347789 5364461 5364662 5352217 
2352.416 5331285 5306699 5282415 5260783 5242874 5228889 5218326 5211015 
2356.273 5207126 5207025 5210747 5217991 5227682 5238212 5248475 5257496 
2360.130 5265713 5273427 5281543 5290599 5300695 5311965 5324711 5340141 
2363.988 5359865 5385327 5417399 5455313 5496953 5539538 5580080 5616497 
2367.845 5648754 5677724 5705790 5735267 5768608 5807391 5852659 5904784 
2371.703 5962929 6025616 6090463 6154412 6214337 6268657 6316394 6358756 
2375.560 6398333 6437307 6477898 6521050 6565989 6611505 6656083 6698748 
2379.417 6739365 6778100 6815526 6851879 6887392 6922067 6956206 6990651 
2383.275 7026378 7064399 7104914 7147118 7189360 7229887 7267184 7301215 
2387.132 7333093 7364905 7399113 7437132 7479132 7524406 7571506 7619083 
2390.990 7666395 7713713 7761609 7810961 7862309 7915553 7970120 8025571 
2394.847 8081603 8138014 8195073 8252782 8311072 8369708 8428792 8487917 
2398.705 8547083 8606123 8664866 8722400 8778117 8831440 8882164 8930832 
2402.562 8978727 9027001 9076902 9128874 9182917 9238658 9295626 9353447 
2406.419 9411851 9470500 9529056 9587145 9644700 9702365 9761901 9825613 
2410.277 9896114 9975036 10062415 10156087 10252662 10347867 10437800 
2413.652 10520044 10593781 10659416 10718031 10770844 10818909 10863412 
2417.027 10905847 10948014 10991986 11039701 11091943 11148440 11208106 
2420.403 11269413 11331476 11394127 11458114 11524866 11595678 11670484 
2423.778 11749149 11830996 11915309 12002534 12093355 12188897 12290152 
2427.153 12397328 12509681 12626429 12746722 12870668 12998472 13131129 
2430.528 13269155 13412626 13561202 13714344 13872021 14034376 14201652 
2433.904 14373959 14550549 14729473 14908332 15085208 15259136 15430833 
2437.279 15601946 15774466 15949838 16128240 16307987 16487120 16663572 
2440.654 16835792 17003564 17166886 17325616 17478780 17624960 17762144 
2444.029 17889118 18005802 18113258 18213450 18308378 18400044 18489134 
2447.405 18576064 18661110 18744684 18826822 18907832 18986608 19061278 
2450.780 19129348 19188702 19238296 19279582 19315712 19351948 19393800 
2454.155 19446156 19512240 19593934 19691244 19803972 19931614 20073660 
2457.530 20229878 20400010 20583028 20777454 20981600 21193808 21412178 
2460.906 21635672 21863566 22095660 22332482 22575368 22825546 23084816 
2464.281 23354552 23635446 23927618 24231126 24545402 24871132 25209256 
2467.656 25561172 25928430 26311872 26710842 27124002 27548856 27983098 
2471.031 28424568 28872296 29325272 29782940 30243758 30705918 31166614 
2474.406 31622988 32072454 32512606 32941762 33357714 33757764 34139336 
2477.782 34499036 34833828 35141068 35418652 35664904 35878404 36057372 
2481.157 36200792 36307480 36377588 36412248 36414048 36386632 36334140 
2484.532 36261300 36172164 36070296 35958412 35838420 35710948 35576104 
2487.907 35432960 35280484 35117428 34942836 34756144 34557152 34345236 
2491.283 34120264 33880800 33625424 33352594 33060844 32749318 32418020 
2494.658 32066998 31697116 31309034 30903508 30481690 30045050 29595402 
2498.033 29135060 28666248 28190624 27710188 27225730 26738292 26249076 
2501.408 25760266 25274468 24794928 24324926 23866842 23422216 22991354 
2504.784 22573552 22168042 21774548 21393104 21024688 20670692 20332436 
2508.159 20011270 19708302 19424116 19159888 18916242 18693590 18491624 
2511.534 18309624 18145592 17997720 17863982 17743264 17635450 17541428 
2514.909 17462154 17398588 17351100 17319168 17301824 17297550 17305478 
2518.285 17324788 17354892 17394726 17443424 17499478 17561368 17627720 
2521.660 17697568 17769806 17844096 17919882 17996442 18073152 18149290 
2525.035 18224370 18297768 18368622 18435960 18497880 18552308 18596676 
2528.410 18628390 18645788 18647310 18632506 18601378 18554314 18492280 
2531.786 18416704 18329460 18233078 18130496 18024450 17917292 17810642 
2535.161 17704988 17600564 17496650 17392758 17288928 17185364 17082824 
2538.536 16981856 16883188 16787778 16695868 16608143 16525118 16447164 
2541.911 16373906 16305132 16239773 16176522 16113900 16050909 15986413 
2545.287 15920004 15851507 15781064 15709566 15638044 15567910 15500808 
2548.662 15437975 15380127 15327230 15278492 15232471 15188240 15144664 
2552.037 15101607 15059480 15018936 14980488 14944306 14910116 14877540 
2555.412 14846270 14816374 14788364 14762551 14739550 14718983 14700235 
2558.788 14682069 14662672 14640875 14615139 14584881 14549898 14510737 
2562.163 14468256 14424000 14379919 14337656 14298755 14264205 14234108 
2565.538 14208054 14186040 14167657 14153211 14143456 14138732 14139039 
2568.913 14143832 14151363 14160263 14169266 14178202 14188061 14200248 
2572.289 14216031 14236266 14260336 14286838 14313787 14339608 14363444 
2575.664 14385158 14405674 14425781 14446435 14468428 14491997 14517589 
2579.039 14545615 14576041 14608971 14643754 14679636 14716070 14752850 
2582.414 14790147 14829470 14872157 14919375 14971502 15027751 15086924 
2585.790 15147408 15208039 15268711 15330113 15393447 15459639 15529378 
2589.165 15602221 15677480 15754195 15831541 15908729 15985554 16061189 
2592.540 16134979 16206170 16273964 16338021 16398404 16455390 16509388 
2595.915 16560880 16609486 16655207 16697729 16737293 16774727 16811302 
2599.291 16848054 16886186 16926284 16968042 17011800 17057080 17103880 
2602.666 17152170 17202392 17254692 17309272 17367100 17428318 17494338 
2606.041 17565992 17644144 17729146 17820516 17917224 18018096 18122032 
2609.416 18228308 18336994 18448372 18562682 18679858 18799832 18921952 
2612.792 19045942 19171766 19299742 19429972 19562494 19696964 19832308 
2616.167 19967658 20101976 20234982 20366222 20495592 20622324 20745618 
2619.542 20864184 20976872 21083814 21185320 21283024 21378554 21473168 
2622.917 21566790 21658588 21746608 21829036 21904580 21973026 22035002 
2626.292 22091408 22143774 22192732 22239078 22283336 22326204 22368308 
2629.668 22410382 22452390 22493914 22533696 22570028 22601650 22628002 
2633.043 22649016 22665772 22679318 22690524 22700054 22707700 22713320 
2636.418 22716918 22718978 22720060 22721142 22722782 22725190 22728228 
2639.793 22731862 22735980 22741148 22748376 22758712 22773060 22792022 
2643.169 22815488 22843426 22875418 22911218 22950654 22993904 23040616 
2646.544 23090512 23143454 23199128 23257712 23319276 23384450 23452886 
2649.919 23524200 23597136 23669838 23740840 23808526 23872338 23932622 
2653.294 23990430 24046774 24103160 24160606 24220020 24281930 24346548 
2656.670 24413944 24483978 24556026 24629274 24702502 24774690 24845098 
2660.045 24913238 24979072 25043304 25106312 25169122 25232432 25296874 
2663.420 25363154 25431552 25502384 25575476 25650268 25725778 25801124 
2666.795 25875180 25947318 26017284 26085292 26151868 26217820 26284238 
2670.171 26352114 26422532 26496132 26573198 26653798 26737340 26823328 
2673.546 26911170 27000754 27092474 27187034 27285566 27388816 27496960 
2676.921 27609828 27726824 27846922 27969776 28094608 28221810 28351596 
2680.296 28483932 28618538 28754922 28892232 29029906 29167552 29305418 
2683.672 29443792 29582880 29723080 29864210 30006062 30148636 30291896 
2687.047 30436268 30582360 30730742 30881984 31036340 31194026 31355154 
2690.422 31519938 31688814 31861820 32038886 32219422 32402738 32587674 
2693.797 32773402 32959242 33145950 33333742 33524048 33718232 33917304 
2697.173 34121772 34331788 34546604 34765544 34987440 35211488 35436880 
2700.548 35663612 35891432 36120632 36351284 36583216 36815992 37049072 
2703.923 37281884 37513948 37745308 37976392 38208032 38440308 38673864 
2707.298 38908704 39144760 39381856 39620564 39861656 40106408 40356240 
2710.674 40612148 40875088 41145328 41423136 41708520 42001176 42301080 
2714.049 42607656 42919464 43235084 43552100 43867960 44180708 44488364 
2717.424 44789288 45082708 45367932 45644960 45914244 46177096 46435500 
2720.799 46692104 46950000 47212152 47481004 47758676 48046336 48345000 
2724.175 48655244 48977324 49311332 49656484 50011428 50374360 50743256 
2727.550 51116272 51492328 51871104 52252560 52636672 53023000 53410004 
2730.925 53795856 54178332 54555060 54924144 55284096 55633200 55969880 
2734.300 56291736 56596768 56883052 57149492 57395680 57622784 57831948 
2737.676 58025120 58203868 58370372 58526548 58675044 58818852 58961716 
2741.051 59107288 59259060 59420196 59592940 59779824 59982500 60202740 
2744.426 60441672 60700212 60977584 61272384 61581660 61901892 62228484 
2747.801 62556580 62880708 63195504 63494644 63772396 64023248 64242624 
2751.177 64427564 64576784 64690292 64768940 64813988 64826140 64805484 
2754.552 64751364 64662532 64537032 64372764 64167260 63918164 63623184 
2757.927 63280664 62889940 62451048 61965672 61436480 60867180 60262424 
2761.302 59627224 58967752 58290296 57601784 56909380 56219736 55539996 
2764.677 54876580 54235356 53622172 53042388 52500880 52001768 51548404 
2768.053 51142960 50786160 50477480 50215656 49998784 49824720 49691440 
2771.428 49596640 49538148 49513116 49517868 49548028 49598724 49664580 
2774.803 49740184 49820184 49899460 49973576 50038080 50089208 50124016 
2778.178 50140416 50137064 50113972 50072216 50013692 49941128 49857832 
2781.554 49767196 49672788 49577772 49484856 49396120 49312892 49235988 
2784.929 49165596 49101112 49041196 48983964 48925736 48862620 48789544 
2788.304 48701464 48594136 48464196 48309632 48130544 47928324 47705716 
2791.679 47466812 47216364 46959528 46701992 46449956 46208824 45984076 
2795.055 45780352 45601604 45451184 45331924 45246164 45196196 45183804 
2798.430 45210240 45276208 45381764 45526316 45708788 45927576 46181004 
2801.805 46466956 46782948 47126280 47493128 47880228 48283748 48700056 
2805.180 49126152 49558832 49994884 50430920 50862256 51283920 51690612 
2808.556 52076880 52437432 52768280 53065528 53325744 53546264 53724528 
2811.931 53858452 53946532 53988176 53983636 53933704 53840824 53707952 
2815.306 53539368 53340800 53119108 52882296 52639328 52399336 52171064 
2818.681 51963040 51782320 51634972 51525868 51457936 51432684 51449652 
2822.057 51506840 51600380 51725624 51877076 52048752 52234364 52428312 
2825.432 52623844 52814828 52995256 53159216 53302440 53421544 53514932 
2828.807 53582624 53626256 53648380 53652880 53644028 53626972 53606392 
2832.182 53587312 53573552 53567784 53571568 53585436 53609388 53643428 
2835.558 53687896 53743876 53812584 53895436 53993844 54109644 54245264 
2838.933 54404544 54593496 54819100 55090748 55418164 55810664 56277100 
2842.308 56826060 57464732 58200800 59041692 59993988 61061780 62244696 
2845.683 63534608 64912008 66344164 67785704 69174888 70442016 71515520 
2849.059 72324104 72813608 72950608 72728392 72168712 71317704 70241912 
2852.434 69011872 67700352 66373312 65080448 63859664 62735132 61718444 
2855.809 60812408 60012744 59311128 58694880 58150452 57664328 57222932 
2859.184 56815180 56431736 56064724 55708268 55357148 55006724 54653088 
2862.560 54292756 53922672 53541244 53148204 52744592 52333364 51920056 
2865.935 51512360 51119404 50751712 50420092 50133496 49899348 49721384 
2869.310 49600504 49533876 49516124 49540000 49596124 49674388 49764408 
2872.685 49855488 49938228 50004880 50049532 50069200 50062808 50031316 
2876.061 49976516 49901168 49807884 49699464 49578852 49449028 49313188 
2879.436 49174316 49035076 48897996 48764924 48637608 48517512 48406076 
2882.811 48304632 48214320 48135648 48068916 48013956 47970580 47938468 
2886.186 47917484 47907200 47907680 47918668 47940096 47971988 48014840 
2889.562 48069356 48136836 48218468 48315484 48428820 48559896 48710248 
2892.937 48882532 49080668 49309068 49573092 49877676 50226032 50619004 
2896.312 51054216 51525792 52024024 52535024 53042916 53529212 53975344 
2899.687 54365792 54689240 54940876 55123548 55247632 55328956 55385752 
2903.063 55437660 55502604 55594708 55726388 55906976 56144088 56445056 
2906.438 56816884 57266936 57803596 58436096 59174832 60031004 61014992 
2909.813 62134004 63388892 64771360 66260128 67818504 69399528 70942232 
2913.188 72379328 73647376 74685760 75448112 75907168 76054584 75902944 
2916.563 75480560 74829656 73997968 73032216 71978144 70873296 69747792 
2919.939 68625968 67524728 66456632 65430396 64450928 63521572 62643988 
2923.314 61819100 61047632 60330108 59667364 59059112 58504480 58001340 
2926.689 57545908 57132868 56755780 56406680 56077016 55757804 55439924 
2930.064 55115388 54778804 54427120 54060596 53682872 53299708 52917252 
2933.440 52541228 52176292 51825256 51490016 51172144 50873320 50595884 
2936.815 50342248 50114196 49913544 49741000 49597052 49482480 49398496 
2940.190 49346448 49327740 49342476 49389064 49463060 49558572 49667476 
2943.565 49780760 49889384 49983952 50054816 50093260 50090808 50040572 
2946.941 49939268 49787672 49591628 49361444 49111644 48858616 48617484 
2950.316 48402076 48222540 48084236 47988972 47934948 47917892 47931360 
2953.691 47968660 48023056 48088084 48158936 48231316 48302708 48371332 
2957.066 48436596 48498612 48558304 48617372 48678300 48743352 48814904 
2960.442 48894400 48982368 49078292 49180584 49287800 49398124 49510440 
2963.817 49623572 49736620 49848468 49957596 50062100 50160236 50250656 
2967.192 50332948 50407252 50475096 50538816 50601320 50666472 50738416 
2970.567 50821356 50918956 51033908 51167152 51317480 51482256 51656988 
2973.943 51836416 52014840 52187092 52348088 52493368 52619284 52722824 
2977.318 52802064 52856924 52888696 52900448 52896144 52880648 52858456 
2980.693 52833572 52809360 52788072 52770784 52757916 52748112 52738684 
2984.068 52724880 52700600 52657996 52588688 52484876 52339116 52146480 
2987.444 51904744 51614592 51280188 50908152 50507960 50089692 49663168 
2990.819 49237140 48818240 48410444 48015916 47635308 47268044 46913012 
2994.194 46568488 46231864 45899364 45566352 45227008 44875328 44506384 
2997.569 44116336 43703552 43268648 42814320 42344620 41864732 41380488 
3000.945 40897368 40420564 39953916 39500248 39060900 38635980 38225116 
3004.320 37827180 37441924 37069064 36709180 36363064 36031020 35712892 
3007.695 35407868 35114736 34831776 34557472 34290732 34030744 33776820 
3011.070 33528484 33285086 33046116 32810810 32578674 32349050 32121688 
3014.446 31896334 31672846 31451714 31233830 31020538 30813328 30613610 
3017.821 30422550 30239992 30065146 29896866 29733866 29575716 29422942 
3021.196 29276886 29139488 29012548 28897580 28795070 28705114 28628094 
3024.571 28564570 28515456 28482412 28466844 28469426 28489664 28525258 
3027.947 28572604 28626076 28679344 28724936 28754992 28762390 28741292 
3031.322 28687876 28601410 28484074 28340632 28176660 27998860 27812760 
3034.697 27622398 27430778 27239702 27050260 26863228 26679378 26498914 
3038.072 26321730 26147186 25974718 25803902 25635084 25468932 25306920 
3041.448 25150548 25000938 24858746 24724212 24597014 24477004 24363826 
3044.823 24257438 24157242 24062604 23972504 23886132 23802962 23722922 
3048.198 23646466 23574432 23507236 23445296 23388154 23335394 23286586 
3051.573 23241668 23200842 23164668 23132724 23104628 23078454 23052634 
3054.948 23025834 22997782 22969274 22942410 22919078 22900844 22888200 
3058.324 22880692 22877234 22877164 22880342 22887572 22900112 22919078 
3061.699 22945310 22978742 23018604 23064060 23114622 23169840 23229992 
3065.074 23295188 23365008 23438162 23513288 23587830 23659236 23725408 
3068.449 23783780 23832328 23869328 23893552 23904334 23901850 23887462 
3071.825 23863306 23831664 23794946 23755468 23714488 23673372 23633066 
3075.200 23594336 23557852 23524026 23492826 23463586 23435260 23406548 
3078.575 23376652 23345078 23312352 23279246 23246736 23215872 23187490 
3081.950 23161626 23138524 23117976 23099770 23083488 23068880 23055674 
3085.326 23043688 23033522 23025626 23021190 23020768 23024858 23033172 
3088.701 23044842 23058818 23074228 23090684 23108612 23128950 23152400 
3092.076 23179416 23209962 23243486 23278756 23315500 23353400 23393120 
3095.451 23435048 23480094 23528046 23578140 23629426 23680442 23730202 
3098.827 23778322 23824732 23870028 23914628 23959582 24005244 24051784 
3102.202 24099028 24146490 24193570 24239430 24283962 24327450 24370870 
3105.577 24416256 24465786 24520966 24582918 24651156 24724212 24799736 
3108.952 24875166 24948716 25018698 25084758 25146792 25205006 25259754 
3112.328 25311592 25361256 25410016 25459270 25510712 25565108 25622606 
3115.703 25682608 25743672 25804218 25862802 25918758 25971976 26022422 
3119.078 26070198 26115306 26157602 26196668 26232954 26267168 26300396 
3122.453 26334016 26369294 26406932 26447322 26490428 26536036 26583518 
3125.829 26632660 26682794 26733288 26783858 26834080 26884060 26934400 
3129.204 26985662 27038906 27094202 27151550 27210352 27269830 27329178 
3132.579 27388040 27446238 27504268 27562624 27621128 27680134 27739326 
3135.954 27799516 27860946 27924864 27992040 28062548 28136356 28211910 
3139.330 28287688 28361994 28433872 28503074 28569950 28635242 28699662 
3142.705 28763526 28826758 28889364 28951624 29013788 29076846 29141650 
3146.080 29208908 29278694 29350972 29425246 29501096 29578236 29656274 
3149.455 29735108 29814240 29893104 29970916 30047214 30121574 30193886 
3152.831 30264790 30334850 30404782 30475256 30546596 30619300 30693330 
3156.206 30768368 30844026 30919482 30993814 31066342 31137174 31206592 
3159.581 31276096 31347532 31422290 31501554 31585534 31673700 31764772 
3162.956 31857468 31950646 32043562 32135532 32225952 32314104 32399204 
3166.332 32480504 32558064 32632284 32704696 32777082 32851264 32928716 
3169.707 33010218 33095744 33184648 33275966 33368592 33461378 33553146 
3173.082 33643112 33730764 33816180 33899752 33982296 34065144 34149440 
3176.457 34235872 34324540 34415420 34507716 34601140 34695268 34790352 
3179.833 34886280 34983268 35081220 35179796 35278436 35376668 35474272 
3183.208 35570856 35666308 35760920 35855012 35949376 36045024 36143028 
3186.583 36244300 36349016 36456572 36565768 36674352 36780684 36883692 
3189.958 36983436 37081012 37178276 37277368 37379880 37486676 37598052 
3193.333 37713756 37833396 37956396 38082216 38209736 38337872 38465104 
3196.709 38590060 38712152 38831344 38948428 39064528 39180732 39297660 
3200.084 39415012 39532544 39649968 39767272 39884864 40003252 40123048 
3203.459 40244084 40365912 40487848 40609204 40730188 40851356 40973136 
3206.834 41096044 41219896 41343936 41466984 41588392 41708120 41827112 
3210.210 41946396 42067320 42189808 42313316 42436240 42557444 42676052 
3213.585 42792456 42908128 43025108 43145160 43269564 43398544 43531884 
3216.960 43668488 43807888 43948684 44090224 44231372 44371056 44508588 
3220.335 44643628 44776616 44908504 45040692 45173656 45307912 45443012 
3223.711 45578052 45712468 45845820 45978844 46111988 46245424 46378536 
3227.086 46510136 46638128 46760804 46877576 46988988 47096952 47204248 
3230.461 47313228 47425640 47541700 47661012 47781832 47902540 48021352 
3233.836 48137244 48249792 48359704 48468348 48578016 48690900 48809380 
3237.212 48934192 49064828 49198808 49333420 49465252 49592184 49713656 
3240.587 49830700 49945292 50059088 50173328 50287932 50402676 50517116 
3243.962 50631884 50748768 50870192 50998468 51134608 51278104 51426828 
3247.337 51578028 51728908 51878084 52025408 52172148 52319944 52470332 
3250.713 52624032 52781036 52940868 53102220 53264384 53426564 53588288 
3254.088 53749124 53909280 54069040 54229272 54390764 54554684 54721108 
3257.463 54889892 55059868 55229836 55398476 55565524 55731168 55896916 
3260.838 56064004 56233652 56406456 56582124 56759672 56938276 57116728 
3264.214 57294496 57471316 57647260 57822600 57998044 58174356 58352480 
3267.589 58533260 58716992 58903044 59090052 59275696 59458072 59635852 
3270.964 59808912 59978924 60148240 60319904 60496132 60678604 60867140 
3274.339 61060944 61258452 61458500 61660052 61863304 62068252 62275860 
3277.715 62486404 62700292 62917592 63137636 63359828 63583128 63806744 
3281.090 64030192 64253688 64477952 64704596 64935328 65171756 65414792 
3284.465 65664820 65921320 66183180 66449448 66719272 66992016 67267944 
3287.840 67547144 67830240 68117712 68409992 68707208 69009464 69316344 
3291.216 69627240 69941512 70258744 70579320 70904304 71235632 71574792 
3294.591 71923744 72282656 72650752 73026808 73408328 73794032 74183144 
3297.966 74575744 74972176 75373144 75778504 76187568 76599936 77015184 
3301.341 77434000 77857632 78288008 78726448 79173840 79630128 80094864 
3304.717 80567440 81048232 81537520 82037120 82548072 83071152 83606696 
3308.092 84154296 84713376 85283496 85864264 86454864 87054560 87662144 
3311.467 88276264 88896224 89522272 90156280 90800528 91457512 92128600 
3314.842 92813272 93509808 94215240 94926672 95642744 96363232 97088968 
3318.218 97821328 98560816 99307736 100060864 100818768 101580512 102344848 
3321.593 103111336 103878752 104645552 105409944 106170096 106924760 
3324.486 107673776 108417112 109155200 109887592 110612456 111327272 
3327.379 112028944 112715216 113384504 114036944 114672240 115290240 
3330.272 115889216 116466616 117018928 117543368 118036832 118497632 
3333.165 118923640 119312424 119661136 119967504 120229728 120448504 
3336.058 120626464 120767728 120876696 120955440 121003640 121018392 
3338.951 120995272 120929480 120817880 120658960 120453104 120201320 
3341.844 119904616 119563776 119179472 118752312 118282968 117772056 
3344.737 117219920 116625736 115987568 115303544 114572672 113795784 
3347.630 112976400 112120176 111232576 110319624 109384712 108430168 
3350.523 107456616 106464800 105455976 104432848 103398128 102354880 
3353.417 101305624 100252064 99195520 98137752 97081056 96028800 94984520 
3356.792 93951552 92932032 91927632 90938792 89966088 89010656 88073592 
3360.167 87156808 86261392 85388192 84537064 83706776 82896592 82105248 
3363.542 81332088 80576616 79838936 79118456 78414720 77727552 77056848 
3366.917 76402936 75766712 75148976 74549896 73969048 73405576 72857840 
3370.293 72324496 71804232 71295520 70797664 70308640 69826624 69349416 
3373.668 68874720 68401112 67928144 67456304 66987140 66522120 66062800 
3377.043 65610020 65164216 64725176 64292260 63864732 63441196 63019708 
3380.418 62598176 62174644 61747436 61315804 60880520 60442628 60004260 
3383.794 59567324 59132876 58701708 58273468 57848000 57424608 57003140 
3387.169 56583404 56165844 55750720 55338740 54930576 54527032 54128560 
3390.544 53736000 53349532 52968904 52593696 52223036 51856132 51491844 
3393.919 51129464 50767576 50405020 50040648 49673828 49305060 48936084 
3397.295 48569568 48209064 47857700 47517192 47187996 46868496 46556312 
3400.670 46248888 45943964 45640360 45337184 45034152 44730484 44425340 
3404.045 44117804 43807516 43495332 43183072 42873492 42568992 42270800 
3407.420 41978732 41691048 41404944 41117792 40827804 40534916 40240884 
3410.796 39947956 39659004 39376304 39101216 38833296 38571772 38314420 
3414.171 38059284 37804368 37548736 37292024 37035144 36779208 36525296 
3417.546 36274088 36025548 35778656 35532520 35286200 35040164 34796168 
3420.921 34556540 34323864 34100124 33885420 33678556 33477374 33278898 
3424.297 33081048 32882646 32683332 32483288 32283514 32084086 31884924 
3427.672 31685784 31486626 31287454 31088622 30890594 30693686 30498182 
3431.047 30304472 30113228 29925156 29741352 29562522 29388940 29219858 
3434.422 29054066 28889896 28726070 28562022 28398532 28236626 28077252 
3437.798 27920764 27766770 27613784 27460392 27305148 27148270 26990600 
3441.173 26833304 26678214 26526104 26377356 26230772 26084482 25936800 
3444.548 25785408 25628688 25465806 25296910 25123692 24948574 24775320 
3447.923 24607324 24447244 24295912 24152656 24015014 23880076 23745248 
3451.299 23609030 23471210 23332666 23194654 23058154 22923340 22789892 
3454.674 22657324 22525076 22392902 22261050 22129618 21998438 21867190 
3458.049 21735390 21602936 21470416 21339016 21210160 21084578 20962684 
3461.424 20843674 20726260 20609572 20492536 20375318 20258240 20141504 
3464.800 20024906 19907506 19788436 19667460 19544644 19421414 19299810 
3468.175 19180944 19065398 18952376 18840420 18727940 18614210 18499852 
3471.550 18386388 18275546 18168154 18063928 17961458 17858458 17753516 
3474.925 17645664 17535562 17425144 17315616 17208426 17103950 17001704 
3478.301 16900722 16799972 16698968 16596887 16493659 16389493 16284937 
3481.676 16180925 16079618 15983148 15892919 15809549 15731484 15656045 
3485.051 15579141 15497649 15409479 15315388 15217955 15120304 15025899 
3488.426 14936315 14851139 14768618 14686628 14603625 14519027 14433728 
3491.802 14349095 14266739 14187444 14111280 14037729 13966552 13896824 
3495.177 13828680 13761812 13696117 13631732 13568894 13508459 13451140 
3498.552 13398000 13348897 13303149 13258873 13213543 13164735 13111527 
3501.927 13054603 12996185 12939584 12887972 12843193 12805210 12773235 
3505.302 12744948 12718506 12692611 12666410 12639733 12612546 12584781 
3508.678 12556711 12528949 12502519 12478581 12458292 12441925 12428798 
3512.053 12417410 12406227 12394158 12381237 12368452 12357134 12348202 
3515.428 12341521 12335556 12328363 12318136 12303888 12286334 12267384 
3518.803 12248911 12232075 12216636 12200347 12180343 12153492 12117920 
3522.179 12072641 12018749 11958222 11893242 11825718 11756808 11686515 
3525.554 11613850 11537115 11454440 11364331 11265910 11159828 11048266 
3528.929 10933946 10820642 10711204 10607499 10509961 10417096 10327338 
3532.304 10238243 10147708 10054887 9958864 9859337 9756478 9650426 9541994 
3536.162 9432404 9323046 9215744 9111583 9011540 8915544 8823154 8734098 
3540.019 8648033 8565602 8487308 8413352 8343429 8276185 8209694 8141693 
3543.877 8070598 7995836 7917882 7837748 7756954 7676614 7597030 7518776 
3547.734 7441817 7366455 7292555 7219983 7147927 7075007 6999810 6921158 
3551.592 6838987 6754610 6670248 6588394 6511330 6440064 6374324 6312898 
3555.449 6254102 6196255 6138449 6079341 6018392 5954732 5887621 5816727 
3559.306 5742351 5665841 5589343 5515309 5445918 5382676 5325985 5275339 
3563.164 5229393 5186604 5144791 5101306 5053267 4997390 4930829 4851814 
3567.021 4761256 4662243 4559503 4458327 4362496 4274382 4193981 4120284 
3570.879 4051885 3987676 3927589 3871221 3818571 3768835 3720943 3672922 
3574.736 3622969 3570048 3513493 3454039 3392390 3329614 3266146 3201986 
3578.594 3137235 3071727 3005961 2941172 2878862 2820629 2768473 2723925 
3582.451 2687883 2660812 2641243 2627109 2614275 2597942 2571976 2531348 
3586.308 2472695 2395958 2304612 2206124 2109224 2021799 1949403 1894023 
3590.166 1854257 1826605 1806275 1788841 1769944 1746157 1715751 1678363 
3594.023 1634625 1586535 1536423 1486482 1438076 1392268 1349191 1308577 
3597.881 1269994 1233109 1197257 1162172 1127489 1093008 1058795 1025117 
3601.738 992603 962350 935253 912442 894512 881464 872865 867387 862971 
3606.078 856464 844977 824826 793622 750770 697268 637004 574526 514047 
3610.417 458386 408171 362438 319164 276591 234387 194009 157713 128148 
3614.757 107036 94044 86919 82246 75651 61998 37310 -1491 -55562 -123837 
3619.579 -202534 -285852 -367334 -440988 -502154 -548386 -579260 -595639 
3623.436 -599312 -591768 -574495 -548121 -513936 -474584 -434236 -399644 
3627.293 -379748 -382628 -413614 -471142 -546070 -624425 -694232 -748184 
3631.151 -785923 -811555 -830472 -847966 -866881 -887647 -908776 -928152 
3635.008 -943956 -956155 -966041 -975727 -987629 -1003001 -1022835 -1046767 
3638.866 -1074135 -1104343 -1136830 -1170967 -1205663 -1239199 -1269033 
3642.241 -1291960 -1305009 -1305736 -1292984 -1267183 -1230377 -1186167 
3645.616 -1139044 -1094528 -1058468 -1036222 -1032156 -1048684 -1086364 
3648.991 -1142977 -1213956 -1293678 -1374178 -1448191 -1508917 -1552038 
3652.367 -1575776 -1581652 -1573498 -1556363 -1536817 -1521035 -1514068 
3655.742 -1518492 -1534803 -1559929 -1590467 -1623082 -1655761 -1687943 
3659.117 -1719033 -1749098 -1777313 -1803051 -1825323 -1844295 -1860428 
3662.492 -1874021 -1885634 -1894277 -1898467 -1896026 -1885073 -1864684 
3665.868 -1835221 -1798959 -1758866 -1719033 -1684081 -1658435 -1645958 
3669.243 -1649160 -1667050 -1694973 -1725171 -1748735 -1758767 -1752398 
3672.618 -1731409 -1702333 -1674542 -1659260 -1666654 -1701343 -1759790 
3675.993 -1830173 -1898467 -1953721 -1992213 -2016289 -2031493 -2043893 
3679.369 -2057183 -2073111 -2091808 -2111923 -2132530 -2153236 -2174007 
3682.744 -2193886 -2210304 -2219172 -2215809 -2196590 -2160556 -2110406 
3686.119 -2052402 -1995577 -1949631 -1923043 -1919283 -1936700 -1968861 
3689.494 -2006395 -2041387 -2069517 -2089434 -2102426 -2110999 -2116770 
3692.870 -2121089 -2124683 -2127980 -2131442 -2135465 -2140312 -2145752 
3696.245 -2150928 -2154357 -2154918 -2151950 -2145917 -2138663 -2132893 
3699.620 -2131179 -2136553 -2149873 -2171007 -2197645 -2226490 -2253718 
3702.995 -2276395 -2292150 -2300291 -2300687 -2293732 -2280186 -2261233 
3706.371 -2237796 -2211655 -2184194 -2157456 -2132893 -2112318 -2096557 
3709.746 -2086928 -2084092 -2088841 -2101107 -2119704 -2142719 -2166688 
3713.121 -2187788 -2203315 -2211128 -2211326 -2205095 -2194612 -2182711 
3716.496 -2171534 -2162929 -2157885 -2156105 -2157094 -2160226 -2164940 
3719.872 -2171007 -2178623 -2187886 -2198502 -2210304 -2222204 -2233445 
3723.247 -2243104 -2251114 -2257706 -2263870 -2270891 -2279625 -2290667 
3726.622 -2302664 -2313145 -2318682 -2315617 -2301379 -2274549 -2236676 
3729.997 -2191183 -2142257 -2095106 -2053754 -2020181 -1993697 -1972687 
3733.373 -1956195 -1945309 -1943462 -1955271 -1984396 -2029943 -2086203 
3736.748 -2143279 -2191414 -2223325 -2236478 -2231731 -2212677 -2182381 
3740.123 -2143444 -2097216 -2044784 -1988849 -1934589 -1890483 -1867126 
3743.498 -1874384 -1914796 -1979910 -2049533 -2101668 -2122309 -2108197 
3746.874 -2065428 -2005208 -1940526 -1883291 -1842480 -1822848 -1823871 
3750.249 -1840632 -1866136 -1894706 -1922647 -1947618 -1968102 -1982978 
3753.624 -1990465 -1990036 -1982120 -1968300 -1951247 -1934292 -1920536 
3756.999 -1912520 -1912190 -1920272 -1937327 -1962066 -1992872 -2026843 
3760.375 -2058898 -2084620 -2099557 -2101701 -2090951 -2069912 -2043069 
3763.750 -2014673 -1989211 -1969653 -1956557 -1949334 -1945969 -1944848 
3767.125 -1945573 -1948707 -1955832 -1968861 -1988519 -2014080 -2042871 
3770.500 -2071264 -2095469 -2112582 -2121452 -2122540 -2117165 -2107339 
3773.875 -2094611 -2080267 -2064504 -2047356 -2028954 -2009990 -1992477 
3777.251 -1979119 -1973050 -1976810 -1990861 -2013585 -2040595 -2066714 
3780.626 -2087225 -2099920 -2105064 -2105130 -2103778 -2104174 -2108262 
3784.001 -2116077 -2126134 -2135663 -2142092 -2144005 -2140707 -2132926 
3787.376 -2121847 -2108823 -2095699 -2083894 -2075453 -2071528 -2073441 
3790.752 -2081091 -2093457 -2107900 -2120990 -2128904 -2129134 -2120463 
3794.127 -2104042 -2082146 -2058436 -2036176 -2016949 -2000261 -1983505 
3797.502 -1963253 -1936436 -1902623 -1864189 -1826445 -1797210 -1784737 
3800.877 -1794438 -1826148 -1872635 -1922087 -1962363 -1985319 -1988552 
3804.253 -1975062 -1951412 -1925781 -1905922 -1898104 -1904438 -1922746 
3807.628 -1947058 -1970972 -1988849 -1997886 -1998084 -1990498 -1977008 
3811.003 -1958866 -1937261 -1912652 -1885931 -1858449 -1832879 -1812158 
3814.378 -1800213 -1799586 -1810574 -1829084 -1847957 -1858086 -1852477 
3817.754 -1827996 -1786123 -1733323 -1678701 -1633183 -1607798 -1609350 
3821.129 -1638036 -1686259 -1742002 -1792723 -1830635 -1853830 -1864684 
3824.504 -1868313 -1869600 -1872470 -1878970 -1888669 -1900149 -1911234 
3827.879 -1920437 -1927035 -1930564 -1931125 -1927958 -1920173 -1906714 
3831.255 -1886722 -1860890 -1830734 -1798200 -1765961 -1735996 -1710056 
3834.630 -1688933 -1673288 -1663617 -1660448 -1664013 -1674443 -1691210 
3838.005 -1712960 -1737811 -1763651 -1789027 -1812521 -1833671 -1852642 
3841.380 -1869765 -1885832 -1901403 -1917073 -1932643 -1947223 -1959229 
3844.756 -1966387 -1966552 -1958009 -1940526 -1914433 -1881048 -1841457 
3848.131 -1796484 -1745963 -1688834 -1624369 -1552599 -1476161 -1400568 
3851.506 -1335268 -1293546 -1289119 -1331601 -1420417 -1542562 -1676655 
3854.881 -1801302 -1903316 -1976513 -2021137 -2040200 -2037462 -2016652 
3858.257 -1981494 -1936073 -1884809 -1831691 -1780975 -1735963 -1699197 
3861.632 -1672232 -1656025 -1651008 -1656553 -1671803 -1694082 -1719099 
3865.007 -1741078 -1754114 -1753850 -1738702 -1711145 -1677018 -1643911 
3868.382 -1620177 -1612684 -1623841 -1650645 -1684906 -1717251 -1740715 
3871.758 -1753190 -1757612 -1760054 -1766852 -1782097 -1806350 -1835716 
3875.133 -1863464 -1882236 -1886821 -1875539 -1850069 -1814632 -1775036 
3878.508 -1737778 -1707911 -1688867 -1681507 -1683421 -1689758 -1694610 
3881.883 -1693092 -1682167 -1661703 -1634933 -1607435 -1586802 -1579902 
3885.259 -1591028 -1619880 -1660514 -1703719 -1740616 -1764938 -1774772 
3888.634 -1771967 -1760879 -1746953 -1734940 -1728175 -1726987 -1729825 
3892.009 -1733653 -1734940 -1731871 -1723488 -1709495 -1690253 -1666588 
3895.384 -1638861 -1607732 -1574884 -1541968 -1511030 -1484185 -1462721 
3898.760 -1447002 -1436830 -1430853 -1428013 -1427847 -1430853 -1438283 
3902.135 -1451790 -1472726 -1501488 -1536553 -1575082 -1613278 -1646849 
3905.510 -1672892 -1689560 -1696986 -1696359 -1689956 -1679889 -1667743 
3908.885 -1654573 -1641006 -1626977 -1612750 -1598555 -1585415 -1573696 
3912.260 -1564022 -1556165 -1549463 -1542397 -1534143 -1523973 -1512978 
3915.636 -1502577 -1494785 -1491582 -1493827 -1500926 -1511228 -1522157 
3919.011 -1531138 -1536157 -1535728 -1529454 -1517931 -1502610 -1485737 
3922.386 -1469953 -1458494 -1453739 -1457206 -1468368 -1484911 -1503172 
3925.761 -1518657 -1528365 -1530313 -1525162 -1514497 -1500794 -1486067 
3929.137 -1471901 -1459055 -1447761 -1438382 -1431612 -1428640 -1430390 
3932.512 -1437227 -1448653 -1462952 -1477680 -1490690 -1500497 -1506176 
3935.887 -1507827 -1506275 -1502247 -1496733 -1490228 -1483425 -1476722 
3939.262 -1470679 -1465561 -1461598 -1458659 -1456744 -1455621 -1455092 
3942.638 -1455390 -1456645 -1458692 -1461334 -1463877 -1465627 -1465528 
3946.013 -1463348 -1459220 -1453507 -1447398 -1441883 -1438052 -1436401 
3949.388 -1437194 -1439968 -1444063 -1448091 -1450865 -1450865 -1447002 
3952.763 -1438779 -1426659 -1411698 -1395746 -1380685 -1368134 -1358753 
3956.139 -1352774 -1349670 -1348943 -1350066 -1353138 -1358092 -1365161 
3959.514 -1374178 -1384714 -1395746 -1406645 -1416354 -1424479 -1430688 
3962.889 -1434519 -1435906 -1434254 -1429796 -1422828 -1414340 -1405522 
3966.264 -1397727 -1391617 -1387456 -1384615 -1382171 -1379397 -1375829 
3969.640 -1371635 -1367638 -1364170 -1361495 -1358951 -1355813 -1351354 
3973.015 -1344979 -1337084 -1328397 -1320106 -1313268 -1308676 -1306463 
3976.390 -1306364 -1308213 -1311319 -1315250 -1319115 -1322055 -1323442 
3979.765 -1322154 -1318553 -1312970 -1306628 -1301144 -1297841 -1297312 
3983.141 -1299492 -1303423 -1308081 -1312343 -1315844 -1318289 -1319577 
3986.516 -1319974 -1319379 -1317496 -1314358 -1310030 -1304712 -1299096 
3989.891 -1293546 -1288491 -1284329 -1281025 -1278647 -1277623 -1278085 
3993.266 -1280034 -1282611 -1284692 -1284890 -1281884 -1275376 -1265927 
3996.642 -1255223 -1245146 -1237085 -1232029 -1229584 -1228891 -1228725 
4000.017 -1228791 -1229188 
##END=
