
##TITLE=1731a_1_e
##JCAMP-DX=5.01  $$ Nicolet v. 1
##DATATYPE=INFRARED SPECTRUM
##ORIGIN=UniL
##OWNER=Nicolet
##LONGDATE=2011/09/22
##TIME=10:02:55
##SPECTROMETER/DATA SYSTEM=Nicolet iS5
##DATA PROCESSING=
Ratio against background
%Transmittance->Absorbance
Truncated
ElementMultiply or ElementDivide
##COMMENTS=
Number of sample scans: 32
Collection length: 51.20 sec
Sample gain: 2.0
Background collected on: Jeu Sep 22 09:51:51 2011 (GMT+02:00);
Number of background scans: 32
Background gain: 2.0
Sample spacing:  1.000
Number of scan points: 12415
Resolution points: 8192
Number of FFT points: 65536
Apodization: N-B fort;
Phase correction: Mertz;
Laser frequency: 15798.0 cm-1
Number of rejected sample scans: 0
Number of rejected background scans: 0
Bench serial number: ASB1000141;
##RESOLUTION=4.000
##XUNITS=1/CM
##YUNITS=ABSORBANCE
##FIRSTX=649.893372
##LASTX=4000.122314
##FIRSTY=0.112202
##MAXX=4000.122314
##MINX=649.893372
##MAXY=0.291823
##MINY=-0.001226
##XFACTOR=1.000000
##YFACTOR=1.000000E-009
##NPOINTS=6950
##DELTAX=0.482117
##ZPD=6100
##XYDATA=(X++(Y..Y))
649.893 112202104 111633304 111119712 110667688 110266400 109895448 
652.786 109533120 109170704 108817112 108490776 108209024 107979488 
655.679 107791816 107624656 107453952 107261592 107042688 106801744 
658.571 106546440 106281472 106006096 105716256 105409648 105090960 
661.464 104771424 104466904 104195360 103971104 103804264 103703072 
664.357 103672616 103713800 103815840 103949464 104052816 104027976 
667.250 103768160 103205704 102366912 101371112 100371112 99479112 98735768 
670.624 98125328 97599624 97105424 96599120 96058640 95485304 94896288 
673.999 94309832 93735760 93172144 92608760 92037376 91459144 90884216 
677.374 90328928 89806704 89320272 88862232 88417752 87973768 87524320 
680.749 87074200 86633528 86213264 85819120 85448536 85094224 84749744 
684.124 84412504 84086376 83779096 83495248 83234304 82988792 82747032 
687.498 82498312 82238808 81971448 81705256 81449416 81208672 80981312 
690.873 80761856 80543504 80323632 80105696 79896680 79705360 79537552 
694.248 79395360 79278936 79189504 79131296 79111536 79137016 79208112 
697.623 79315048 79438680 79552040 79630200 79658392 79634384 79569272 
700.998 79481168 79388632 79303200 79228872 79162944 79101480 79042248 
704.373 78986128 78935696 78891752 78850504 78804544 78744800 78665120 
707.747 78565136 78451640 78336304 78232456 78155104 78119520 78142688 
711.122 78245560 78448864 78767080 79200000 79724504 80292016 80830704 
714.497 81266280 81534360 81597056 81452656 81130864 80683056 80164480 
717.872 79632712 79143184 78752344 78529928 78554256 78895688 79599640 
721.247 80650936 81957648 83336936 84548944 85344632 85504320 84911632 
724.621 83573848 81627920 79292584 76826704 74473072 72394712 70676200 
727.996 69322400 68286128 67495392 66879756 66387520 65983028 65644280 
731.371 65356360 65105624 64880340 64672372 64478716 64301020 64142488 
734.746 64003976 63881888 63768060 63653028 63530660 63400240 63267672 
738.121 63142048 63031816 62941952 62872440 62819592 62778084 62745160 
741.496 62719932 62704160 62700220 62710324 62734940 62774144 62827288 
744.870 62893236 62970528 63055068 63139632 63215352 63271312 63298532 
748.245 63292592 63253992 63188336 63104532 63012548 62921152 62837204 
751.620 62766216 62712012 62677480 62664160 62671052 62695244 62731840 
754.995 62776752 62827364 62883772 62949076 63027984 63124648 63240656 
758.370 63376472 63530124 63699872 63884848 64084992 64302176 64538568 
761.744 64796828 65080604 65394760 65746232 66145212 66608252 67159248 
765.119 67837800 68699792 69811256 71244576 73050720 75232856 77714312 
768.494 80323592 82809656 84849352 86135320 86439984 85669040 83903448 
771.869 81382360 78461248 75496880 72796088 70555192 68830880 67570488 
775.244 66647724 65925328 65283076 64648496 63999252 63345104 62709676 
778.619 62110912 61555164 61036728 60543136 60061292 59582296 59102164 
781.993 58621496 58144128 57676396 57228792 56813216 56443320 56131832 
785.368 55888324 55718024 55623372 55605632 55666156 55808100 56035580 
788.743 56352508 56761184 57262476 57856440 58545544 59336164 60240496 
792.118 61275856 62462908 63824856 65382592 67154960 69158608 71406312 
795.493 73909464 76679344 79727456 83070064 86731296 90745808 95166072 
798.867 100064080 105522480 111630256 118453760 126004888 134194032 
801.760 142788000 151406688 159476976 166319968 171260112 173701680 
804.653 173319856 170134480 164540704 157203856 148924576 140491920 
807.546 132466632 125148192 118553312 112487800 106649400 100752704 94642328 
810.920 88318016 81932192 75711360 69906600 64714172 60237416 56498868 
814.295 53448412 50999772 49049840 47504660 46287188 45332292 44590276 
817.670 44021904 43595876 43290944 43093236 42993172 42983072 43053792 
821.045 43194604 43395468 43648776 43952168 44307136 44717592 45186748 
824.420 45714896 46300308 46941400 47638340 48395556 49220108 50119144 
827.794 51099012 52164004 53319112 54575724 55955520 57494996 59249336 
831.169 61285624 63681528 66517404 69855112 73721504 78076056 82793056 
834.544 87623064 92193368 96066128 98747864 99813000 99009984 96306560 
837.919 91927024 86284960 79929976 73401736 67147616 61503128 56641804 
841.294 52611092 49366420 46812472 44833960 43315760 42162640 41292628 
844.669 40637108 40145328 39777112 39504748 39312312 39189292 39127504 
848.043 39118400 39151616 39217652 39310644 39430360 39581072 39768724 
851.418 39997256 40265784 40569332 40900680 41255680 41634812 42044432 
854.793 42493528 42991416 43545400 44159876 44839692 45593396 46434540 
858.168 47384208 48469608 49720680 51173640 52869196 54851432 57169904 
861.543 59866568 62960944 66427744 70177808 74048224 77789056 81109496 
864.917 83707536 85309704 85744720 84960744 83045352 80198432 76710176 
868.292 72912704 69103432 65541468 62408928 59800168 57747316 56228672 
871.667 55193564 54574148 54300004 54305220 54522376 54888276 55343560 
875.042 55830820 56306148 56742304 57133844 57497792 57869500 58294920 
878.417 58814524 59453892 60210504 61049768 61901892 62669828 63252420 
881.792 63552752 63504232 63088364 62337436 61332864 60182072 59008664 
885.166 57920496 56994188 56275592 55775852 55483368 55373332 55418616 
888.541 55594596 55879656 56256168 56708208 57220476 57781756 58384092 
891.916 59024912 59705192 60427620 61194060 62004232 62856204 63748412 
895.291 64679564 65649404 66654488 67685552 68722880 69737248 70694168 
898.666 71556584 72295736 72893856 73345824 73657432 73841984 73917592 
902.040 73903840 73824032 73704888 73574832 73464752 73405232 73421824 
905.415 73538256 73774312 74146944 74673992 75371528 76253120 77329032 
908.790 78603416 80076136 81744008 83604528 85658824 87911448 90368216 
912.165 93034032 95909648 98992424 102279640 105774384 109490048 113454368 
915.540 117707016 122290232 127242696 132585224 138309808 144364560 
918.432 150640736 156969568 163091568 168675392 173347616 176703488 
921.325 178410992 178280448 176328320 172811936 168213520 163212272 
924.218 158528816 154877440 152870912 152889056 155064112 159216832 
927.110 164894048 171356176 177679792 182960016 186365424 187350320 
930.003 185740240 181703856 175671904 168173696 159755856 150856032 
932.896 141783856 132762192 123939944 115441016 107396064 99931016 93169592 
936.271 87221928 82160808 78028592 74837368 72573600 71204088 70672376 
939.646 70897952 71756152 73073344 74643504 76216552 77540976 78403848 
943.020 78639672 78170776 77009528 75254128 73061936 70618384 68118224 
946.395 65720020 63539864 61646880 60062204 58774388 57751216 56955500 
949.770 56351000 55906904 55599492 55407172 55309348 55287784 55325156 
953.145 55409052 55532540 55693688 55892920 56130668 56405172 56712056 
956.520 57046404 57404376 57784408 58187464 58614972 59066588 59539504 
959.894 60028872 60529692 61039128 61557300 62086868 62630252 63187920 
963.269 63756852 64331300 64906084 65478780 66051460 66629840 67220288 
966.644 67827184 68451384 69090032 69739040 70396576 71063968 71746344 
970.019 72450304 73181096 73941592 74732472 75553264 76405544 77293128 
973.394 78221944 79197856 80223704 81299080 82420512 83584448 84789288 
976.768 86036184 87328344 88667856 90053376 91478456 92932976 94405688 
980.143 95887784 97373272 98858184 100339008 101808952 103258784 104677976 
983.518 106056976 107391448 108680280 109923480 111117136 112249344 
986.411 113298944 114240304 115047048 115700520 116193840 116533432 
989.304 116737224 116830312 116845184 116816784 116781616 116778456 
992.196 116841672 116998288 117265440 117646832 118135240 118716032 
995.089 119374792 120099560 120883744 121724416 122618448 123559416 
997.982 124537648 125541136 126559496 127587008 128622160 129665104 
1000.874 130713744 131759408 132787600 133780864 134722592 135603248 
1003.767 136422304 137187664 137912704 138614256 139312752 140030544 
1006.660 140795472 141641088 142601104 143707824 144986160 146448448 
1009.552 148095408 149917824 151900848 154024464 156264240 158590592 
1012.445 160962720 163333200 165654432 167883856 169998576 171998464 
1015.338 173906352 175757472 177586912 179420416 181266592 183118640 
1018.231 184962496 186786256 188587648 190380080 192190768 194063472 
1021.123 196055840 198232960 200670784 203446688 206626416 210260944 
1024.016 214373856 218960256 223987056 229403168 235149856 241158640 
1026.909 247357536 253662944 259962832 266124608 271990880 277383936 
1029.802 282136032 286087808 289095232 291040864 291822944 291364640 
1032.695 289629152 286630208 282444160 277201568 271085696 264305376 
1035.588 257067296 249585760 242062864 234685328 227644464 221113712 
1038.481 215243920 210169552 205984736 202748864 200485344 199175472 
1041.374 198753248 199087488 199985808 201169424 202278160 202932256 
1044.267 202738416 201372512 198653008 194554432 189224976 182935632 
1047.160 176052464 168955008 161975424 155398448 149415456 144131184 
1050.053 139583168 135748752 132566792 129951848 127814952 126071048 
1052.947 124644656 123478480 122526448 121749024 121111040 120573800 
1055.840 120094752 119632944 119147744 118604904 117979608 117253944 
1058.733 116417968 115470064 114418272 113282984 112095896 110902752 
1061.626 109755320 108705384 107802432 107083904 106575872 106293496 
1064.519 106240120 106407056 106769968 107288352 107899624 108520768 
1067.412 109063576 109436888 109566032 109407856 108951056 108218152 
1070.305 107254080 106119912 104878088 103581424 102273304 100980792 
1073.198 99716488 98481416 97268464 96067776 94871840 93680384 92503296 
1076.573 91361072 90280064 89289712 88417144 87681648 87094768 86658608 
1079.948 86368384 86210992 86166224 86207560 86300352 86406304 86490400 
1083.324 86524328 86496144 86412888 86301368 86201704 86160976 86228816 
1086.699 86447416 86850744 87464536 88303112 89371272 90662144 92158784 
1090.074 93832848 95648984 97572536 99571272 101619616 103698824 105788072 
1093.449 107857872 109866472 111753672 113450496 114893864 116036352 
1096.343 116865560 117411304 117749936 117988960 118251896 118659504 
1099.236 119291008 120168112 121233984 122360888 123353192 123978648 
1102.129 124028288 123337120 121830472 119536336 116579448 113155312 
1105.022 109479992 105780088 102246848 99017184 96183784 93786008 91823560 
1108.397 90266800 89069472 88176808 87529912 87075376 86764560 86553000 
1111.772 86403232 86279056 86144080 85965944 85713392 85362576 84900432 
1115.147 84325664 83648032 82885200 82060376 81197400 80318128 79443256 
1118.523 78590032 77772088 76999632 76277368 75604840 74976896 74386128 
1121.898 73825408 73289968 72777560 72286808 71813104 71346248 70868536 
1125.273 70356016 69785496 69138400 68408056 67602464 66744388 65867484 
1128.648 65007708 64201640 63476972 62849572 62323668 61891348 61535804 
1132.024 61232436 60955508 60680664 60389048 60071904 59731460 59380876 
1135.399 59039868 58732284 58481204 58303368 58209284 58200724 58272180 
1138.774 58410320 58596048 58806936 59016600 59199476 59334184 59403820 
1142.149 59399484 59318992 59165148 58944068 58662684 58329364 57953060 
1145.525 57544848 57118464 56688880 56271596 55880748 55526816 55216928 
1148.900 54955276 54744036 54585040 54480004 54429412 54432640 54486392 
1152.275 54585080 54722276 54891960 55090184 55314956 55565864 55842160 
1155.650 56141676 56460752 56794072 57136040 57481792 57827104 58167992 
1159.026 58500196 58818128 59115564 59386876 59627680 59834960 60007268 
1162.401 60142112 60235092 60279820 60267064 60187784 60035076 59804616 
1165.776 59495652 59109872 58650584 58121852 57528924 56879576 56184476 
1169.151 55458216 54718856 53984312 53272136 52597212 51970584 51400792 
1172.527 50895300 50460804 50104864 49835164 49658192 49579332 49602656 
1175.902 49731304 49969304 50322492 50798524 51406948 52157728 53060508 
1179.277 54125256 55362000 56782480 58401188 60233720 62296476 64604932 
1182.652 67170584 70000992 73096984 76451144 80040400 83818160 87712832 
1186.028 91612184 95369000 98818704 101776112 104069744 105564848 106167768 
1189.403 105847352 104633360 102615400 99924592 96718088 93169016 89432736 
1192.778 85646280 81923152 78342608 74962608 71822176 68942976 66337332 
1196.153 64008736 61952676 60157600 58605796 57274608 56136168 55161016 
1199.529 54320804 53586932 52934356 52341248 51788744 51262220 50752232 
1202.904 50254488 49770540 49305912 48868960 48467012 48105372 47785344 
1206.279 47505400 47261912 47051276 46871120 46720364 46598328 46504200 
1209.654 46436164 46392364 46372412 46378536 46416916 46496716 46629052 
1213.030 46824204 47089752 47430296 47847044 48338892 48903040 49535064 
1216.405 50228524 50973692 51759068 52571444 53397900 54229048 55059040 
1219.780 55885872 56710584 57536184 58366808 59208324 60069508 60962104 
1223.155 61899716 62896952 63965304 65110548 66330804 67616480 68950984 
1226.531 70311408 71672048 73004544 74279136 75470472 76559616 77540312 
1229.906 78421784 79231296 80012072 80814576 81695736 82711232 83909072 
1233.281 85334672 87028208 89024160 91355968 94050288 97126808 100595992 
1236.656 104458984 108708280 113327504 118293360 123572408 129114152 
1239.549 134854864 140713088 146594048 152409360 158078464 163539040 
1242.442 168750880 173684336 178311968 182599296 186494208 189925952 
1245.335 192809632 195040944 196507216 197098960 196710576 195265264 
1248.229 192726368 189103360 184452288 178863440 172451664 165334784 
1251.122 157633152 149473040 140980624 132295448 123569416 114947600 
1254.015 106576168 98587432 91083232 84145408 77825160 72141800 67089952 
1257.390 62640512 58748780 55357148 52403264 49825912 47562700 45558916 
1260.765 43768304 42151576 40681208 39338540 38111044 36990944 35971980 
1264.140 35047560 34211316 33456870 32778438 32171246 31630222 31149704 
1267.516 30722348 30339718 29993814 29679546 29395288 29143528 28929524 
1270.891 28759772 28639880 28573808 28565738 28620166 28744478 28949606 
1274.266 29247468 29649782 30163802 30788714 31512134 32307108 33135220 
1277.641 33942384 34664976 35241136 35612896 35740916 35612068 35241388 
1281.017 34669212 33950120 33147276 32316462 31499236 30724482 30006062 
1284.392 29349802 28757684 28231180 27771468 27379182 27052660 26788262 
1287.767 26581052 26427040 26324406 26273326 26274910 26328454 26430912 
1291.142 26576298 26757426 26968282 27205024 27465792 27749110 28051590 
1294.518 28367194 28688442 29009574 29329098 29652266 29990902 30362174 
1297.893 30784162 31274028 31847804 32518354 33295926 34185936 35185008 
1301.268 36274484 37416424 38556564 39622088 40534916 41227404 41645608 
1304.643 41763348 41583396 41136584 40474392 39660240 38766236 37858772 
1308.019 36995348 36221860 35565604 35037252 34632752 34337812 34133168 
1311.394 33999604 33922604 33891440 33898460 33936828 33998168 34073136 
1314.769 34153420 34232788 34308764 34382032 34453944 34524828 34592636 
1318.144 34653208 34703056 34741176 34770788 34797780 34828620 34867032 
1321.520 34912208 34959392 35000904 35030248 35043468 35040808 35025832 
1324.895 35004784 34986324 34980612 35001300 35065232 35189176 35389644 
1328.270 35676416 36050820 36504532 37022948 37589524 38189436 38812972 
1331.645 39454636 40109748 40771748 41429876 42068964 42673636 43230180 
1335.021 43729864 44169632 44550700 44877056 45153292 45384928 45579228 
1338.396 45745232 45895276 46042904 46199208 46372968 46568188 46786528 
1341.771 47030672 47306764 47625808 48003224 48455416 48997684 49642628 
1345.146 50399140 51273404 52268404 53380852 54595224 55876040 57167824 
1348.521 58388712 59440328 60227480 60662108 60685848 60278712 59461304 
1351.897 58293096 56860576 55274200 53646092 52079348 50664908 49465288 
1355.272 48515436 47823296 47373016 47133036 47063684 47128528 47295496 
1358.647 47538632 47839536 48182224 48555596 48954552 49382752 49854712 
1362.022 50391924 51019376 51753092 52591344 53509532 54461184 55384172 
1365.398 56200764 56831536 57198740 57231744 56885580 56148460 55052232 
1368.773 53666036 52089168 50433488 48794400 47248168 45841072 44589800 
1372.148 43493900 42544688 41736828 41072260 40559256 40204896 40007608 
1375.523 39953008 40019020 40181164 40423184 40742200 41149916 41670480 
1378.899 42338300 43199032 44304972 45717436 47500372 49699388 52321064 
1382.274 55301032 58498644 61680904 64550640 66806564 68149496 68350616 
1385.649 67294632 65016136 61725284 57768396 53585812 49576364 46019920 
1389.024 43061364 40712176 38903920 37530784 36488032 35684760 35047384 
1392.400 34524860 34078800 33683712 33327338 33007036 32728560 32500536 
1395.775 32329022 32213782 32148734 32123576 32127966 32155760 32206892 
1399.150 32288120 32410950 32588388 32829180 33135756 33503286 33921352 
1402.525 34375288 34848148 35324836 35792544 36241276 36663784 37054272 
1405.901 37408336 37724128 38005324 38262636 38512392 38775472 39071308 
1409.276 39412472 39802932 40237904 40707844 41203944 41722348 42265580 
1412.651 42840068 43452188 44104748 44797556 45529588 46303364 47128604 
1416.026 48022800 49010076 50115388 51356748 52735280 54225216 55771632 
1419.402 57295104 58709408 59942632 60942392 61682356 62160728 62401316 
1422.777 62457664 62411948 62373584 62448908 62718444 63221140 63951104 
1426.152 64875840 65957116 67169272 68500064 69945600 71502704 73162936 
1429.527 74917096 76763712 78719056 80815848 83089288 85564960 88244240 
1432.903 91107952 94122296 97262496 100527208 103934776 107516248 111286600 
1436.278 115222320 119247712 123262744 127184392 130965832 134592704 
1439.171 138052416 141312224 144291760 146861936 148874816 150165248 
1442.064 150586416 150035904 148457264 145859248 142319040 137994464 
1444.957 133105216 127898928 122646184 117586024 112907984 108749736 
1447.850 105171712 102159144 99623448 97438200 95467352 93601576 91792576 
1451.225 90058952 88480872 87160536 86192288 85619440 85418640 85501744 
1454.601 85732608 85961944 86036584 85854048 85404200 84794048 84210048 
1457.976 83836800 83810000 84189808 84986896 86187848 87761936 89661144 
1461.351 91810424 94115640 96447672 98641152 100521688 101909440 102669920 
1464.726 102759912 102245720 101283328 100054648 98736096 97459520 96307016 
1468.102 95329536 94543656 93935920 93460288 93040144 92578408 91972064 
1471.477 91154056 90126600 88982672 87875992 86971568 86392360 86190104 
1474.852 86366768 86896768 87748112 88888168 90280224 91879408 93623984 
1478.227 95438832 97246992 98967448 100533136 101900736 103055672 104019768 
1481.603 104845824 105614152 106414208 107339640 108492480 109973464 
1484.496 111884272 114313928 117313624 120868560 124865888 129100728 
1487.389 133254080 136919264 139670176 141074752 140794784 138676272 
1490.282 134793216 129456504 123114280 116256712 109280592 102437504 
1493.175 95872464 89634504 83739000 78225800 73168896 68686936 64918124 
1496.550 61972088 59896004 58663592 58202164 58416648 59215880 60523900 
1499.925 62270276 64382672 66787048 69394008 72105456 74823984 77428304 
1503.301 79777856 81702016 82960600 83258384 82276288 79770688 75739328 
1506.676 70525256 64739056 58981188 53634844 48824172 44504920 40582828 
1510.051 36983080 33668892 30644332 27931152 25541846 23473450 21702126 
1513.426 20193084 18909632 17818514 16890044 16093234 15396331 14772560 
1516.802 14205452 13696220 13258805 12909510 12652832 12474864 12342237 
1520.177 12214046 12057106 11864807 11663404 11498225 11406645 11397325 
1523.552 11452229 11538545 11626783 11700368 11762052 11827897 11917421 
1526.927 12039460 12188284 12347725 12502451 12647851 12792243 12952043 
1530.302 13142365 13368613 13622637 13885534 14135411 14360328 14565077 
1533.678 14770641 15001066 15271148 15578591 15909176 16244141 16569348 
1537.053 16880468 17179918 17473814 17764526 18044000 18293414 18492730 
1540.428 18635342 18733544 18811632 18890494 18974874 19052900 19102202 
1543.803 19103484 19050166 18954868 18844226 18748940 18690442 18672730 
1547.179 18685774 18712926 18741224 18766930 18797584 18846752 18926868 
1550.554 19041788 19185654 19347894 19519968 19700570 19895816 20115372 
1553.929 20366744 20649566 20956250 21274496 21592524 21903188 22200368 
1557.304 22475732 22714996 22898086 23011580 23063220 23086982 23124338 
1560.680 23201156 23323610 23479080 23646466 23801140 23923276 24003072 
1564.055 24042888 24056546 24063200 24079310 24109676 24147612 24178192 
1567.430 24185022 24156578 24089924 23991726 23876714 23762958 23665116 
1570.805 23594022 23556416 23554598 23588564 23653358 23738076 23823718 
1574.181 23885992 23901324 23854730 23750954 23615048 23484220 23387528 
1577.556 23333470 23310430 23297250 23271520 23216606 23124828 22994498 
1580.931 22827886 22627200 22393670 22128154 21833740 21517800 21192172 
1584.306 20869608 20560724 20269488 19993298 19725536 19460466 19197602 
1587.682 18942268 18703378 18489098 18303816 18147528 18018026 17915186 
1591.057 17842404 17806536 17813440 17862772 17945124 18042962 18136782 
1594.432 18210202 18256194 18278070 18286916 18296178 18316536 18355592 
1597.807 18419022 18513716 18651944 18849590 19124086 19490650 19958050 
1601.183 20528590 21199828 21967172 22823208 23755434 24742942 25750668 
1604.558 26729342 27623600 28372394 28920706 29229570 29277808 29068520 
1607.933 28626254 27994442 27224602 26367602 25472832 24581970 23729920 
1611.308 22945906 22248006 21642672 21123572 20674376 20272266 19892140 
1614.684 19512414 19116884 18699574 18268394 17845096 17460498 17143276 
1618.059 16912918 16774520 16720455 16734470 16795632 16883980 16982582 
1621.434 17083616 17189776 17313996 17472882 17679070 17935696 18236428 
1624.809 18569874 18926764 19303380 19699668 20115616 20546862 20981184 
1628.185 21400516 21788936 22136244 22443248 22719116 22975806 23221708 
1631.560 23458480 23678482 23868592 24013192 24096508 24106068 24035570 
1634.935 23886900 23672114 23412878 23134752 22858548 22595610 22346296 
1638.310 22102318 21850360 21575636 21267816 20924610 20554088 20171980 
1641.686 19798078 19447574 19125818 18827444 18537404 18235738 17901858 
1645.061 17521350 17090508 16619539 16132195 15659753 15233913 14877197 
1648.436 14599856 14400880 14269786 14188780 14132297 14067812 13952660 
1651.811 13742626 13411190 12976042 12507942 12092673 11783159 11579174 
1655.187 11449881 11357597 11274411 11185564 11087048 10982471 10878293 
1658.562 10779472 10687228 10598331 10507653 10409630 10300296 10178099 
1661.937 10043697 9900182 9753260 9610045 9478865 9367124 9278904 9214289 
1665.794 9168399 9132359 9093955 9041141 8964757 8860623 8731765 8586993 
1669.652 8438961 8299049 8175861 8073806 7993879 7933371 7886197 7842876 
1673.509 7790181 7714050 7605224 7464873 7307247 7154293 7027220 6936611 
1677.367 6880491 6847974 6825388 6802871 6777091 6752287 6737278 6739129 
1681.224 6758244 6785538 6801996 6784596 6713487 6583650 6412523 6235715 
1685.082 6088615 5987821 5930950 5903878 5891182 5880804 5865556 5842753 
1688.939 5812159 5775122 5734327 5694577 5662584 5645834 5650164 5677254 
1692.796 5722543 5774854 5818909 5838655 5823712 5775961 5712874 5660302 
1696.654 5638113 5652548 5693838 5742956 5775055 5767231 5705790 5595351 
1700.511 5460782 5334506 5241700 5189119 5169436 5169402 5174666 5173895 
1704.369 5158270 5123936 5072442 5009959 4944770 4884886 4835463 4797638 
1708.226 4769798 4749062 4732782 4720355 4712818 4712953 4723269 4744841 
1712.083 4776163 4813920 4853690 4892090 4927679 4960723 4991658 5019411 
1715.941 5040026 5047334 5035970 5006070 4965013 4927042 4906064 4911828 
1719.798 4947049 5008786 5091014 5187408 5293819 5407368 5526987 5651943 
1723.656 5781267 5913383 6047488 6183181 6321605 6463739 6609722 6756730 
1727.513 6899478 7029982 7140954 7228270 7291983 7336631 7367938 7389710 
1731.371 7399753 7389305 7343876 7249596 7101513 6912675 6713386 6541905 
1735.228 6425806 6372038 6372206 6409900 6468919 6535211 6599192 6654973 
1739.085 6699926 6734418 6760835 6783216 6804520 6827105 6851374 6876620 
1742.943 6900555 6920654 6934827 6942032 6942099 6935433 6921596 6899209 
1746.800 6865545 6817007 6749864 6661938 6551525 6417264 6258640 6075544 
1750.658 5870425 5649258 5422902 5204141 5005065 4833553 4690846 4572763 
1754.515 4469709 4371231 4267389 4153401 4030916 3906927 3791229 3690365 
1758.373 3605996 3534170 3467633 3398000 3319096 3228023 3126022 3017105 
1762.230 2906647 2800053 2701719 2614842 2541980 2484458 2441906 2411718 
1766.087 2389928 2370971 2350749 2328263 2306144 2288990 2280563 2281195 
1769.945 2285725 2285692 2271136 2235132 2177751 2107060 2035415 1974033 
1773.802 1928967 1898982 1879846 1866469 1856885 1851395 1852293 1860712 
1777.660 1875420 1892126 1904573 1907668 1898982 1880013 1856286 1834258 
1781.517 1818487 1810568 1809270 1811765 1815226 1818353 1820982 1823444 
1785.375 1825707 1827470 1828335 1829434 1833060 1842677 1861444 1890096 
1789.232 1926404 1964680 1996867 2014975 2013710 1992540 1955959 1911761 
1793.089 1867600 1828901 1797093 1771474 1749983 1731353 1714654 1699784 
1796.947 1686546 1675137 1665258 1657308 1652087 1650357 1652785 1658971 
1800.804 1667619 1676667 1684250 1689672 1693730 1697955 1703610 1711028 
1804.662 1719677 1728160 1735778 1742764 1750315 1760329 1773737 1789340 
1808.519 1803946 1813462 1814028 1803813 1784183 1758000 1729723 1702579 
1812.376 1678263 1657009 1638749 1623617 1613307 1610247 1616533 1633062 
1816.234 1659105 1692167 1729590 1769345 1810834 1854123 1900113 1948371 
1820.091 1997699 2047266 2096605 2146483 2198598 2254383 2313106 2372071 
1823.949 2426378 2471762 2506653 2533848 2558678 2587942 2625542 2670847 
1827.806 2718923 2762304 2794650 2813526 2822297 2828333 2840606 2864753 
1831.664 2901644 2948211 2999622 3052173 3104530 3158128 3215171 3277530 
1835.521 3345440 3417269 3491280 3567442 3647861 3736884 3839630 3959721 
1839.378 4098409 4254138 4423647 4603101 4789497 4979961 5171615 5361308 
1843.236 5544841 5718581 5880602 6031697 6174005 6309469 6437441 6554115 
1847.093 6652887 6726072 6767465 6773691 6745490 6685659 6598990 6489165 
1850.951 6358152 6207380 6038988 5856488 5666042 5474740 5288620 5110861 
1854.808 4941821 4778944 4619778 4463315 4310388 4163805 4026769 3900608 
1858.666 3785112 3678502 3578667 3484667 3396230 3313687 3236134 3161966 
1862.523 3087911 3011699 2933500 2856515 2786380 2729360 2689050 2664546 
1866.380 2651244 2640877 2625776 2601642 2569043 2532448 2498621 2473162 
1870.238 2457833 2451869 2452102 2454934 2457966 2459033 2456434 2448270 
1874.095 2432909 2409252 2378001 2341588 2303113 2265607 2230003 2195001 
1877.953 2157538 2114918 2065876 2012212 1957757 1906403 1860978 1821381 
1881.810 1785115 1749118 1711494 1673108 1636654 1605824 1582844 1566915 
1885.667 1554977 1542341 1525583 1503571 1477239 1449279 1422418 1398085 
1889.525 1376379 1358065 1344404 1337790 1341613 1357965 1385720 1421122 
1893.382 1458156 1491037 1516406 1534427 1547329 1558369 1568678 1576260 
1897.240 1577291 1568245 1548160 1520030 1490205 1465304 1450110 1445955 
1901.097 1450011 1457757 1465370 1471387 1476308 1482292 1489740 1497587 
1904.955 1503638 1505633 1503438 1499482 1497553 1501377 1512449 1528675 
1908.812 1545267 1558835 1567481 1572568 1578255 1588531 1604793 1626078 
1912.669 1648727 1669016 1686346 1702545 1720608 1743429 1770110 1795861 
1916.527 1813995 1818154 1806375 1782287 1753675 1727760 1709098 1696624 
1920.384 1685581 1670513 1648893 1622020 1595149 1574264 1561861 1556939 
1924.242 1554279 1548160 1535757 1518766 1502175 1492001 1491735 1500014 
1928.099 1512083 1522623 1528309 1530703 1535225 1547695 1571138 1604261 
1931.957 1640745 1672376 1693997 1704308 1706238 1705140 1705306 1707435 
1935.814 1709930 1709764 1705140 1698421 1693531 1695061 1704608 1720009 
1939.671 1735711 1746190 1748718 1744227 1737807 1735245 1738905 1747920 
1943.529 1758133 1765120 1768147 1771341 1780490 1802183 1839016 1887301 
1947.386 1938985 1985816 2021833 2045701 2061348 2072201 2080724 2085918 
1951.244 2082888 2068140 2042139 2008717 1975797 1950867 1936722 1930432 
1955.101 1925539 1913325 1889530 1855321 1816390 1780058 1751746 1731220 
1958.958 1714521 1696791 1675502 1651953 1632663 1623384 1625945 1638916 
1962.816 1655878 1671079 1682487 1692134 1704608 1723968 1749417 1774568 
1966.673 1790039 1788342 1767815 1734081 1698787 1671112 1656676 1653517 
1970.531 1653916 1649492 1636887 1617298 1597975 1587566 1590127 1605724 
1974.388 1632131 1667287 1713689 1779193 1871660 1993871 2139324 2291021 
1978.246 2425912 2526582 2582809 2596875 2580076 2546146 2505420 2462998 
1982.103 2418215 2368006 2312307 2254449 2200629 2156872 2126005 2105495 
1985.960 2090679 2076829 2061648 2048298 2043171 2050795 2073366 2107426 
1989.818 2145784 2181914 2212319 2237797 2262843 2292587 2327930 2365841 
1993.675 2400256 2424546 2434408 2430710 2415816 2393560 2367173 2336791 
1997.533 2302014 2264875 2227838 2196900 2177785 2172823 2178484 2187742 
2001.390 2189740 2175887 2144652 2099968 2051394 2011014 1987480 1985283 
2005.248 2003957 2039842 2086983 2142454 2201062 2257281 2305111 2337924 
2009.105 2350882 2345386 2327330 2305944 2291521 2291921 2308409 2338989 
2012.962 2378967 2424879 2475927 2534214 2599742 2670613 2740930 2800686 
2016.820 2842574 2864620 2870690 2871457 2878395 2898708 2933933 2979904 
2020.677 3029316 3075698 3117678 3156593 3195010 3234799 3274025 3308512 
2024.535 3335624 3355257 3370818 3389251 3414898 3447226 3482763 3513225 
2028.392 3532633 3542621 3550973 3569914 3611275 3681443 3776656 3887937 
2032.250 4003025 4111989 4211846 4304131 4391648 4476639 4557494 4628887 
2036.107 4687932 4734491 4773014 4810704 4854863 4906198 4961158 5012238 
2039.964 5051557 5074654 5083907 5083706 5080588 5078677 5077169 5072810 
2043.822 5062754 5046596 5028998 5017568 5020752 5044183 5090444 5157331 
2047.679 5240761 5337356 5442563 5550512 5654562 5744735 5810682 5847891 
2051.537 5856622 5845338 5828950 5823443 5839932 5882214 5944756 6015167 
2055.394 6081457 6134517 6172426 6198977 6221194 6243278 6267178 6291651 
2059.251 6314007 6332969 6350351 6368003 6387976 6408521 6423687 6425772 
2063.109 6408790 6370727 6316461 6255278 6196994 6149169 6113884 6087472 
2066.966 6064119 6039122 6010900 5981640 5956042 5937970 5928934 5928430 
2070.824 5932797 5938944 5945931 5953523 5962324 5973309 5985167 5995682 
2074.681 6003980 6010027 6015873 6025448 6041709 6065497 6095705 6128872 
2078.539 6161201 6190574 6216589 6239782 6262001 6283616 6303787 6322143 
2082.396 6338482 6354218 6371870 6394432 6421737 6451633 6478941 6497641 
2086.253 6503359 6495556 6476351 6451027 6424628 6399375 6375266 6350485 
2090.111 6322647 6291651 6260926 6235042 6219513 6218236 6231581 6257396 
2093.968 6291617 6329708 6366893 6400585 6427588 6445714 6454357 6454424 
2097.826 6449547 6446117 6450623 6467943 6499188 6541165 6586913 6630210 
2101.683 6667220 6698513 6729673 6767869 6818253 6882276 6956510 7034629 
2105.541 7110135 7179658 7242521 7301822 7360827 7420582 7480109 7536745 
2109.398 7587623 7632200 7672769 7712397 7754424 7800301 7847903 7893688 
2113.255 7934585 7968804 7997490 8023883 8051324 8081974 8116137 8152160 
2117.113 8187982 8223301 8258894 8297124 8340490 8389469 8442507 8497647 
2120.970 8551307 8601830 8649216 8694680 8739540 8785217 8831778 8878816 
2124.828 8926841 8976731 9029537 9086816 9148907 9213714 9278937 9341834 
2128.685 9401287 9459054 9519302 9585689 9661979 9748922 9844458 9944863 
2132.542 10046986 10147844 10246114 10341522 10432675 10517939 10596260 
2135.918 10666378 10730767 10793229 10857467 10925044 10994500 11059143 
2139.293 11111148 11144462 11157040 11151635 11136032 11116587 11097109 
2142.668 11076612 11049320 11007347 10948116 10872381 10785722 10697111 
2146.043 10613712 10538002 10468245 10398668 10322792 10237226 10141027 
2149.419 10034270 9918827 9795010 9661708 9518489 9367666 9211751 9055858 
2153.276 8903200 8751441 8595274 8428555 8247548 8059223 7882519 7742382 
2157.134 7668318 7680290 7779656 7947745 8151416 8352650 8519239 8634345 
2160.991 8694139 8704416 8676055 8618898 8542217 8455008 8364911 8278785 
2164.848 8202265 8134435 8068843 7997592 7910525 7802021 7673747 7532902 
2168.706 7389945 7255628 7136036 7032473 6942470 6862045 6787355 6718837 
2172.563 6657295 6602724 6555293 6512171 6470130 6427218 6383739 6340534 
2176.421 6299114 6258673 6214808 6162243 6097082 6018628 5932159 5847555 
2180.278 5773376 5716600 5679033 5654897 5636939 5618679 5596559 5571387 
2184.135 5547526 5527222 5511517 5498967 5486786 5473566 5462090 5456956 
2187.993 5462929 5482827 5514235 5549573 5580583 5598707 5599345 5583604 
2191.850 5555647 5520846 5485108 5452192 5424747 5405523 5397270 5401497 
2195.708 5419245 5447327 5479807 5509269 5529202 5536652 5534370 5528564 
2199.565 5524638 5527122 5535578 5544404 5548130 5542257 5526685 5505947 
2203.423 5487759 5477793 5478968 5490242 5505846 5519504 5526685 5525612 
2207.280 5517591 5506249 5495041 5487021 5484941 5489907 5503027 5525175 
2211.137 5554842 5589041 5624485 5655904 5680376 5698035 5711027 5722878 
2214.995 5737013 5753264 5769145 5780696 5784322 5778916 5767937 5757225 
2218.852 5751887 5755312 5765485 5776935 5782778 5777036 5757461 5726471 
2222.710 5689642 5653185 5622002 5599043 5584107 5576489 5575113 5578939 
2226.567 5588034 5601796 5618511 5636435 5653655 5669399 5684103 5700049 
2230.425 5718279 5739800 5764209 5789594 5813100 5834391 5852324 5867739 
2234.282 5881710 5894305 5905523 5915297 5924601 5934645 5948652 5968975 
2238.139 5996253 6029446 6064657 6097351 6124335 6145070 6161066 6176627 
2241.997 6195851 6220522 6250505 6283549 6315688 6345308 6371937 6396483 
2245.854 6421569 6449178 6479748 6512911 6547791 6582641 6616316 6647672 
2249.712 6674454 6694576 6705815 6706992 6699017 6686096 6673546 6667658 
2253.569 6673041 6690437 6716886 6747105 6774129 6792404 6799303 6793817 
2257.427 6776754 6750739 6717222 6678122 6636031 6593709 6554418 6522093 
2261.284 6498381 6483582 6476587 6474535 6474434 6475578 6478335 6483885 
2265.141 6494143 6509547 6528955 6550180 6570631 6587485 6599966 6607771 
2268.999 6611135 6610529 6606324 6598923 6589134 6578806 6569522 6563231 
2272.856 6560843 6561616 6564039 6566528 6567772 6568108 6569454 6573054 
2276.714 6580892 6593036 6607905 6622910 6636502 6646797 6653661 6658237 
2280.571 6661298 6663587 6665572 6666715 6666783 6665706 6664159 6662611 
2284.428 6662106 6662913 6665336 6669979 6677382 6688452 6703998 6723582 
2288.286 6745759 6767735 6786379 6798832 6804419 6804150 6800481 6796813 
2292.143 6795971 6799135 6806540 6817310 6830538 6845752 6863391 6883824 
2296.001 6907221 6933043 6959742 6985567 7009272 7030554 7050221 7069821 
2299.858 7090803 7113570 7138731 7165240 7192526 7220488 7249125 7278909 
2303.716 7310246 7343236 7377577 7413201 7450075 7488840 7530340 7575383 
2307.573 7624107 7676378 7731420 7788392 7847194 7908332 7972752 8041401 
2311.430 8114246 8189874 8266526 8341740 8413319 8480922 8544853 8606596 
2315.288 8668077 8731292 8796780 8864951 8935465 9006838 9078053 9148162 
2319.145 9215846 9281205 9344475 9406230 9466741 9525534 9579897 9625322 
2323.003 9656694 9668518 9657811 9625492 9576001 9517473 9459528 9411072 
2326.860 9379008 9366312 9372203 9392585 9422145 9455330 9486958 9514120 
2330.718 9534848 9548768 9557168 9562587 9567940 9577322 9594191 9620987 
2334.575 9658150 9704533 9757224 9813141 9869540 9924590 9977884 10029896 
2338.432 10080999 10131734 10182001 10231731 10280380 10327780 10373590 
2341.808 10416689 10454872 10484265 10499269 10493362 10460709 10397413 
2345.183 10304096 10186716 10057024 9931268 9826765 9760376 9744347 9785080 
2349.040 9882387 10030574 10217686 10428059 10646445 10858078 11052413 
2352.416 11225106 11375556 11506697 11621712 11723141 11812235 11890450 
2355.791 11959652 12022871 12083509 12144224 12205049 12264043 12317421 
2359.166 12361021 12392828 12412637 12421570 12422252 12416557 12405579 
2362.541 12389828 12370157 12347725 12324579 12302968 12283812 12266838 
2365.917 12250273 12231461 12208628 12181229 12149505 12114615 12077308 
2369.292 12037280 11993474 11945415 11892731 11836546 11778972 11721372 
2372.667 11663847 11605308 11542764 11473491 11396338 11312329 11224562 
2376.042 11137187 11053874 10976626 10905473 10839088 10775702 10714736 
2379.417 10656768 10603594 10557217 10519262 10490070 10469534 10456738 
2382.793 10450901 10451817 10459386 10472827 10491394 10513288 10536780 
2386.168 10560679 10585260 10611437 10641147 10676430 10717724 10764119 
2389.543 10814051 10865111 10915734 10965582 11014824 11064138 11114207 
2392.918 11164656 11214736 11263870 11311649 11358413 11405828 11454712 
2396.294 11506051 11560219 11616642 11674432 11733728 11794156 11855886 
2399.669 11919090 11983153 12047193 12110560 12172710 12234494 12297616 
2403.044 12364089 12435549 12512920 12595832 12683331 12774669 12869507 
2406.419 12968020 13070924 13178260 13289277 13401929 13514235 13623971 
2409.795 13730656 13834734 13937879 14042144 14148351 14256706 14365979 
2413.170 14474560 14580255 14682001 14778662 14869654 14954182 15031936 
2416.545 15102671 15166965 15226603 15283194 15339072 15395781 15453906 
2419.920 15512792 15572031 15630934 15690155 15750999 15815597 15885634 
2423.296 15962075 16045064 16133707 16227975 16327664 16434157 16548591 
2426.671 16672490 16806240 16949678 17101676 17260898 17426558 17598356 
2430.046 17776330 17960838 18151984 18349610 18553206 18763054 18978992 
2433.421 19202034 19432466 19670406 19915240 20165662 20419908 20676842 
2436.797 20935458 21195234 21455550 21715746 21974702 22231266 22485364 
2440.172 22737480 22989256 23243206 23500414 23761172 24023696 24284104 
2443.547 24538248 24782688 25015012 25235346 25445570 25648090 25845500 
2446.922 26039694 26231404 26420770 26607224 26789884 26968034 27140896 
2450.298 27307972 27469038 27624554 27775246 27922142 28066826 28210672 
2453.673 28354424 28499498 28647242 28799282 28957964 29125740 29304144 
2457.048 29494038 29694624 29904072 30119940 30340144 30562878 30787468 
2460.423 31013102 31239170 31464182 31687066 31906388 32122366 32336306 
2463.799 32550924 32769970 32996920 33234972 33486646 33753540 34037944 
2467.174 34342152 34668748 35020156 35397588 35800824 36228272 36676980 
2470.549 37144456 37628040 38126056 38637100 39159700 39691208 40229360 
2473.924 40770696 41311940 41850356 42383120 42906808 43417472 43909600 
2477.300 44377516 44815480 45218732 45584344 45910852 46197736 46444204 
2480.675 46649048 46810736 46927040 46997552 47023324 47007336 46954616 
2484.050 46871520 46764792 46640528 46504532 46360652 46211296 46058012 
2487.425 45898960 45732052 45554388 45362748 45154500 44928644 44684576 
2490.801 44422328 44141680 43841496 43519944 43175572 42806752 42413256 
2494.176 41995996 41556160 41094588 40612076 40108260 39582848 39036468 
2497.551 38470572 37887948 37292388 36687868 36077208 35462908 34846464 
2500.926 34229024 33611996 32997814 32388530 31787340 31196162 30616776 
2504.302 30050446 29498648 28963136 28446642 27951824 27480830 27035064 
2507.677 26614200 26216270 25839380 25481232 25140754 24817768 24513356 
2511.052 24228498 23964520 23721768 23500764 23301200 23123254 22966724 
2514.427 22830784 22714614 22616378 22534184 22466662 22413452 22375042 
2517.802 22352994 22348598 22361958 22392344 22437178 22493598 22558648 
2521.178 22630586 22708224 22791394 22879888 22972802 23068776 23166240 
2524.553 23263480 23359448 23453724 23545118 23632122 23711968 23780946 
2527.928 23835198 23871568 23888090 23884312 23860646 23818012 23756974 
2531.303 23678096 23581918 23469706 23344308 23208774 23067694 22924700 
2534.679 22782526 22642488 22504976 22369528 22235938 22104830 21977140 
2538.054 21853914 21735774 21623238 21515710 21412978 21314550 21220286 
2541.429 21130356 21044720 20962824 20884382 20808180 20733594 20659988 
2544.804 20587128 20514800 20442658 20369798 20295216 20218318 20139250 
2548.180 20058912 19979282 19902476 19829812 19762014 19698594 19638166 
2551.555 19579444 19521598 19464348 19407936 19353230 19300644 19250662 
2554.930 19203696 19160270 19121454 19088422 19061694 19041130 19025482 
2558.305 19012050 18997650 18979270 18954798 18923268 18885094 18841458 
2561.681 18794020 18744302 18693348 18642052 18590830 18539720 18488754 
2565.056 18438104 18388222 18339864 18294728 18254984 18222642 18199594 
2568.431 18186602 18182768 18186360 18194688 18205538 18217528 18230900 
2571.806 18246380 18265214 18288506 18315428 18345532 18377126 18409306 
2575.182 18441284 18473438 18505938 18539064 18572710 18606324 18639180 
2578.557 18671728 18704140 18738042 18774888 18815680 18861008 18910878 
2581.932 18964664 19022264 19083646 19148808 19217930 19290772 19366290 
2585.307 19443452 19521320 19599478 19678416 19758960 19842020 19927972 
2588.683 20016788 20107528 20199608 20292750 20387266 20483676 20582438 
2592.058 20682888 20783536 20882226 20976522 21064752 21146634 21222826 
2595.433 21294610 21363380 21430070 21494752 21557562 21618606 21678476 
2598.808 21737796 21798064 21859490 21922284 21985888 22049572 22112952 
2602.184 22176726 22241936 22310610 22384390 22464986 22552786 22648318 
2605.559 22751274 22861412 22978182 23101204 23229572 23362456 23499016 
2608.934 23639118 23783046 23932168 24087646 24250852 24422004 24600100 
2612.309 24783248 24968860 25154586 25338602 25519988 25698006 25872368 
2615.685 26042896 26209126 26371018 26528816 26682760 26833480 26981116 
2619.060 27125380 27265562 27400426 27528872 27650294 27764934 27873560 
2622.435 27977408 28077890 28175492 28270502 28363302 28453224 28540226 
2625.810 28623848 28703626 28778714 28848464 28912136 28969688 29021688 
2629.186 29069194 29113622 29156284 29197816 29238394 29277666 29314918 
2632.561 29349376 29380644 29408228 29431736 29450812 29465066 29474216 
2635.936 29478862 29480172 29479356 29478292 29478292 29479924 29483578 
2639.311 29488968 29495740 29504606 29516628 29532942 29555144 29584264 
2642.687 29620480 29663616 29713038 29767966 29828046 29892820 29962358 
2646.062 30036242 30113974 30195200 30279318 30366118 30455424 30547344 
2649.437 30641558 30737428 30834242 30931152 31027586 31123256 31218556 
2652.812 31313698 31409256 31505256 31601500 31697686 31793826 31890202 
2656.188 31987738 32087546 32190266 32296400 32405668 32517284 32630428 
2659.563 32744530 32859556 32975576 33092882 33211936 33332024 33452894 
2662.938 33573872 33694632 33814712 33934428 34053568 34172276 34290048 
2666.313 34406416 34520412 34631748 34740240 34846532 34951452 35056040 
2669.688 35161620 35269524 35380512 35495556 35615268 35739872 35869548 
2673.064 36004088 36142956 36285796 36432352 36582496 36736256 36893792 
2676.439 37055028 37219752 37387752 37558708 37732548 37909532 38089956 
2679.814 38273888 38461236 38651444 38843876 39037592 39232664 39428876 
2683.189 39627204 39828604 40034060 40244376 40459884 40680624 40906724 
2686.565 41137968 41374292 41615596 41861992 42113024 42368436 42627908 
2689.940 42891120 43158152 43429156 43703848 43982632 44265124 44551320 
2693.315 44841232 45135092 45433632 45737244 46046332 46361020 46681072 
2696.690 47006156 47335952 47670588 48010400 48356036 48707584 49065200 
2700.066 49427900 49794436 50163580 50534052 50904872 51276052 51647356 
2703.441 52018984 52390776 52763004 53135584 53508336 53881256 54253860 
2706.816 54625544 54995480 55362752 55726652 56087116 56444752 56800456 
2710.191 57155692 57511260 57867684 58224784 58582136 58939100 59295712 
2713.567 59651740 60007568 60362736 60716252 61066360 61410524 61745720 
2716.942 62069324 62378900 62673160 62951296 63214012 63462316 63698948 
2720.317 63927188 64151204 64375452 64604388 64841756 65090492 65352736 
2723.692 65629676 65922440 66231764 66558272 66902140 67263768 67642384 
2727.068 68037256 68447344 68870944 69307016 69753704 70208728 70669096 
2730.443 71131880 71593464 72051000 72502408 72946448 73382392 73809576 
2733.818 74226928 74632408 75023608 75397896 75753216 76088264 76402936 
2737.193 76697456 76972576 77229592 77469600 77694936 77908408 78114128 
2740.569 78316936 78521784 78733080 78954496 79188632 79437528 79703128 
2743.944 79986936 80291024 80616584 80964472 81333920 81722576 82126816 
2747.319 82541304 82959712 83375152 83780056 84166520 84527200 84855392 
2750.694 85145368 85393960 85599424 85761752 85881704 85960408 85998496 
2754.070 85995712 85951240 85863528 85730432 85549592 85318216 85033848 
2757.445 84694040 84297584 83844032 83334528 82771608 82158608 81499584 
2760.820 80798608 80060520 79290632 78494432 77679400 76853400 76024544 
2764.195 75201608 74393008 73606000 72848008 72126232 71446416 70814632 
2767.571 70235528 69712312 69246464 68837864 68484896 68185200 67936392 
2770.946 67735976 67581328 67469816 67398104 67361800 67356192 67375384 
2774.321 67413960 67466288 67526784 67590352 67651760 67705656 67746744 
2777.696 67770328 67771840 67747752 67696088 67615976 67508048 67374960 
2781.072 67220944 67051284 66872188 66689992 66509724 66335552 66169060 
2784.447 66011192 65860780 65716660 65577068 65439680 65301248 65157704 
2787.822 65003628 64833104 64640492 64421332 64173056 63896016 63592336 
2791.197 63266216 62922380 62566720 62204732 61842596 61486752 61143704 
2794.573 60820292 60522532 60255608 60023852 59830396 59677744 59568276 
2797.948 59503784 59486268 59516780 59595868 59722828 59896076 60113192 
2801.323 60371608 60668012 60999356 61361864 61751296 62163328 62593356 
2804.698 63036604 63489660 63948876 64411304 64873808 65332404 65782508 
2808.073 66218412 66633896 67022248 67377512 67693144 67963944 68184704 
2811.449 68351432 68461120 68512168 68505112 68441992 68326336 68162872 
2814.824 67956728 67713512 67439464 67141464 66827432 66506752 66189164 
2818.199 65885304 65605588 65359092 65154320 64997472 64893000 64843528 
2821.574 64849028 64907544 65014676 65164180 65348968 65560496 65790100 
2824.950 66029512 66269784 66503040 66721588 66918372 67087552 67224656 
2828.325 67327096 67393800 67425960 67426080 67398064 67346912 67278664 
2831.700 67199168 67114512 67029632 66948176 66872260 66802620 66739208 
2835.075 66681988 66631696 66589512 66557340 66537300 66531584 66542236 
2838.451 66571860 66624164 66704900 66820936 66981152 67194872 67470696 
2841.826 67816536 68239600 68746600 69345184 70043888 70851608 71776088 
2845.201 72820776 73982136 75244952 76580608 77947736 79288280 80536248 
2848.576 81622400 82476992 83044672 83288480 83195656 82779944 82079672 
2851.952 81153384 80065736 78885440 77675712 76484888 75350480 74296200 
2855.327 73333512 72465416 71688144 70993656 70370824 69807056 69290304 
2858.702 68808520 68352048 67912912 67484520 67061996 66640192 66214360 
2862.077 65779620 65331636 64866340 64381712 63877092 63354500 62817908 
2865.453 62274216 61733036 61205464 60704628 60243656 59834428 59486608 
2868.828 59206388 58996332 58855044 58777688 58756936 58781820 58840476 
2872.203 58919668 59005248 59084588 59147152 59185120 59194500 59174568 
2875.578 59126688 59053460 58957960 58842640 58709864 58561848 58401296 
2878.954 58231072 58054660 57875068 57694752 57515912 57340132 57169336 
2882.329 57005784 56852116 56710776 56584124 56472788 56376724 56294756 
2885.704 56225580 56168484 56123464 56091340 56073208 56070152 56082104 
2889.079 56108832 56149176 56201972 56266612 56343188 56432792 56537812 
2892.455 56661204 56806952 56979944 57185364 57428580 57714844 58047880 
2895.830 58429344 58857816 59328336 59831616 60353904 60878576 61386136 
2899.205 61856652 62273108 62622784 62899932 63106752 63253188 63355380 
2902.580 63431532 63501552 63583480 63691048 63836328 64028740 64275472 
2905.956 64584092 64961336 65414296 65950476 66578084 67305936 68144696 
2909.331 69104448 70193968 71416664 72768200 74231408 75774328 77353344 
2912.706 78910904 80381160 81701776 82812384 83665512 84232328 84502208 
2916.081 84484656 84205016 83702632 83022488 82209496 81307712 80353336 
2919.457 79375552 78397616 77435944 76502432 75605072 74748296 73934248 
2922.832 73163208 72434448 71747592 71102952 70501712 69945712 69436032 
2926.207 68972104 68551320 68167992 67814752 67482464 67162112 66844940 
2929.582 66523276 66191396 65845200 65483132 65106048 64717136 64322308 
2932.958 63927956 63541480 63169904 62819056 62493900 62198272 61935096 
2936.333 61706532 61513816 61357324 61236212 61149200 61094884 61072460 
2939.708 61081880 61124560 61201876 61314584 61461668 61639584 61842100 
2943.083 62060188 62282404 62496120 62687240 62841000 62943176 62981552 
2946.458 62946736 62835520 62651148 62404412 62110912 61791328 61467356 
2949.834 61157440 60877928 60640012 60449708 60309512 60218880 60174308 
2953.209 60170808 60201900 60260636 60338940 60430212 60528432 60629076 
2956.584 60729436 60828260 60925508 61022120 61119864 61221184 61328816 
2959.959 61445296 61572192 61710196 61858296 62014244 62175980 62340652 
2963.335 62506260 62671476 62834984 62995308 63150824 63299568 63440160 
2966.710 63572160 63696264 63814224 63929148 64044208 64162308 64286344 
2970.085 64419300 64563328 64721288 64895236 65085916 65292896 65513104 
2973.460 65742456 65975012 66205136 66427356 66636912 66829516 67001292 
2976.836 67148160 67266472 67353208 67407080 67428632 67420736 67388352 
2980.211 67337192 67273128 67201648 67126800 67051940 66978640 66907240 
2983.586 66836284 66761656 66677316 66574568 66443384 66273952 66057520 
2986.961 65788096 65463252 65084448 64656840 64187960 63687712 63165648 
2990.337 62630704 62090576 61550044 61012588 60479836 59952828 59432656 
2993.712 58920656 58417860 57924816 57440268 56960600 56479808 55990572 
2997.087 55485476 54958628 54407028 53831032 53234456 52623356 52004228 
3000.462 51383936 50768096 50160720 49565036 48983000 48416152 47865544 
3003.838 47332036 46815900 46317264 45835952 45371464 44923168 44490748 
3007.213 44073208 43669476 43278788 42899384 42530328 42170560 41819272 
3010.588 41475808 41139972 40811168 40488908 40172588 39861544 39554900 
3013.963 39252140 38952920 38656912 38364296 38075560 37791284 37512720 
3017.339 37241016 36976836 36721224 36474300 36235836 36005676 35783584 
3020.714 35569776 35365164 35170568 34987224 34816308 34658340 34514100 
3024.089 34384432 34270652 34174644 34099012 34046508 34018704 34016052 
3027.464 34036548 34075572 34125428 34177116 34219348 34240712 34230996 
3030.840 34181920 34088620 33950408 33770444 33555332 33313420 33053622 
3034.215 32784260 32511250 32239012 31969372 31703460 31441740 31184092 
3037.590 30931258 30683622 30441740 30205784 29975920 29751856 29533332 
3040.965 29320378 29112664 28910258 28713362 28522322 28337378 28159406 
3044.341 27988894 27826680 27672966 27527920 27391216 27262318 27140438 
3047.716 27024802 26915152 26810924 26711900 26617828 26528252 26442604 
3051.091 26360386 26281282 26204974 26131634 26061120 25993152 25927690 
3054.466 25864492 25803514 25745114 25690060 25639126 25593224 25552774 
3057.842 25517528 25487590 25462046 25440440 25422768 25409312 25400530 
3061.217 25397298 25400250 25410156 25427404 25452246 25484498 25523994 
3064.592 25569818 25620886 25675718 25732738 25790398 25847154 25901382 
3067.967 25951396 25994806 26028788 26050284 26056722 26046168 26018444 
3071.343 25974930 25918406 25852322 25780660 25706266 25631640 25558292 
3074.718 25487134 25419114 25354864 25294662 25238402 25185064 25133206 
3078.093 25080652 25025330 24965982 24902080 24834328 24764200 24693804 
3081.468 24624856 24558970 24496986 24439006 24384958 24334352 24286836 
3084.844 24242092 24200716 24163164 24130552 24104072 24084284 24071464 
3088.219 24065196 24064110 24066632 24071046 24076054 24080992 24085684 
3091.594 24090658 24096262 24103092 24111182 24120570 24131498 24143828 
3094.969 24157978 24174792 24194866 24218934 24247348 24279934 24315920 
3098.344 24354678 24394596 24434554 24473848 24511920 24548874 24585302 
3101.720 24622226 24660206 24699906 24741224 24783352 24825486 24866640 
3105.095 24906044 24943592 24979634 25014836 25050218 25086690 25124990 
3108.470 25165576 25208554 25253606 25300598 25348576 25396876 25445042 
3111.845 25492792 25540122 25588022 25637370 25688372 25741388 25795568 
3115.221 25849334 25901276 25949990 25994840 26036210 26075194 26112738 
3118.596 26149368 26185158 26219016 26249884 26276882 26299904 26319794 
3121.971 26338066 26356548 26376370 26398518 26422848 26449012 26476692 
3125.346 26505500 26535862 26568302 26603560 26642138 26684310 26729730 
3128.722 26777372 26826466 26875600 26923190 26968282 27010204 27048674 
3132.097 27084714 27119770 27155536 27193808 27236140 27282816 27333942 
3135.472 27388710 27445990 27504656 27563646 27621692 27677876 27731414 
3138.847 27781958 27829754 27876068 27922602 27971542 28024764 28083332 
3142.223 28147068 28215198 28285886 28357218 28428034 28497236 28564676 
3145.598 28630606 28695274 28758994 28822262 28885540 28949286 29014248 
3148.973 29080742 29148596 29217662 29286668 29354658 29420956 29485350 
3152.348 29548158 29610372 29672876 29736314 29801146 29867192 29933712 
3155.724 30000384 30066708 30132334 30197474 30262764 30328704 30396252 
3159.099 30466408 30539842 30616810 30697242 30780212 30864802 30949654 
3162.474 31033636 31116314 31197834 31278518 31358820 31439248 31519792 
3165.849 31600322 31680722 31760674 31840034 31919192 31998012 32076664 
3169.225 32155226 32233838 32313354 32394316 32478184 32565780 32657612 
3172.600 32753356 32851696 32951198 33049942 33146486 33240158 33330772 
3175.975 33418436 33503822 33587440 33669640 33751140 33832296 33913540 
3179.350 33995052 34077008 34159192 34241648 34324688 34408820 34495300 
3182.726 34585176 34679012 34776856 34877808 34980396 35083192 35185584 
3186.101 35287676 35390432 35495196 35602720 35712788 35824532 35936380 
3189.476 36046712 36154984 36261444 36367136 36473868 36582820 36695080 
3192.851 36810980 36930296 37052540 37177084 37302784 37427948 37551228 
3196.227 37670824 37785824 37896700 38005252 38114192 38226636 38345108 
3199.602 38470100 38600780 38734644 38868844 39000764 39129064 39253556 
3202.977 39375432 39496220 39617220 39740112 39865652 39994204 40125776 
3206.352 40259460 40393768 40526840 40656720 40781720 40901884 41018692 
3209.728 41134512 41252328 41374404 41501544 41632880 41766920 41901144 
3213.103 42034320 42165380 42295200 42424364 42553716 42683176 42812492 
3216.478 42940976 43068352 43195112 43322060 43450396 43580712 43712968 
3219.853 43846884 43981168 44115604 44249604 44383536 44517948 44652920 
3223.229 44788296 44923500 45058116 45191564 45323872 45455416 45586628 
3226.604 45717584 45848432 45978956 46109004 46238716 46368176 46497672 
3229.979 46627096 46755200 46880640 47002204 47118560 47229700 47336656 
3233.354 47440828 47544064 47647844 47753352 47860992 47971436 48084680 
3236.729 48201028 48320148 48441192 48562676 48683380 48801964 48918540 
3240.105 49034336 49151456 49271656 49396376 49525148 49656628 49788748 
3243.480 49919868 50049420 50178684 50309548 50443612 50581776 50723704 
3246.855 50867768 51012328 51156044 51298836 51441748 51586052 51732416 
3250.230 51881332 52032168 52184144 52336688 52489968 52644452 52801320 
3253.606 52961080 53124052 53289740 53458116 53628736 53801968 53978124 
3256.981 54157312 54338828 54521588 54704160 54885116 55064040 55241536 
3260.356 55418840 55597572 55778488 55961928 56147216 56333156 56518412 
3263.731 56702660 56885660 57068208 57250904 57434896 57620780 57809768 
3267.107 58002552 58199664 58401336 58607088 58815624 59025936 59236960 
3270.482 59448120 59659912 59873372 60089292 60308372 60530032 60753520 
3273.857 60977280 61200844 61423956 61647452 61872660 62100132 62330284 
3277.232 62563160 62798268 63036108 63277832 63524948 63778684 64040028 
3280.608 64308480 64582364 64860300 65140768 65423652 65709808 66000268 
3283.983 66296028 66597468 66903724 67213864 67527520 67845048 68167800 
3287.358 68497392 68834840 69180008 69531952 69888736 70248928 70612136 
3290.733 70979456 71352536 71733248 72123056 72521912 72929440 73344536 
3294.109 73766384 74194616 74628744 75068576 75513240 75961944 76413728 
3297.484 76869104 77329232 77796384 78273016 78760968 79260208 79769816 
3300.859 80288152 80813736 81346232 81886904 82437256 82999464 83574848 
3304.234 84163424 84764200 85376088 85997648 86627944 87266976 87914736 
3307.610 88571384 89237336 89913224 90600624 91300928 92015880 92746040 
3310.985 93490824 94248656 95016680 95793504 96578264 97372192 98177872 
3314.360 98997624 99832592 100682008 101543624 102414440 103292280 104176704 
3317.735 105068936 105971032 106885216 107811568 108749008 109694968 
3320.628 110646224 111600136 112554688 113508200 114459888 115408472 
3323.521 116353208 117293920 118231240 119166088 120098984 121029600 
3326.415 121955016 122870408 123770368 124649464 125504640 126335528 
3329.308 127142920 127928776 128693592 129435840 130151976 130837960 
3332.201 131489856 132104384 132680104 133214904 133706432 134151968 
3335.094 134548672 134895232 135192832 135444944 135656096 135830240 
3337.987 135968608 136068800 136125872 136133264 136085632 135980384 
3340.880 135817184 135597136 135322352 134993744 134610640 134172456 
3343.773 133678080 133127424 132520840 131858856 131141424 130367680 
3346.666 129537256 128650192 127708944 126717968 125683264 124611056 
3349.559 123506968 122374720 121216592 120033760 118827752 117600576 
3352.452 116355152 115094376 113821408 112538888 111249528 109956856 
3355.345 108665088 107379224 106104480 104844728 103602616 102378824 
3358.238 101173600 99986616 98818544 97671192 96547144 95448288 94375624 
3361.614 93328944 92306456 91306288 90327136 89368264 88430304 87514104 
3364.989 86619608 85747104 84896280 84066432 83258504 82473752 81713656 
3368.364 80979520 80271408 79588216 78927472 78286104 77661056 77049640 
3371.739 76450320 75861080 75280448 74707288 74140024 73578600 73023400 
3375.115 72475128 71934736 71402360 70876648 70354888 69834640 69313544 
3378.490 68791240 68269296 67750304 67237264 66731944 66234044 65741488 
3381.865 65251112 64759516 64264328 63764832 63261928 62756688 62251160 
3385.240 61746940 61244872 60745976 60251000 59760508 59275200 58795748 
3388.615 58321976 57853640 57390196 56930872 56475204 56022840 55573320 
3391.991 55127088 54684392 54245604 53811868 53383848 52962208 52546988 
3395.366 52137924 51733536 51332432 50933452 50536064 50140488 49748396 
3398.741 49360628 48978848 48603064 48232648 47866320 47502848 47141200 
3402.116 46781028 46422632 46066556 45712760 45361608 45012724 44665440 
3405.492 44320012 43976588 43635512 43297824 42964088 42634268 42308752 
3408.867 41987380 41669244 41354360 41041996 40731352 40421696 40112548 
3412.242 39803872 39496404 39191356 38890476 38595344 38307112 38025720 
3415.617 37750656 37481040 37215672 36953856 36695044 36438876 36184548 
3418.993 35931704 35679004 35425988 35173152 34921288 34672084 34427472 
3422.368 34188624 33955460 33727324 33502142 33277932 33054232 32830502 
3425.743 32607924 32387960 32172068 31960844 31754326 31551610 31351448 
3429.118 31152658 30954172 30754996 30554808 30353114 30149666 29945178 
3432.494 29740608 29536950 29336650 29141048 28951094 28767134 28588386 
3435.869 28413250 28240622 28068980 27897974 27727848 27559198 27392380 
3439.244 27227494 27063872 26900276 26735048 26566786 26394996 26220142 
3442.619 26043600 25867304 25693260 25522870 25356446 25193420 25033054 
3445.995 24874290 24716672 24560864 24407530 24257370 24110902 23967426 
3449.370 23825222 23682612 23538052 23390884 23241772 23092012 22943180 
3452.745 22796282 22651250 22507034 22362482 22216478 22069166 21921762 
3456.120 21776672 21635706 21500532 21371002 21245546 21122076 20998014 
3459.496 20871312 20741134 20608044 20473188 20338512 20205962 20076852 
3462.871 19951630 19830574 19712496 19596186 19480148 19363208 19244496 
3466.246 19124500 19003534 18882880 18763954 18647412 18533530 18422548 
3469.621 18313390 18205434 18098370 17991468 17884144 17776606 17668094 
3472.997 17558194 17446978 17334720 17222008 17109810 16999188 16890492 
3476.372 16784438 16680650 16578779 16478997 16381063 16284388 16189041 
3479.747 16093785 15997276 15898384 15796525 15691599 15585151 15479622 
3483.122 15376866 15278630 15185665 15096872 15011081 14926542 14841847 
3486.498 14756244 14669492 14581524 14492922 14404202 14316013 14229383 
3489.873 14146126 14067401 13994372 13927239 13864564 13804326 13743618 
3493.248 13679910 13611697 13538778 13462043 13383306 13304925 13228744 
3496.623 13156197 13088818 13027390 12972287 12923642 12880805 12842033 
3499.999 12805278 12767741 12726797 12680772 12628885 12571956 12511830 
3503.374 12451847 12395113 12345202 12304877 12275291 12256136 12245264 
3506.749 12238686 12231904 12220419 12201130 12173426 12139249 12101941 
3510.124 12065861 12034964 12010641 11992861 11980599 11971335 11964113 
3513.500 11958426 11954543 11952942 11954169 11957098 11960401 11962206 
3516.875 11960980 11955770 11946948 11935437 11922393 11909077 11896375 
3520.250 11884184 11872605 11860654 11846727 11829055 11805289 11773218 
3523.625 11731652 11680490 11620793 11554639 11483868 11409231 11330864 
3527.000 11247208 11156735 11058871 10954741 10846358 10737457 10631572 
3530.376 10530601 10435796 10346306 10260397 10176370 10092732 10007991 
3533.751 9921268 9831442 9737367 9638297 9534712 9427596 9319626 9213612 
3537.608 9111921 9015802 8925420 8839995 8758237 8679773 8605042 8535053 
3541.466 8470955 8412980 8359913 8309316 8257949 8202163 8140106 8070868 
3545.323 7994891 7914541 7831878 7749364 7669127 7592681 7520765 7453480 
3549.181 7390047 7328678 7267420 7204014 7136744 7065005 6989304 6910688 
3553.038 6831077 6752220 6674824 6600000 6528450 6460511 6396786 6338180 
3556.896 6284053 6233698 6185600 6137273 6086868 6033813 5977944 5920571 
3560.753 5864481 5811219 5762967 5720830 5685009 5654494 5627942 5602097 
3564.610 5572461 5534135 5481552 5409884 5318002 5207863 5085013 4957975 
3568.468 4834659 4720891 4618907 4528297 4446376 4370863 4299144 4229747 
3572.325 4162400 4097171 4033992 3972795 3913613 3856077 3800889 3748681 
3576.183 3699689 3654377 3612144 3571785 3531831 3491113 3448729 3404846 
3580.040 3359798 3314155 3268583 3223283 3178922 3136634 3098122 3064986 
3583.897 3038726 3019340 3004593 2990013 2969462 2936602 2886433 2817727 
3587.755 2733861 2642077 2551312 2470096 2404254 2355846 2323632 2303479 
3591.612 2290588 2279197 2264475 2243159 2213618 2176053 2132099 2083987 
3595.470 2033517 1982387 1931430 1880845 1831363 1784549 1741366 1703942 
3599.327 1673706 1651255 1636055 1626444 1620124 1614637 1608717 1601301 
3603.185 1593087 1585272 1578920 1574763 1572136 1569609 1563889 1551652 
3607.042 1529407 1494594 1447717 1390606 1327687 1264644 1205563 1153103 
3610.899 1107823 1067797 1030563 994197 957634 921573 888502 860547 839698 
3615.239 826386 819016 814269 808659 797207 776162 743335 698695 644404 
3619.579 585707 528278 477392 436627 406844 386548 373282 363964 357166 
3623.918 353418 355441 366716 390593 428037 475966 526155 566796 584015 
3628.258 566464 510730 424322 323773 227160 147305 90266 54508 34659 23658 
3633.080 15341 4804 -10934 -32370 -59438 -91208 -126785 -165174 -204620 
3637.419 -243301 -278236 -306911 -327439 -339391 -344093 -344358 -343331 
3641.277 -344192 -348397 -355680 -364222 -370479 -370843 -362401 -343530 
3645.134 -314725 -278402 -238598 -200613 -169878 -151859 -150203 -167294 
3648.991 -202997 -254792 -318500 -387098 -452772 -508409 -548187 -568638 
3652.849 -570822 -557784 -535877 -513009 -498281 -499109 -519893 -560498 
3656.706 -615657 -677427 -737268 -789131 -829744 -858978 -878157 -889830 
3660.564 -897005 -901766 -906296 -912149 -919258 -927424 -935492 -941575 
3664.421 -943691 -939922 -928780 -909669 -882853 -849884 -814168 -780334 
3668.279 -754601 -743156 -750929 -778051 -818665 -862946 -897997 -913637 
3672.136 -905569 -875446 -830406 -781425 -742395 -726154 -740642 -785030 
3675.993 -848892 -917836 -978570 -1024488 -1055890 -1076349 -1090495 
3679.369 -1102493 -1114357 -1126024 -1136962 -1146183 -1153023 -1157617 
3682.744 -1159698 -1158311 -1151801 -1138714 -1117497 -1088479 -1053873 
3686.119 -1017116 -982868 -956255 -940352 -936880 -945311 -963131 -987761 
3689.977 -1017480 -1050998 -1087355 -1124933 -1160690 -1190628 -1211412 
3693.352 -1220730 -1218549 -1207249 -1190793 -1173577 -1159500 -1150413 
3696.727 -1146050 -1144530 -1142647 -1137855 -1128965 -1116473 -1102691 
3700.102 -1090495 -1083389 -1083257 -1091024 -1105467 -1124206 -1144563 
3703.478 -1164027 -1180451 -1193139 -1201466 -1205233 -1204572 -1199285 
3706.853 -1189174 -1174371 -1154676 -1130452 -1102691 -1072978 -1044188 
3710.228 -1020455 -1006472 -1005910 -1021182 -1051394 -1091751 -1135211 
3713.603 -1174833 -1204572 -1221589 -1226148 -1220994 -1210388 -1198360 
3716.979 -1187720 -1179063 -1170537 -1158773 -1140234 -1113432 -1078630 
3720.354 -1038999 -999397 -964850 -938897 -922829 -915092 -912413 -911785 
3724.211 -911124 -910595 -912446 -919588 -934268 -956354 -982868 -1008422 
3728.069 -1027066 -1033941 -1026702 -1006207 -976455 -942369 -909933 -883580 
3731.926 -865062 -852926 -844626 -837020 -829480 -823858 -823858 -833779 
3735.783 -855605 -888342 -927490 -967561 -1004257 -1034305 -1057179 -1072614 
3739.641 -1079754 -1077837 -1065144 -1041015 -1006868 -967528 -930698 
3743.016 -906263 -903816 -927160 -971661 -1022901 -1064682 -1086067 -1084083 
3746.874 -1062765 -1029644 -993976 -962966 -942732 -936021 -942468 -960222 
3750.731 -986538 -1017942 -1051725 -1083720 -1109830 -1125660 -1128601 
3754.106 -1117861 -1096015 -1067260 -1036123 -1007232 -983728 -967165 
3757.481 -957511 -954965 -959065 -970504 -989976 -1016653 -1047891 -1079489 
3761.339 -1106095 -1122917 -1128139 -1122058 -1108210 -1091222 -1075787 
3764.714 -1065409 -1061542 -1062930 -1066797 -1071028 -1073804 -1075589 
3768.089 -1077572 -1081770 -1089471 -1100873 -1114919 -1129064 -1140994 
3771.465 -1148892 -1151602 -1149355 -1143076 -1133823 -1122884 -1111119 
3774.840 -1098824 -1086100 -1072879 -1059261 -1046073 -1034933 -1027496 
3778.215 -1025479 -1029909 -1039990 -1053840 -1068384 -1081307 -1090859 
3781.590 -1097172 -1101402 -1105203 -1110292 -1116836 -1124636 -1132435 
3784.966 -1139243 -1144629 -1148760 -1152627 -1156427 -1160525 -1163664 
3788.341 -1164953 -1163466 -1159038 -1152726 -1146315 -1141325 -1137921 
3791.716 -1135013 -1130518 -1121397 -1106393 -1085901 -1062599 -1041114 
3795.091 -1026339 -1021380 -1026868 -1039164 -1051758 -1057741 -1051989 
3798.467 -1032553 -1002240 -968256 -939228 -925374 -933210 -963230 -1007926 
3802.324 -1054501 -1089933 -1105632 -1099055 -1073705 -1037776 -1001513 
3805.699 -974438 -964619 -974636 -1000984 -1035032 -1067557 -1091024 
3809.074 -1102162 -1101402 -1090793 -1072747 -1048981 -1019165 -982604 
3812.450 -939063 -889268 -836557 -786585 -746232 -722482 -719075 -734655 
3816.307 -761315 -788801 -806528 -808446 -794126 -768096 -738558 -716032 
3820.165 -710541 -728404 -769320 -825610 -885267 -936153 -970107 -985513 
3824.022 -984554 -972884 -956222 -939988 -927160 -917836 -909933 -900245 
3827.879 -886093 -866253 -841451 -814267 -787875 -764722 -746729 -733365 
3831.737 -723276 -714080 -703627 -690659 -675210 -658668 -642953 -630546 
3835.594 -623499 -623764 -631737 -646758 -667038 -689998 -712426 -732108 
3839.452 -748085 -759926 -769055 -777125 -786122 -797598 -812878 -832588 
3843.309 -856233 -882588 -909239 -933210 -951295 -960751 -959891 -948254 
3847.167 -926234 -895186 -856861 -812117 -761712 -706439 -646758 -585547 
3851.024 -527802 -481170 -455983 -462503 -505761 -581940 -677360 -772925 
3854.881 -852430 -908181 -939691 -951196 -948551 -936847 -919687 -899320 
3858.739 -876868 -852662 -827363 -801302 -775273 -749739 -725658 -703594 
3862.596 -685035 -671902 -665881 -668627 -679246 -694497 -709218 -717289 
3866.454 -714742 -700848 -678981 -655558 -639314 -638090 -655856 -690031 
3870.311 -732472 -772462 -801269 -815226 -816450 -810860 -805701 -806263 
3874.168 -814796 -828951 -843700 -852166 -849222 -832522 -802824 -763465 
3878.026 -719604 -677360 -642887 -620554 -612547 -617775 -631572 -647354 
3881.883 -659065 -662109 -655029 -640306 -623499 -611918 -612249 -628528 
3885.741 -659264 -697904 -734655 -760588 -770577 -763829 -743487 -715271 
3889.598 -686524 -663068 -649206 -646626 -653706 -667303 -683381 -698566 
3893.456 -710508 -717487 -718017 -711235 -696349 -673027 -642258 -606293 
3897.313 -567778 -530450 -497752 -471969 -454096 -443835 -439532 -439433 
3901.170 -442114 -447145 -455188 -467005 -483686 -505728 -532667 -562715 
3905.028 -593422 -622572 -647916 -667965 -682389 -691023 -694431 -693670 
3908.885 -689568 -683117 -675210 -666211 -656187 -644872 -631671 -616220 
3912.743 -598584 -579458 -560134 -542661 -529159 -521084 -519065 -522805 
3916.600 -530218 -539583 -548651 -555898 -560862 -563740 -564568 -562913 
3920.458 -558413 -550140 -537829 -522209 -505364 -489809 -478787 -474121 
3924.315 -476206 -483951 -494773 -505298 -513108 -516749 -515590 -510328 
3928.172 -501426 -489577 -475610 -460617 -446549 -435858 -431522 -435593 
3932.030 -448999 -470645 -497454 -525684 -551861 -573403 -589915 -602091 
3935.887 -610628 -616948 -620819 -621811 -618900 -611290 -599113 -583330 
3939.745 -565958 -549048 -534851 -524791 -519727 -519826 -524658 -532766 
3943.602 -542065 -550669 -555931 -556295 -551397 -541602 -529192 -516980 
3947.459 -507780 -504239 -506853 -514763 -525949 -537333 -546367 -551265 
3951.317 -551397 -546930 -539120 -529523 -519628 -511089 -505000 -501624 
3955.174 -501028 -502352 -504239 -505198 -503610 -498579 -490173 -478986 
3959.032 -466309 -453699 -442743 -434468 -429966 -429767 -434103 -442677 
3962.889 -454990 -469686 -485208 -499506 -511056 -518304 -520819 -518767 
3966.747 -512976 -504537 -494608 -484149 -473856 -463893 -454460 -445523 
3970.604 -437215 -429337 -421889 -414971 -408714 -402954 -397989 -393288 
3974.461 -388587 -383291 -376802 -368724 -359355 -349787 -341146 -335153 
3978.319 -332703 -334226 -339590 -347966 -357766 -368360 -378689 -388488 
3982.176 -397426 -405404 -411594 -415699 -417222 -415898 -411859 -405768 
3986.034 -397823 -388488 -377828 -365910 -353363 -340981 -330022 -322042 
3989.891 -317771 -316977 -318500 -320387 -320519 -317904 -312904 -306746 
3993.749 -301779 -300223 -302872 -309328 -318135 -326909 -333995 -339292 
3997.606 -343000 -346510 -351343 -358064 -365910 -374087 -380675 
##END=
