##TITLE=1731o_2_b
##JCAMP-DX=5.01  $$ Nicolet v. 1
##DATATYPE=INFRARED SPECTRUM
##ORIGIN=UniL
##OWNER=Nicolet
##LONGDATE=2011/09/29
##TIME=14:46:09
##SPECTROMETER/DATA SYSTEM=Nicolet iS5
##DATA PROCESSING=
Ratio against background
%Transmittance->Absorbance
Truncated
ElementMultiply or ElementDivide
##COMMENTS=
Number of sample scans: 32
Collection length: 51.20 sec
Sample gain: 2.0
Background collected on: Jeu Sep 29 14:43:15 2011 (GMT+02:00);
Number of background scans: 32
Background gain: 2.0
Sample spacing:  1.000
Number of scan points: 12415
Resolution points: 8192
Number of FFT points: 65536
Apodization: N-B fort;
Phase correction: Mertz;
Laser frequency: 15798.0 cm-1
Number of rejected sample scans: 0
Number of rejected background scans: 0
Bench serial number: ASB1000141;
##RESOLUTION=4.000
##XUNITS=1/CM
##YUNITS=ABSORBANCE
##FIRSTX=649.893372
##LASTX=4000.122314
##FIRSTY=0.103095
##MAXX=4000.122314
##MINX=649.893372
##MAXY=0.262574
##MINY=-0.006115
##XFACTOR=1.000000
##YFACTOR=1.000000E-009
##NPOINTS=6950
##DELTAX=0.482117
##ZPD=6100
##XYDATA=(X++(Y..Y))
649.893 103094616 102558120 102049704 101569296 101110576 100665048 
652.786 100233032 99825136 99462440 99168624 98957296 98825112 98749984 
656.161 98698784 98637992 98544184 98410928 98245168 98060456 97868520 
659.536 97676128 97482576 97285336 97084288 96884752 96698792 96541264 
662.911 96426200 96361160 96343792 96361160 96388256 96384328 96294400 
666.285 96050744 95586872 94877448 93979192 93037232 92213976 91610344 
669.660 91231016 91013480 90869064 90714976 90494264 90177776 89768936 
673.035 89293816 88789176 88285248 87795000 87315504 86834968 86342800 
676.410 85835520 85318496 84800168 84287480 83782352 83283184 82790848 
679.785 82311488 81858728 81448544 81092000 80789192 80528512 80289904 
683.159 80051952 79798568 79525656 79238216 78945200 78653496 78364952 
686.534 78075696 77781800 77484016 77189776 76913400 76670056 76469240 
689.909 76311216 76186264 76080488 75979712 75875640 75767696 75660680 
693.284 75561072 75472952 75396944 75331920 75276744 75233792 75208424 
696.659 75205464 75226624 75267368 75316664 75360488 75387096 75391040 
700.034 75374952 75346976 75316152 75288568 75264368 75238880 75206104 
703.408 75162648 75109032 75049680 74989736 74931576 74873272 74809848 
706.783 74735824 74649040 74552344 74453104 74361344 74286568 74238328 
710.158 74226496 74262976 74364296 74547464 74824568 75194720 75637888 
713.533 76113568 76563528 76930136 77165552 77245112 77171088 76967552 
716.908 76670848 76316824 75940952 75579872 75277384 75095128 75108560 
720.282 75388240 75981528 76877648 77993536 79162344 80168504 80791312 
723.657 80841272 80224536 78957952 77171368 75063504 72861488 70772280 
727.032 68929816 67397016 66169560 65202372 64433864 63808008 63287340 
730.407 62848084 62475916 62160348 61889132 61649056 61430180 61225836 
733.782 61034172 60856012 60691828 60539248 60394416 60252904 60112580 
737.156 59975232 59845800 59729520 59630300 59548968 59483720 59431476 
740.531 59390484 59360776 59344328 59342924 59357356 59385964 59425624 
743.906 59472928 59524344 59577320 59628480 59673180 59704544 59715228 
747.281 59698764 59653068 59581464 59493260 59400816 59316144 59248504 
750.656 59201528 59174340 59162264 59159908 59161960 59164316 59164388 
754.031 59160820 59153948 59146468 59143396 59152088 59179576 59231528 
757.405 59310184 59413164 59535020 59668848 59808760 59950772 60093860 
760.780 60239700 60391980 60556276 60739880 60952460 61204472 61508624 
764.155 61880380 62339772 62917664 63659428 64620308 65863052 67434168 
767.530 69339080 71512160 73802280 75984520 77766104 78865288 79068208 
770.905 78276936 76550448 74090744 71209128 68226688 65431780 63027448 
774.279 61101292 59651168 58607844 57879380 57370232 57003668 56728216 
777.654 56505164 56304296 56099524 55865488 55582360 55240444 54839552 
781.029 54388772 53902564 53397712 52890080 52394256 51924684 51493560 
784.404 51110980 50784000 50515184 50304264 50149748 50051172 50010496 
787.779 50032096 50120404 50279412 50510232 50811712 51182696 51623252 
791.154 52137624 52734420 53426080 54227020 55153756 56222904 57451196 
794.528 58858348 60465516 62297776 64386248 66765876 69479456 72579552 
797.903 76124464 80183480 84833560 90148048 96191184 102994264 110532656 
801.278 118683672 127196696 135694928 143634240 150384656 155327904 
804.171 157923184 157877008 155209072 150281424 143704592 136215280 
807.063 128542464 121205824 114484560 108397464 102769104 97327248 91817424 
810.438 86106272 80203256 74256728 68479736 63106140 58318184 54212080 
813.813 50808432 48060772 45886620 44186320 42866580 41849116 41066144 
817.188 40465956 40008556 39663144 39410516 39238468 39139032 39105348 
820.563 39129352 39201440 39314016 39463164 39650364 39881632 40164588 
823.938 40504800 40903632 41358436 41865496 42423196 43034036 43705312 
827.312 44446848 45270512 46187968 47212260 48361480 49660568 51145232 
830.687 52865496 54879288 57253556 60056228 63336520 67110488 71328872 
834.062 75862576 80467968 84789696 88417832 90899408 91852952 91062752 
837.437 88518976 84444008 79226560 73373016 67374648 61635116 56456032 
840.812 51992992 48288856 45304268 42953848 41133704 39738624 38680456 
844.186 37882308 37279968 36826304 36484568 36230144 36048944 35931276 
847.561 35868724 35852384 35871064 35915004 35978352 36060612 36166148 
850.936 36300564 36468208 36669016 36899780 37156148 37436400 37743356 
854.311 38084964 38470284 38907728 39402460 39956312 40570532 41249300 
857.686 42001616 42843576 43797440 44888700 46149276 47617156 49333824 
861.060 51347572 53700720 56415172 59473040 62797428 66244156 69589440 
864.435 72571328 74917480 76381248 76808640 76153960 74498288 72024528 
867.810 68996968 65715968 62448640 59423612 56797320 54646888 52991816 
871.185 51805468 51037892 50625516 50504124 50614424 50894852 51287500 
874.560 51737864 52193816 52617112 52986388 53301280 53581276 53861752 
877.935 54186664 54593156 55104328 55717948 56402756 57096168 57710532 
881.309 58154124 58338380 58202692 57729872 56951156 55943384 54807936 
884.684 53661312 52604656 51709424 51017136 50536584 50254448 50144580 
888.059 50179096 50332240 50581180 50907780 51295740 51731220 52205516 
891.434 52714328 53259628 53847124 54483196 55173472 55919416 56720100 
894.809 57574088 58479952 59435960 60437524 61474116 62524548 63558316 
898.183 64538992 65428084 66194684 66819316 67294600 67624568 67821256 
901.558 67902456 67888040 67802120 67672968 67529688 67404208 67326904 
904.933 67322840 67413816 67617760 67949448 68423568 69054600 69855192 
908.308 70835656 72002120 73356504 74898000 76625944 78540280 80642432 
911.683 82933440 85411584 88070912 90903616 93903176 97070408 100418208 
915.058 103973168 107773520 111859536 116267536 121017168 126102152 
917.950 131476224 137041408 142645648 148053488 152963504 157036400 
920.843 159904944 161270016 160962800 159003248 155629376 151283696 
923.736 146588288 142203424 138784848 136895232 136880704 138855280 
926.628 142641040 147805104 153651776 159323120 163990192 166908032 
929.521 167608640 165970608 162189824 156692656 149980720 142556896 
932.414 134808000 126991168 119273568 111753408 104508288 97627880 91209480 
935.789 85357944 80173688 75728688 72069776 69216144 67162808 65885768 
939.163 65339760 65457016 66130624 67210696 68518768 69838528 70953232 
942.538 71680368 71878744 71482432 70502104 69020888 67171128 65109284 
945.913 62999172 60974916 59135268 57540344 56209480 55134536 54289116 
949.288 53641664 53160372 52817556 52591788 52463496 52414964 52430556 
952.663 52496060 52601480 52741304 52913584 53118172 53354440 53619852 
956.037 53910220 54221424 54550624 54898012 55265884 55657152 56072904 
959.412 56511660 56969440 57441780 57925456 58419568 58925172 59443672 
962.787 59974700 60515520 61061512 61608232 62154152 62700832 63252612 
966.162 63814572 64390092 64980036 65582620 66196108 66820508 67458704 
969.537 68116048 68798152 69508504 70248496 71016712 71812168 72635912 
972.912 73491160 74383608 75318752 76299288 77324840 78392104 79497808 
976.286 80640320 81820448 83040256 84301240 85601320 86935256 88294704 
979.661 89671824 91060464 92457048 93858720 95261288 96656488 98033096 
983.036 99378584 100682048 101937480 103142424 104295240 105390560 106415480 
986.411 107349568 108170040 108855088 109391536 109778016 110025448 
989.304 110154128 110189184 110161136 110101224 110041456 110015416 
992.196 110052728 110176424 110400920 110729120 111155104 111667152 
995.089 112253808 112906520 113620656 114393688 115221720 116096776 
997.982 117007864 117942048 118888568 119841472 120798584 121758320 
1000.874 122716456 123662088 124578784 125448720 126256552 126995608 
1003.767 127668936 128288880 128872720 129440296 130013704 130615936 
1006.660 131273016 132014872 132870568 133866728 135022144 136345296 
1009.552 137834320 139479728 141268288 143182448 145200432 147294704 
1012.445 149425968 151546976 153610000 155571440 157406528 159112336 
1015.338 160707392 162222032 163688160 165129648 166556208 167966672 
1018.231 169355280 170719408 172067280 173420480 174812160 176288592 
1021.123 177906416 179725360 181812400 184230880 187030816 190245728 
1024.016 193883024 197926016 202335952 207063376 212058416 217268304 
1026.909 222641056 228115248 233604672 239002096 244176080 248975216 
1029.802 253255104 256875872 259707904 261641264 262573744 262419872 
1032.695 261126880 258683024 255133744 250577632 245165520 239080224 
1035.588 232512016 225666640 218745984 211941232 205450608 199452944 
1038.481 194103680 189539504 185856000 183113104 181334256 180499936 
1041.374 180542176 181327408 182662208 184268400 185790944 186858896 
1044.267 187091088 186177216 183945952 180377200 175617088 169927616 
1047.160 163660160 157177680 150795680 144782960 139319184 134500384 
1050.053 130359040 126871704 123980280 121604944 119663840 118079616 
1052.947 116782872 115721104 114850168 114131264 113530144 113008504 
1055.840 112526952 112048544 111538536 110969144 110321248 109581896 
1058.733 108744752 107810128 106786352 105692680 104558872 103427768 
1061.626 102347744 101367256 100532592 99878256 99428024 99194600 99178488 
1065.001 99368752 99738952 100248352 100835952 101422624 101925456 102259552 
1068.376 102355712 102174144 101704288 100966784 100003424 98871288 97629160 
1071.751 96328360 95012352 93709448 92434664 91191904 89976888 88781984 
1075.127 87600848 86433064 85287040 84180520 83136992 82183272 81344632 
1078.502 80639088 80077848 79662808 79387360 79236936 79188784 79215144 
1081.877 79281240 79351128 79393768 79385928 79319784 79204096 79063832 
1085.252 78933872 78853288 78861832 78992248 79270704 79717424 80345280 
1088.628 81161376 82165776 83351272 84703672 86203280 87830440 89566616 
1092.003 91396288 93305040 95272136 97264032 99232200 101107400 102812512 
1095.378 104276240 105443272 106294376 106852584 107187920 107402864 
1098.271 107617864 107953320 108492520 109265592 110229160 111271872 
1101.164 112217040 112850624 112977224 112439368 111160880 109161080 
1104.057 106548768 103500088 100213040 96897296 93730952 90843080 88320648 
1107.433 86201056 84483408 83139280 82123184 81382312 80858712 80500272 
1110.808 80259696 80094192 79968656 79850760 79709856 79519216 79254560 
1114.183 78897552 78439608 77881496 77233832 76513024 75740160 74936816 
1117.558 74122184 73314096 72527080 71771864 71055656 70380840 69745032 
1120.934 69142360 68565552 68008664 67469152 66947596 66446164 65964512 
1124.309 65496928 65029680 64542180 64013228 63424548 62767984 62048680 
1127.684 61285928 60509044 59750700 59042788 58409560 57863144 57404640 
1131.059 57024112 56704204 56422000 56154308 55881540 55589628 55273748 
1134.435 54938432 54597252 54268388 53972644 53729064 53550764 53445036 
1137.810 53411836 53444852 53532360 53657564 53801556 53942292 54057892 
1141.185 54130024 54143724 54091108 53970092 53784076 53539520 53244532 
1144.560 52908008 52539136 52147860 51745816 51345148 50958004 50596144 
1147.936 50268548 49981980 49741296 49549584 49409408 49322356 49288912 
1151.311 49307436 49373660 49481664 49624240 49795064 49990120 50207284 
1154.686 50445880 50705308 50983676 51277284 51581388 51891004 52202040 
1158.061 52511876 52818568 53119856 53412288 53690932 53950172 54183924 
1161.437 54386636 54553820 54680484 54761248 54789592 54758392 54660716 
1164.812 54491648 54248568 53931676 53543004 53086456 52566996 51990560 
1168.187 51366292 50705272 50021352 49330968 48649464 47991232 47367916 
1171.562 46787748 46256884 45781016 45365584 45017208 44743008 44549740 
1174.938 44442920 44426808 44504808 44680900 44960760 45351864 45863864 
1178.313 46506968 47290988 48226020 49320948 50585684 52031648 53671136 
1181.688 55516764 57581656 59875732 62406292 65175184 68176752 71391120 
1185.063 74776592 78268016 81762568 85125376 88204896 90830384 92843352 
1188.438 94119376 94572000 94173456 92953704 90999584 88437168 85416424 
1191.814 82101200 78636848 75149256 71740632 68480392 65417872 62585624 
1195.189 60001904 57677420 55615576 53813220 52260256 50939448 49828400 
1198.564 48898408 48118364 47458308 46888208 46381520 45916340 45473480 
1201.939 45038892 44604080 44166220 43728288 43297936 42885888 42501824 
1205.315 42153220 41843824 41573368 41339380 41138880 40969896 40831624 
1208.690 40724076 40646676 40597924 40575696 40578680 40608000 40668436 
1212.065 40767236 40914296 41118664 41386536 41721324 42123064 42589456 
1215.440 43116800 43700512 44334508 45009600 45715264 46438452 47166092 
1218.816 47887628 48595620 49286724 49961200 50621832 51273628 51922780 
1222.191 52578628 53252432 53956960 54705548 55508552 56371480 57293100 
1225.566 58264756 59272200 60295160 61311720 62298120 63231028 64092212 
1228.941 64870768 65568440 66201008 66800648 67413576 68090856 68888224 
1232.317 69857176 71039464 72470512 74177600 76181248 78498560 81141760 
1235.692 84117776 87427376 91064712 95018128 99268720 103792400 108556160 
1239.067 113512808 118604080 123758424 128895104 133942368 138839216 
1241.960 143545792 148043696 152327616 156395184 160235600 163819568 
1244.853 167093600 169983472 172386496 174182928 175248512 175454480 
1247.746 174695920 172906352 170063168 166194752 161370992 155694480 
1250.639 149281408 142259824 134770416 126954552 118965560 110962760 
1253.532 103091080 95488904 88275008 81535320 75334760 69709472 64667372 
1256.908 60195660 56261828 52821296 49819960 47201184 44910672 42894520 
1260.283 41105808 39505292 38059464 36744768 35544604 34447736 33446956 
1263.658 32536604 31711020 30964456 30291434 29686502 29145264 28662638 
1267.033 28233054 27849962 27505856 27193842 26909760 26652460 26424538 
1270.409 26231052 26078220 25971764 25916260 25915908 25975562 26102250 
1273.784 26305466 26595460 26981890 27470204 28058766 28735452 29475102 
1277.159 30241698 30985308 31646792 32168892 32497856 32597530 32456330 
1280.534 32088864 31534012 30843634 30077966 29290212 28520198 27795346 
1283.910 27128728 26525046 25985096 25508638 25095500 24744768 24454464 
1287.285 24220652 24038826 23905946 23820462 23783222 23795086 23855816 
1290.660 23962244 24109152 24290094 24499544 24734454 24992760 25272430 
1294.035 25569712 25877854 26189312 26498174 26803346 27110248 27430604 
1297.411 27780828 28177402 28635774 29169324 29788228 30500848 31311776 
1300.786 32217958 33203852 34235980 35265860 36228092 37051708 37674800 
1304.161 38047892 38147180 37975708 37562068 36954396 36210948 35397660 
1307.536 34575088 33794940 33098318 32509498 32037854 31679440 31421260 
1310.912 31245794 31135394 31076700 31060006 31077908 31124680 31192708 
1314.287 31273778 31360458 31446978 31530838 31612296 31692304 31771082 
1317.662 31846878 31916198 31976182 32026366 32069280 32109770 32152514 
1321.037 32199542 32248932 32294902 32329916 32347906 32345730 32324348 
1324.413 32287620 32242224 32196366 32159648 32144666 32166966 32242510 
1327.788 32386854 32610494 32915990 33297680 33744408 34242756 34780408 
1331.163 35349492 35944480 36559532 37186468 37812140 38418840 38989384 
1334.538 39508484 39965976 40357984 40684956 40950524 41158840 41315544 
1337.914 41427652 41504608 41558896 41604292 41652904 41713628 41791032 
1341.289 41886876 42003876 42148696 42333512 42576408 42897116 43315472 
1344.664 43848496 44508480 45303608 46237128 47304916 48490428 49757684 
1348.039 51051272 52290792 53379728 54224840 54739824 54866732 54584780 
1351.415 53912280 52904936 51644000 50233808 48779496 47377636 46112832 
1354.790 45042716 44199268 43588804 43195920 42990572 42935412 42996248 
1358.165 43142924 43351788 43606096 43892704 44202756 44533920 44891936 
1361.540 45292756 45757932 46310960 46965544 47717404 48539444 49384016 
1364.916 50189356 50880436 51382216 51623960 51543812 51105836 50307316 
1368.291 49186892 47816748 46295628 44731000 43212060 41807996 40558164 
1371.666 39473976 38549828 37772996 37133700 36628892 36261480 36033824 
1375.041 35939908 35963740 36083004 36274340 36523204 36827428 37198456 
1378.417 37658176 38237236 38975536 39918788 41121688 42642896 44527016 
1381.792 46786304 49370912 52162920 54960804 57504072 59525520 60757332 
1385.167 60991312 60119124 58163672 55305248 51848176 48183184 44666468 
1388.542 41548720 38959408 36908364 35333028 34137400 33226564 32518032 
1391.917 31945870 31464860 31043316 30662428 30316160 30007590 29746002 
1395.293 29539788 29393088 29301946 29257390 29247646 29263098 29299570 
1398.668 29359906 29453046 29591110 29785566 30042954 30363170 30739704 
1402.043 31161808 31615786 32086726 32562244 33031992 33488364 33925436 
1405.418 34337524 34719104 35066060 35378608 35663252 35932640 36204068 
1408.794 36494840 36817288 37176940 37571712 37995596 38442260 38909612 
1412.169 39400284 39920060 40473920 41064104 41689336 42347796 43040840 
1415.544 43776148 44568908 45440992 46416840 47516156 48745984 50089876 
1418.919 51502924 52914036 54240456 55408452 56360316 57063068 57509404 
1422.295 57717988 57738764 57650708 57560248 57570952 57760636 58165492 
1425.670 58777120 59560860 60476940 61499500 62618076 63832992 65147272 
1429.045 66560396 68070312 69680456 71408808 73286592 75346184 77608912 
1432.420 80072032 82711960 85490000 88375192 91359032 94452960 97683464 
1435.796 101066752 104587496 108183728 111769400 115270712 118644792 
1438.689 121877624 124960024 127867432 130536672 132862464 134721344 
1441.582 135970320 136476432 136139968 134897136 132740960 129727736 
1444.475 125989648 121720648 117145192 112513776 108050320 103934736 
1447.368 100297144 97193280 94604752 92442168 90580872 88888376 87260328 
1450.743 85651360 84080704 82626496 81387752 80455680 79872464 79615600 
1454.118 79599240 79691504 79747440 79623080 79229184 78572800 77778152 
1457.494 77039912 76539384 76398320 76661352 77327336 78375984 79774272 
1460.869 81475680 83409040 85485440 87583904 89550776 91225672 92445904 
1464.244 93092288 93130016 92623152 91714816 90568992 89342664 88152536 
1467.619 87071240 86143800 85384680 84779832 84284424 83824664 83308840 
1470.995 82642128 81768328 80700688 79540376 78442552 77566016 77022424 
1474.370 76852456 77049208 77581144 78413056 79509064 80829224 82325624 
1477.745 83934752 85581912 87193096 88692928 90020592 91139296 92038816 
1481.120 92742304 93300488 93788232 94287808 94885040 95674384 96749424 
1484.496 98205992 100130256 102573776 105529744 108903152 112515784 
1487.389 116087896 119261096 121658952 122898640 122677512 120853584 
1490.282 117484216 112834936 107293616 101285840 95157408 89127232 83323248 
1493.657 77790952 72548104 67637656 63134804 59154824 55830328 53264944 
1497.032 51502252 50516744 50239944 50582780 51459988 52800416 54536464 
1500.407 56598576 58914432 61397928 63955136 66493200 68897392 71035448 
1503.783 72747552 73811192 73956016 72895192 70421744 66560736 61660052 
1507.158 56307728 51062676 46264408 42003440 38217624 34803524 31682004 
1510.533 28813622 26198252 23852944 21787540 19997738 18461370 17146964 
1513.908 16021686 15057285 14229144 13513039 12885481 12328158 11831268 
1517.284 11398549 11041163 10768603 10578232 10450663 10350989 10242281 
1520.659 10099413 9926082 9755293 9633351 9591888 9632031 9728930 9846932 
1524.516 9957576 10048105 10126104 10212054 10327916 10482840 10669162 
1527.892 10867591 11059822 11237551 11405386 11576077 11761847 11966464 
1531.267 12182797 12395930 12591978 12768356 12939412 13132120 13369160 
1534.642 13658641 13988622 14337006 14679328 14999111 15291363 15559359 
1538.017 15811644 16054552 16286382 16496619 16673179 16814678 16933966 
1541.393 17050842 17180400 17322444 17462880 17580276 17659086 17695944 
1544.768 17704402 17707850 17729870 17782302 17861772 17953516 18040788 
1548.143 18114292 18176756 18242958 18332158 18459296 18626834 18825334 
1551.518 19039434 19257448 19476890 19704904 19953746 20233696 20545960 
1554.894 20881462 21224358 21557180 21867156 22145030 22384566 22582068 
1558.269 22739368 22870352 22998828 23154636 23356198 23603012 23881196 
1561.644 24168594 24441950 24678476 24862570 24989636 25066892 25112492 
1565.019 25148266 25191278 25245952 25304390 25350018 25367054 25345486 
1568.395 25286760 25203252 25115792 25045514 25006448 25003500 25034352 
1571.770 25092972 25171158 25258560 25341692 25401760 25417744 25372568 
1575.145 25261932 25102312 24929380 24785704 24696890 24663328 24662274 
1578.520 24662554 24634360 24556376 24419272 24222684 23972888 23677256 
1581.896 23342454 22972768 22572576 22148830 21712888 21277628 20855736 
1585.271 20454952 20076540 19717282 19373392 19043658 18731054 18440524 
1588.646 18175720 17935904 17715962 17509240 17311582 17124904 16956810 
1592.021 16817192 16713087 16645359 16608385 16593479 16593754 16607318 
1595.396 16638232 16693184 16776999 16889666 17026928 17183882 17360202 
1598.772 17562612 17804706 18102894 18472504 18922334 19454610 20066648 
1602.147 20753784 21509164 22321810 23173648 24033644 24857342 25594418 
1605.522 26189558 26594228 26776032 26721166 26439540 25959908 25327360 
1608.897 24591192 23797362 22988454 22199146 21457500 20786422 20198290 
1612.273 19694606 19264758 18889422 18544422 18204950 17851830 17473676 
1615.648 17071486 16659647 16265364 15919831 15648143 15463348 15364164 
1619.023 15338935 15368764 15432172 15509702 15585563 15653640 15719356 
1622.398 15798621 15911547 16073739 16290441 16554857 16854426 17177504 
1625.774 17518762 17877550 18254744 18647690 19046808 19436210 19800262 
1629.149 20128456 20419562 20680386 20921132 21148652 21363276 21556066 
1632.524 21712332 21815100 21847816 21799908 21670396 21471634 21227662 
1635.899 20969534 20724730 20507750 20318512 20145600 19972550 19780774 
1639.275 19554072 19282976 18966740 18616076 18247728 17881590 17531630 
1642.650 17201808 16885392 16567007 16228387 15852882 15432104 14969958 
1646.025 14485351 14007785 13570159 13199539 12909305 12699263 12558041 
1649.400 12467703 12404591 12338555 12234085 12049544 11748434 11322702 
1652.776 10819385 10335584 9963848 9741941 9645141 9622138 9622443 9612890 
1656.633 9577932 9514764 9429865 9332829 9232125 9130938 9027710 8917168 
1660.490 8793805 8654253 8499033 8332890 8164753 8005219 7864570 7750916 
1664.348 7667913 7614497 7585027 7569517 7555828 7530137 7479739 7396281 
1668.205 7278067 7131186 6968563 6806169 6657261 6530165 6427083 6344971 
1672.063 6277363 6215178 6147758 6064321 5956613 5824047 5676180 5532827 
1675.920 5414212 5333398 5289928 5272018 5262359 5245557 5213329 5166686 
1679.778 5114549 5068486 5036171 5015523 4994105 4950836 4865283 4727121 
1683.635 4547750 4360889 4210307 4124733 4105232 4132059 4178892 4224962 
1687.492 4257317 4270668 4265615 4245037 4212917 4173741 4132962 4097305 
1691.350 4073357 4065664 4073892 4091351 4104831 4099011 4060513 3986606 
1695.207 3889642 3797178 3738689 3729030 3762217 3814459 3856044 3857448 
1699.065 3798917 3680608 3528224 3386446 3293588 3265144 3289549 3342869 
1702.922 3399369 3439878 3452837 3433767 3386045 3319430 3247351 3181659 
1706.780 3129960 3094718 3073929 3063418 3058479 3056510 3056143 3058212 
1710.637 3064319 3075430 3090981 3108768 3125388 3137235 3142442 3140506 
1714.494 3132363 3118646 3098723 3070058 3031518 2985776 2941839 2914352 
1718.352 2918822 2963390 3047334 3161098 3291886 3426686 3556184 3676531 
1722.209 3788923 3897966 4009245 4127443 4254707 4390409 4532650 4679056 
1726.067 4827455 4974397 5115421 5244182 5353525 5438134 5496115 5530746 
1729.924 5547794 5553298 5548935 5529672 5483531 5395827 5256993 5072207 
1733.781 4868567 4688066 4570955 4535529 4574102 4663047 4775393 4890515 
1737.639 4993770 5078677 5145562 5198877 5244953 5289056 5334002 5379758 
1741.496 5424713 5466754 5504101 5535109 5558366 5572327 5575549 5566420 
1745.354 5543499 5505343 5450581 5377276 5284797 5172319 5040026 4888739 
1749.211 4720020 4535697 4339503 4137210 3936851 3748247 3579603 3435904 
1753.069 3316459 3215939 3124820 3032052 2927796 2806789 2670714 2528315 
1756.926 2392560 2275300 2182480 2111388 2053092 1996001 1929599 1847834 
1760.783 1751180 1645867 1541044 1445822 1365909 1302296 1252780 1213272 
1764.641 1179017 1145993 1109252 1065671 1013227 953284 890495 832528 786186 
1768.980 754786 735435 719969 697866 659569 601865 530070 457789 400012 
1773.320 366318 357862 367545 385553 403594 417623 427938 437324 448070 
1777.660 459779 469332 472416 466180 451022 431486 414107 404357 403859 
1781.999 409564 415732 416893 410161 397127 382203 371259 368043 373117 
1786.339 384359 398453 413112 427573 442166 456561 469000 475634 471355 
1790.678 452581 419314 376565 333489 299170 279774 275596 282426 293865 
1795.018 304409 311074 313196 311306 306531 298938 288527 275232 259649 
1799.358 244001 231337 224541 225204 233193 246653 263760 282824 302851 
1803.697 323475 343735 362306 377494 387775 393014 394872 395469 397226 
1808.037 400742 405053 407441 405020 396430 383099 368109 356237 349970 
1812.376 350334 355342 361576 366219 368010 367446 367247 369833 377229 
1816.716 389864 406645 426346 447871 471023 496300 524364 555516 589689 
1821.056 626486 665178 705101 744762 782502 815896 843085 864399 882526 
1825.395 902613 930140 968327 1016249 1068826 1117390 1153435 1172040 
1829.253 1174266 1168319 1165860 1178485 1212142 1265740 1333137 1405897 
1833.110 1477871 1545733 1609815 1672409 1736543 1803314 1873124 1945608 
1836.968 2021433 2103231 2194935 2300182 2420847 2555378 2699519 2847410 
1840.825 2993249 3133130 3264911 3388883 3506745 3621666 3737719 3858451 
1844.682 3986706 4122458 4262403 4399514 4524882 4628954 4702770 4741927 
1848.540 4745277 4716068 4659396 4580330 4482229 4366044 4231955 4081217 
1852.397 3917324 3746743 3577231 3414530 3261906 3118846 2982640 2850412 
1856.255 2721691 2598109 2482792 2378001 2283394 2195668 2110223 2022898 
1860.112 1932229 1840115 1750448 1667520 1593386 1527777 1468595 1414041 
1863.969 1363549 1318747 1281558 1252947 1231015 1210979 1186924 1154431 
1867.827 1113238 1068295 1027840 1000208 990378 998415 1019736 1047967 
1871.684 1077496 1104435 1126891 1143502 1153169 1153833 1144099 1123204 
1875.542 1092842 1055573 1014721 972345 928380 881464 829208 771913 712203 
1879.881 655454 607506 573166 552762 543207 538364 532094 520449 502370 
1884.221 479515 454803 430292 406048 381275 354413 325100 293998 263031 
1888.561 234254 208761 187844 171800 162088 160133 167425 184065 207899 
1892.900 234287 257395 273276 280371 281830 282625 287963 300662 319198 
1897.240 338861 353750 360415 358260 349870 339259 329643 321320 312831 
1901.579 301591 286372 268601 251792 239658 234188 234552 237271 238564 
1905.919 235613 228983 221756 217413 218109 223546 230906 237271 241282 
1910.259 244531 250399 262832 283123 310046 339392 366716 389665 408403 
1914.598 424986 441271 457092 469995 475037 468735 450823 425384 399481 
1918.938 379152 367280 361510 357000 348113 333058 314423 298209 291279 
1923.277 296916 313561 335114 354347 366451 370762 370596 370961 375239 
1927.617 383662 393379 400410 402997 402234 401637 405285 414605 427540 
1931.957 439314 445251 444455 439911 438385 446080 466512 497825 533918 
1936.296 567725 594831 615038 631861 649415 669160 687644 698895 695543 
1940.636 674536 638133 594068 553127 523369 508142 504991 509204 516668 
1944.975 526255 540719 564407 599078 643342 692423 740082 782236 817357 
1949.315 847234 873429 896073 912807 919913 914965 899858 880302 865361 
1953.655 862041 873197 895143 920045 939338 947606 944650 934755 923731 
1957.994 914965 908324 900422 888602 873296 859219 853443 861079 882792 
1962.334 912209 939636 956040 957369 946178 929874 916227 910184 910781 
1966.673 912674 910549 902613 891823 884020 884419 894412 909487 923997 
1971.013 932929 935685 938042 947971 970386 1004891 1044513 1079721 1104734 
1975.353 1120845 1136691 1164465 1212308 1278169 1349523 1407260 1436281 
1979.210 1429798 1393564 1341081 1288836 1249690 1227161 1218754 1217990 
1983.067 1219386 1220881 1223174 1228357 1236133 1244473 1248660 1246234 
1986.925 1238724 1230716 1228889 1237827 1256702 1280163 1300867 1313562 
1990.782 1317816 1318780 1325294 1343507 1375050 1414174 1452471 1481395 
1994.640 1497154 1501876 1500446 1498517 1498052 1497088 1490205 1473482 
1998.497 1446187 1412346 1378374 1350188 1329182 1312133 1292857 1265807 
2002.354 1229653 1187755 1146790 1112872 1088756 1073310 1062648 1052949 
2006.212 1044712 1041889 1050126 1072912 1108554 1150976 1192439 1228125 
2010.069 1258662 1289235 1326258 1372657 1425277 1474546 1509789 1525117 
2013.927 1521061 1507229 1495791 1498684 1519664 1555410 1596911 1634792 
2017.784 1664626 1688209 1711261 1739803 1776964 1820649 1866236 1908500 
2021.642 1945242 1977228 2006587 2033650 2055455 2067474 2066408 2053491 
2025.499 2036413 2026327 2034250 2065809 2117515 2178584 2235498 2279697 
2029.356 2309442 2331428 2356579 2393526 2445504 2507953 2572776 2632943 
2033.214 2686183 2735462 2787414 2846376 2913619 2985242 3055676 3120582 
2037.071 3179723 3236268 3293388 3352085 3408552 3455074 3484232 3491815 
2040.929 3480558 3457513 3433566 3416668 3410556 3413328 3420375 3427188 
2044.786 3432798 3438743 3449898 3469570 3498962 3536441 3579736 3626477 
2048.644 3676664 3731002 3788588 3846784 3899872 3942501 3970555 3985168 
2052.501 3991454 3998310 4013124 4040313 4079009 4124332 4169826 4211278 
2056.358 4247546 4281175 4315140 4351083 4386527 4417522 4439246 4449489 
2060.216 4449556 4444033 4438577 4436434 4437773 4439380 4436535 4426057 
2064.073 4407413 4382209 4353861 4324143 4292519 4257250 4215928 4168388 
2067.931 4117642 4068975 4027772 3997240 3977477 3965372 3956712 3948720 
2071.788 3941331 3937018 3939692 3951429 3972260 3999112 4027905 4054527 
2075.646 4077337 4096068 4112256 4127510 4142061 4156546 4171432 4187792 
2079.503 4208032 4234230 4266954 4304833 4344356 4381674 4414107 4441255 
2083.360 4465323 4489193 4514235 4539413 4560608 4573164 4573098 4560306 
2087.218 4538107 4512762 4490298 4474529 4465190 4459867 4454377 4445907 
2091.075 4433957 4420568 4408350 4399179 4393422 4390108 4388234 4387297 
2094.933 4388769 4394593 4406442 4424015 4445338 4467265 4487987 4507204 
2098.790 4526958 4550462 4579192 4613080 4649785 4686391 4721327 4755996 
2102.647 4794053 4840455 4898155 4966052 5039322 5111364 5175538 5228521 
2106.505 5271247 5307906 5343462 5381335 5422566 5465882 5509437 5552795 
2110.362 5597063 5644995 5698840 5758266 5820824 5881341 5935451 5980397 
2114.220 6016310 6045842 6071848 6096847 6121210 6143960 6164192 6181802 
2118.077 6198775 6218371 6243042 6274305 6311385 6352166 6394129 6436600 
2121.935 6480522 6528349 6582809 6644644 6713386 6786716 6862448 6939339 
2125.792 7017926 7098987 7183027 7268970 7354188 7434840 7508561 7575114 
2129.649 7636551 7696546 7758911 7826007 7898074 7973528 8050784 8128189 
2133.507 8205202 8280947 8353798 8420582 8478017 8522922 8556478 8582094 
2137.364 8606764 8636542 8675311 8722097 8771456 8816156 8849564 8868502 
2141.222 8873168 8867251 8853385 8833130 8804861 8765844 8714186 8649892 
2145.079 8576450 8498255 8420075 8343801 8268653 8191831 8110770 8025030 
2148.937 7936036 7846654 7757561 7668182 7574877 7472997 7359210 7232616 
2152.794 7096057 6952671 6805463 6655141 6500096 6340433 6179786 6027195 
2156.651 5897126 5806417 5766493 5780024 5837917 5922788 6015369 6099267 
2160.509 6165301 6210573 6234841 6238471 6221665 6185466 6132501 6069597 
2164.366 6006836 5952011 5911099 5883155 5862298 5839428 5805880 5757595 
2168.224 5693738 5617537 5531350 5437329 5335008 5223491 5104391 4982240 
2172.081 4864647 4760921 4678420 4619610 4581904 4558632 4542226 4525752 
2175.938 4505765 4480756 4450694 4414877 4372503 4323607 4269731 4215226 
2179.796 4166314 4128346 4103961 4091284 4084628 4076233 4059644 4033123 
2183.653 3998076 3958785 3919698 3883658 3851297 3821078 3791596 3762351 
2187.511 3733508 3705303 3676965 3646090 3610774 3570282 3527255 3487773 
2191.368 3459216 3448528 3458481 3486537 3526587 3570081 3610874 3645054 
2195.226 3673089 3696046 3715896 3733141 3746542 3755867 3761749 3767197 
2199.083 3775720 3790025 3809312 3828666 3841669 3841736 3825390 3794204 
2202.940 3753561 3710616 3671385 3638606 3612010 3589224 3568077 3547933 
2206.798 3529694 3514862 3503639 3494854 3486237 3476083 3464794 3456277 
2210.655 3455575 3467599 3493785 3532399 3577398 3621632 3660191 3690432 
2214.513 3713791 3733208 3751622 3770573 3789457 3806671 3820944 3831541 
2218.370 3838761 3843274 3844812 3842071 3833747 3819407 3799953 3778528 
2222.228 3758507 3742532 3730868 3721778 3712454 3700892 3687725 3675328 
2226.085 3667642 3667141 3674025 3685085 3696079 3703264 3706138 3707074 
2229.942 3710817 3721177 3739858 3764924 3791697 3815128 3831842 3841636 
2233.800 3846951 3850528 3854874 3860256 3865204 3868012 3868613 3868179 
2237.657 3870018 3877239 3891113 3911240 3935547 3961728 3988411 4015967 
2241.515 4044962 4076534 4109614 4141726 4169894 4192007 4208300 4221415 
2245.372 4235066 4252632 4275219 4301454 4328627 4353326 4374176 4391380 
2249.229 4406208 4419697 4431045 4437539 4436535 4426191 4407882 4385757 
2253.087 4366077 4354497 4353828 4363165 4378293 4393288 4403363 4405237 
2256.944 4398543 4383849 4361860 4333011 4297304 4255142 4208300 4160493 
2260.802 4115501 4077504 4048808 4029310 4017873 4012857 4013392 4019913 
2264.659 4033323 4054059 4080715 4110183 4137913 4159791 4173841 4180030 
2268.517 4180565 4178056 4174443 4170061 4164106 4155442 4143533 4129383 
2272.374 4114698 4101319 4090716 4082855 4076935 4072487 4069711 4069176 
2276.231 4072387 4080314 4092856 4108276 4124666 4140154 4153803 4165979 
2280.089 4177621 4189933 4203282 4217200 4231118 4244736 4257685 4270400 
2283.946 4282915 4294192 4302223 4304365 4299312 4286797 4269095 4249989 
2287.804 4233259 4221549 4214757 4210575 4205390 4195888 4180967 4161129 
2291.661 4139351 4119047 4102924 4092555 4087906 4088609 4094061 4103627 
2295.519 4117073 4133330 4150324 4165544 4176149 4180565 4178458 4171466 
2299.376 4162065 4152631 4144871 4138749 4133531 4128479 4122960 4117575 
2303.233 4113494 4111387 4111521 4113059 4114431 4114397 4112558 4109046 
2307.091 4105099 4101486 4098375 4094964 4090381 4083759 4075363 4066366 
2310.948 4058607 4053590 4052253 4054326 4058473 4063490 4068440 4072588 
2314.806 4076033 4078106 4077738 4073524 4063791 4047905 4026568 4001487 
2318.663 3975303 3950660 3929862 3913881 3903684 3899571 3901410 3908598 
2322.521 3919464 3930698 3937854 3936048 3921872 3894155 3854707 3807173 
2326.378 3756736 3707609 3662430 3621599 3584180 3549002 3515931 3486337 
2330.235 3462522 3446992 3441147 3444854 3456410 3473578 3494353 3517601 
2334.093 3542554 3568912 3595372 3620530 3643016 3661728 3677533 3692103 
2337.950 3707074 3723883 3742398 3761014 3777725 3791864 3804131 3817201 
2341.808 3834415 3858451 3889742 3926753 3966509 4007473 4049778 4096971 
2345.665 4154238 4226635 4316512 4421973 4537371 4654339 4763299 4855131 
2349.522 4922685 4960924 4967761 4944234 4894134 4823837 4740185 4650454 
2353.380 4560239 4473123 4391514 4317148 4251428 4196289 4154037 4126004 
2357.237 4112323 4110684 4117408 4127309 4136174 4141024 4141559 4138983 
2361.095 4135638 4134133 4136174 4142864 4155375 4174778 4202579 4240554 
2364.952 4289340 4348339 4415781 4489159 4565932 4644158 4724107 4806448 
2368.810 4892224 4982240 5075995 5172587 5270811 5369493 5468398 5566890 
2372.667 5664699 5761053 5854641 5944655 6030689 6113515 6194473 6274977 
2376.524 6355966 6436903 6516577 6592834 6664596 6731288 6793918 6854268 
2380.382 6913853 6973748 7033719 7092992 7150453 7205496 7258289 7309302 
2384.239 7358974 7407168 7453008 7495582 7534082 7568674 7600874 7632976 
2388.097 7667340 7705584 7748218 7794262 7842370 7891359 7940761 7990875 
2391.954 8042515 8096017 8151451 8207904 8263858 8318232 8370215 8419434 
2395.812 8466225 8510892 8554011 8595882 8637386 8679536 8723584 8771084 
2399.669 8822478 8877667 8935601 8994220 9051866 9107692 9161596 9214526 
2403.526 9267361 9321420 9377146 9434639 9494104 9556220 9621596 9691285 
2407.384 9766035 9845610 9928963 10014637 10101075 10187326 10273357 
2410.759 10359609 10446488 10533996 10621623 10707978 10791666 10871770 
2414.134 10948082 11020907 11090923 11159012 11225514 11290803 11354808 
2417.510 11417564 11479445 11540518 11600919 11660103 11718069 11774478 
2420.885 11830110 11886022 11943883 12005464 12072096 12144429 12222226 
2424.260 12306002 12395487 12491675 12595695 12708543 12830635 12961875 
2427.635 13100941 13246917 13398615 13555597 13717662 13884610 14056005 
2431.010 14230513 14407216 14585258 14764231 14945643 15130769 15321086 
2434.386 15517497 15719391 15925607 16134772 16346037 16559090 16774589 
2437.761 16992814 17213080 17433628 17651668 17864362 18069596 18266390 
2441.136 18455010 18636172 18810422 18977504 19136758 19287412 19429210 
2444.511 19563396 19692006 19817048 19940842 20064428 20187114 20307646 
2447.887 20423938 20534496 20638028 20733766 20821494 20901418 20973984 
2451.262 21040616 21103778 21166080 21230864 21300770 21377998 21463734 
2454.637 21558642 21663708 21780122 21909426 22053582 22213620 22389414 
2458.012 22580148 22783746 22998094 23222196 23455788 23698846 23952056 
2461.388 24215186 24487450 24767848 25055622 25350756 25654734 25969266 
2464.763 26296136 26636254 26989436 27354904 27731944 28120520 28521720 
2468.138 28937422 29369584 29819174 30286032 30769080 31266232 31776074 
2471.513 32297366 32828930 33369590 33917304 34468756 35019904 35566324 
2474.889 36104212 36629932 37141064 37635088 38108944 38559604 38983584 
2478.264 39377356 39738368 40064508 40354024 40605564 40817720 40988940 
2481.639 41118044 41204780 41250140 41256480 41227512 41167804 41081912 
2485.014 40975176 40852120 40717124 40573804 40424788 40271128 40112440 
2488.390 39946688 39771084 39582268 39377248 39153824 38910520 38646448 
2491.765 38360928 38053536 37723732 37371648 36997692 36602608 36187288 
2495.140 35752248 35297412 34822192 34326264 33809304 33273030 32720200 
2498.515 32154300 31580012 31001180 30420738 29840644 29262352 28686638 
2501.891 28115252 27550054 26993068 26446512 25912146 25391082 24884078 
2505.266 24392354 23917814 23462538 23028874 22618438 22231788 21868444 
2508.641 21526400 21203794 20899194 20612386 20343930 20094758 19865464 
2512.016 19656020 19465664 19293334 19138488 19001182 18882188 18782326 
2515.392 18701856 18640426 18596676 18569182 18556560 18558150 18573712 
2518.767 18602556 18643470 18694386 18752400 18815126 18880632 18948568 
2522.142 19019804 19095278 19176338 19262714 19352952 19445150 19536466 
2525.517 19624576 19707816 19784380 19852388 19909828 19953954 19982266 
2528.893 19993020 19985596 19959922 19917044 19858494 19784622 19696548 
2532.268 19594696 19480252 19354996 19221638 19082986 18942096 18801528 
2535.643 18662632 18526822 18394858 18267392 18145212 18028526 17917396 
2539.018 17811022 17708438 17608362 17510484 17414728 17322030 17233040 
2542.394 17148066 17066282 16986304 16906236 16824736 16741220 16656239 
2545.769 16571309 16487876 16407007 16329041 16253462 16179858 16107917 
2549.144 16038051 15971322 15908591 15850408 15796766 15746292 15698023 
2552.519 15650719 15603663 15557126 15511660 15467914 15426748 15388298 
2555.895 15352287 15318546 15286558 15255945 15226054 15196646 15166554 
2559.270 15135091 15101744 15065930 15027888 14987964 14947049 14905863 
2562.645 14865368 14826282 14788845 14753364 14719635 14687210 14655646 
2566.020 14624323 14593139 14562198 14532356 14505118 14481960 14464625 
2569.396 14454212 14451163 14455445 14466441 14482781 14503473 14527217 
2572.771 14552604 14578851 14605167 14630903 14655920 14680322 14704108 
2576.146 14727758 14751376 14775234 14799712 14824979 14851722 14880284 
2579.521 14911042 14943792 14978190 15013894 15050322 15088056 15127921 
2582.896 15171186 15219397 15273345 15332860 15396777 15463622 15531749 
2586.272 15600366 15669476 15739730 15812125 15887454 15965445 16045649 
2589.647 16126795 16207786 16288171 16367678 16446270 16523877 16600363 
2593.022 16674832 16746936 16816228 16882672 16946714 17008906 17069350 
2596.397 17127628 17183364 17235626 17284206 17329168 17371550 17412694 
2599.773 17453772 17495682 17538840 17583450 17629136 17676066 17724798 
2603.148 17776020 17830528 17889324 17953170 18022344 18097332 18178208 
2606.523 18265178 18358286 18457672 18562888 18673804 18790144 18911362 
2609.898 19037356 19167438 19301232 19438322 19578334 19721234 19867338 
2613.274 20016994 20170730 20327956 20487880 20648836 20808738 20965778 
2616.649 21118840 21267676 21412910 21555614 21696240 21834960 21970798 
2620.024 22102494 22228892 22349192 22463102 22571282 22674394 22773026 
2623.399 22867944 22959178 23047008 23131640 23213216 23291518 23366232 
2626.775 23436798 23502410 23562572 23617462 23667636 23714314 23758968 
2630.150 23802156 23843878 23883260 23919038 23949990 23975478 23995682 
2633.525 24011616 24024292 24034798 24043518 24050348 24055286 24057840 
2636.900 24058262 24056896 24054410 24051958 24050208 24049892 24052168 
2640.276 24057666 24067158 24081656 24101306 24126034 24155562 24189436 
2643.651 24227308 24269388 24316026 24367820 24425406 24488642 24557218 
2647.026 24630256 24706640 24785214 24865378 24946224 25027156 25107506 
2650.401 25186572 25263828 25339198 25412474 25484252 25555374 25626648 
2653.777 25698462 25771342 25845782 25921712 25999906 26080788 26164922 
2657.152 26252348 26342784 26435242 26528500 26621422 26712850 26801936 
2660.527 26888714 26972934 27054880 27135114 27214020 27292164 27370642 
2663.902 27450156 27531202 27613890 27697722 27781994 27865470 27947302 
2667.278 28027380 28106166 28184438 28263464 28344238 28426974 28511812 
2670.653 28598296 28685930 28774430 28863938 28955202 29049000 29146540 
2674.028 29248600 29355686 29468010 29585542 29707504 29833476 29962820 
2677.403 30095188 30230756 30369282 30511512 30657664 30807602 30961254 
2680.779 31118166 31277626 31439282 31602710 31767730 31933886 32100886 
2684.154 32268420 32435730 32602708 32769326 32936078 33104076 33274178 
2687.529 33447206 33623636 33803428 33986344 34171884 34360120 34550948 
2690.904 34744620 34941396 35141032 35343276 35548308 35756240 35968128 
2694.280 36185196 36409076 36640460 36879796 37125976 37376988 37630968 
2697.655 37885888 38140636 38395060 38649924 38906460 39165684 39428400 
2701.030 39694656 39964088 40235688 40508436 40781360 41053432 41324512 
2704.405 41594736 41864692 42135584 42408512 42684020 42962736 43244236 
2707.781 43528108 43813968 44101780 44392200 44686412 44986080 45292536 
2711.156 45606792 45929084 46259688 46597920 46943428 47295680 47654280 
2714.531 48018248 48386300 48756328 49125596 49491652 49851924 50204496 
2717.906 50548272 50883080 51209348 51528404 51842280 52152904 52462896 
2721.281 52774904 53090836 53413300 53744328 54085664 54438800 54805268 
2724.657 55185512 55579308 55985940 56403624 56830968 57265916 57707768 
2728.032 58156096 58610612 59071072 59536348 60004676 60473472 60939648 
2731.407 61400408 61853404 62296780 62729156 63148752 63552944 63939548 
2734.782 64305560 64648836 64968532 65264396 65537804 65790644 66024608 
2738.158 66242264 66445856 66638260 66823020 67004152 67185360 67370472 
2741.533 67562552 67763896 67976416 68202112 68443040 68701800 68980648 
2744.908 69281208 69603632 69946768 70308168 70683880 71069472 71459200 
2748.283 71847584 72227520 72591424 72931752 73241608 73514632 73746864 
2751.659 73936208 74081624 74183648 74242696 74258888 74232432 74162664 
2755.034 74048656 73889784 73684512 73431320 73128040 72772624 72363120 
2758.409 71898416 71378856 70805464 70181392 69510488 68797456 68048264 
2761.784 67269880 66469288 65655456 64836948 64022288 63220144 62438308 
2765.160 61683388 60962068 60280084 59642236 59053724 58517752 58036976 
2768.535 57612716 57244860 56932384 56673172 56464640 56303616 56186624 
2771.910 56109816 56068832 56059028 56076036 56115168 56171576 56240892 
2775.285 56317952 56397440 56473584 56540604 56593032 56626552 56637760 
2778.661 56625076 56587936 56527284 56444980 56343716 56227352 56100312 
2782.036 55967660 55834588 55705556 55584056 55472072 55370320 55278116 
2785.411 55193716 55114936 55038240 54959340 54873348 54774104 54655608 
2788.786 54512872 54341908 54141136 53911492 53656140 53379168 53086232 
2792.162 52782908 52474672 52167064 51865504 51574856 51300584 51048028 
2795.537 50821840 50627196 50468696 50350212 50275504 50247008 50266096 
2798.912 50332576 50445544 50603108 50802660 51042292 51320348 51635156 
2802.287 51985292 52368572 52782048 53221720 53683584 54162640 54654592 
2805.663 55155188 55659828 56164224 56663204 57150664 57620360 58066020 
2809.038 58481168 58860396 59198412 59490600 59733020 59922396 60056040 
2812.413 60133092 60153796 60119812 60033896 59900072 59722640 59507128 
2815.788 59259632 58987412 58698672 58402776 58109240 57827596 57567360 
2819.164 57336428 57142312 56990976 56886868 56832668 56828816 56873724 
2822.539 56963284 57091788 57252152 57436368 57636480 57844440 58052276 
2825.914 58252668 58438672 58604128 58744192 58855844 58938032 58991548 
2829.289 59018688 59023088 59008512 58979476 58940540 58895876 58850000 
2832.665 58806672 58769116 58739868 58720484 58712140 58715440 58731144 
2836.040 58760236 58803900 58863584 58941184 59039108 59160592 59309992 
2839.415 59493600 59718800 59994480 60330188 60735652 61220572 61794576 
2842.790 62466848 63247016 64144404 65167024 66319920 67602584 69006048 
2846.166 70508688 72074552 73653936 75179032 76573960 77759848 78658896 
2849.541 79211536 79381352 79161320 78575104 77674056 76530648 75222016 
2852.916 73826784 72415272 71039736 69739384 68537856 67445232 66462808 
2856.291 65584696 64801328 64099820 63466764 62889404 62355796 61855584 
2859.667 61380676 60923752 60478808 60040096 59602136 59159568 58708040 
2863.042 58243608 57764044 57268748 56759596 56240248 55717720 55201652 
2866.417 54702696 54233552 53806544 53431512 53116260 52865116 52678528 
2869.792 52553720 52485516 52466296 52486224 52534648 52599832 52668804 
2873.167 52730680 52775572 52796528 52789904 52754772 52692520 52605816 
2876.543 52497592 52370668 52227784 52071536 51904672 51730064 51550904 
2879.918 51369952 51189668 51012108 50838940 50672168 50513840 50366064 
2883.293 50231056 50110664 50005552 49916072 49841700 49781540 49734760 
2886.668 49700912 49679440 49670376 49673572 49689172 49717260 49758168 
2890.044 49812568 49881432 49966108 50067680 50187944 50328668 50492664 
2893.419 50683080 50904016 51159584 51453608 51789004 52166396 52583788 
2896.794 53036100 53514932 54008064 54501452 54978444 55422152 55818800 
2900.169 56158040 56435808 56655164 56825644 56962152 57081320 57201388 
2903.545 57338884 57507400 57719160 57984184 58311060 58708420 59184212 
2906.920 59746288 60403364 61164836 62041228 63044764 64186656 65475852 
2910.295 66914432 68493856 70191168 71965672 73764184 75518600 77153720 
2913.670 78599328 79790400 80678144 81235512 81456896 81358776 80973488 
2917.046 80347472 79531472 78574472 77523712 76417480 75286832 74156960 
2920.421 73045816 71966376 70927600 69934544 68989584 68093496 67246352 
2923.796 66448444 65700748 65004780 64361960 63772200 63234060 62742940 
2927.171 62292112 61873276 61476516 61091948 60710692 60324588 59927380 
2930.547 59515260 59086672 58642732 58187196 57725932 57265576 56813484 
2933.922 56376652 55960456 55569592 55207556 54876356 54577340 54311120 
2937.297 54077180 53874844 53703228 53562156 53452272 53375380 53333684 
2940.672 53329412 53363580 53434844 53539184 53670196 53819256 53975572 
2944.048 54127736 54263812 54371048 54438236 54454764 54413560 54311456 
2947.423 54151192 53941392 53694756 53428852 53162096 52911336 52691212 
2950.798 52511652 52378108 52291724 52249944 52248040 52279504 52337736 
2954.173 52416308 52509224 52611840 52720464 52831964 52943824 53054592 
2957.549 53163144 53268952 53372612 53475544 53579400 53686248 53797616 
2960.924 53914232 54036016 54162416 54292344 54424752 54559232 54694952 
2964.299 54831204 54967012 55100980 55231076 55355752 55473504 55583636 
2967.674 55686684 55783988 55878640 55974140 56075316 56187264 56314480 
2971.050 56460636 56627268 56813636 57016704 57231136 57451120 57670344 
2974.425 57883244 58085792 58274492 58446900 58601172 58735580 58848708 
2977.800 58939780 59008592 59055808 59083028 59092560 59087508 59071372 
2981.175 59048596 59022976 58998416 58977200 58959512 58942780 58921300 
2984.551 58887488 58831560 58743660 58614936 58437384 58206104 57918452 
2987.926 57575152 57180260 56740828 56267256 55770840 55263700 54756776 
2991.301 54258140 53773312 53304760 52852732 52416272 51993436 51581872 
2994.676 51178448 50778600 50376740 49966032 49539076 49090204 48615480 
2998.052 48113848 47587432 47040792 46480008 45911736 45342444 44777316 
3001.427 44220404 43674680 43141868 42622972 42118428 41628104 41152428 
3004.802 40691652 40246156 39816512 39403076 39005476 38622904 38254096 
3008.177 37897492 37551664 37215596 36888416 36569300 36257300 35950960 
3011.552 35648684 35349204 35051228 34754600 34459896 34168300 33880980 
3014.928 33599144 33323366 33053874 32791122 32535390 32287512 32048270 
3018.303 31818106 31596902 31383824 31177650 30977302 30782276 30593380 
3021.678 30412208 30241342 30083398 29940492 29814312 29705516 29614522 
3025.053 29541844 29488010 29453436 29438188 29441628 29461522 29493684 
3028.429 29531736 29568552 29595048 29602142 29582064 29528758 29438722 
3031.804 29312154 29151678 28962570 28750744 28523100 28285566 28043144 
3035.179 27800114 27559482 27323426 27093390 26869572 26651226 26436828 
3038.554 26224508 26012676 25800420 25587988 25376574 25167894 24963210 
3041.930 24763674 24569524 24381102 24198756 24023242 23855816 23698076 
3045.305 23550784 23414312 23287776 23169664 23058468 22953030 22852542 
3048.680 22757314 22667518 22583080 22503614 22428244 22356308 22287102 
3052.055 22220628 22156502 22094892 22035384 21977280 21919984 21863462 
3055.431 21808166 21755840 21708222 21666808 21632294 21604362 21581832 
3058.806 21563204 21547778 21535696 21527966 21526120 21530996 21543148 
3062.181 21562020 21586708 21616588 21651658 21692268 21739084 21792314 
3065.556 21851302 21913642 21976758 22037442 22092348 22139416 22176376 
3068.932 22201762 22214282 22212852 22196670 22166370 22123446 22070524 
3072.307 22010846 21947690 21883532 21819804 21757338 21696030 21635880 
3075.682 21577270 21520168 21464848 21411030 21358124 21305084 21251044 
3079.057 21195792 21139330 21082700 21026670 20972072 20919080 20867416 
3082.433 20816420 20766194 20716944 20669580 20625762 20586642 20553152 
3085.808 20525880 20504204 20487186 20473952 20463288 20454222 20446374 
3089.183 20439532 20433872 20429774 20427862 20428662 20432622 20439914 
3092.558 20449986 20462488 20476868 20492396 20509276 20527514 20547626 
3095.934 20570278 20596022 20624790 20656652 20691056 20726886 20762926 
3099.309 20797718 20829906 20858516 20883722 20906042 20927356 20949714 
3102.684 20974680 21003438 21035956 21071258 21107882 21145000 21181772 
3106.059 21218754 21256924 21297220 21339886 21384994 21431288 21477378 
3109.435 21522640 21566372 21608890 21651378 21694776 21740094 21787996 
3112.810 21838478 21891164 21945600 22000494 22054558 22106502 22154722 
3116.185 22198274 22236984 22271616 22303286 22333878 22364472 22395310 
3119.560 22425802 22454832 22481178 22504346 22524168 22541826 22558580 
3122.936 22575750 22594040 22613656 22634668 22656872 22680748 22707072 
3126.311 22736330 22769396 22806164 22845556 22886036 22926272 22964628 
3129.686 23000296 23033382 23064548 23095052 23126224 23159738 23196576 
3133.061 23237576 23282532 23330952 23381860 23434210 23487124 23540710 
3136.437 23595036 23650700 23708050 23766562 23824838 23881580 23935074 
3139.812 23984478 24030246 24073918 24117418 24162638 24210490 24260698 
3143.187 24312416 24364492 24415942 24466732 24517564 24569244 24622508 
3146.562 24677670 24734068 24791456 24849658 24909134 24971036 25036494 
3149.938 25105928 25179022 25253994 25328590 25400074 25466790 25527508 
3153.313 25582506 25633222 25681026 25727534 25774332 25822046 25871664 
3156.688 25923576 25978202 26036070 26097360 26162178 26230420 26301770 
3160.063 26375350 26450244 26525576 26600250 26673494 26744986 26814836 
3163.438 26883496 26951816 27020534 27089934 27159980 27230388 27300914 
3166.814 27371276 27441580 27512140 27583596 27656298 27730108 27804848 
3170.189 27880238 27955710 28031234 28107016 28183342 28260176 28337696 
3173.564 28415406 28492776 28569454 28645260 28720266 28794892 28869286 
3176.939 28943868 29018712 29094348 29170848 29248600 29328106 29409362 
3180.315 29492372 29576248 29660388 29744156 29827406 29910530 29994596 
3183.690 30080736 30169520 30261236 30355138 30450164 30545422 30640064 
3187.065 30733658 30826668 30919910 31013884 31109266 31206736 31306006 
3190.440 31406868 31509034 31611618 31713906 31815574 31916306 32016772 
3193.816 32117690 32219954 32324598 32431908 32541316 32651968 32762896 
3197.191 32873422 32983624 33094172 33206250 33320290 33436828 33554972 
3200.566 33673792 33792508 33910500 34027840 34145104 34262908 34381564 
3203.941 34500684 34620052 34739092 34857592 34975944 35094224 35212784 
3207.317 35330980 35447740 35562260 35673860 35782940 35890892 35999592 
3210.692 36110512 36224564 36341128 36458984 36576548 36692992 36808384 
3214.067 36923912 37041096 37161348 37284768 37411116 37538512 37665912 
3217.442 37792224 37917272 38041308 38164948 38288476 38411964 38535344 
3220.818 38658652 38782320 38907148 39033824 39162204 39291456 39420204 
3224.193 39546376 39668772 39786732 39901136 40013640 40126140 40240156 
3227.568 40356168 40473812 40591776 40709228 40824928 40938400 41049536 
3230.943 41158548 41265732 41371668 41476788 41581536 41686384 41791324 
3234.319 41896364 42000848 42104660 42206896 42307908 42407928 42507524 
3237.694 42607768 42709204 42812128 42917012 43023828 43133120 43245184 
3241.069 43360428 43478336 43597672 43716708 43833248 43946080 44055532 
3244.444 44162992 44271248 44383756 44502532 44628208 44760052 44895608 
3247.820 45032424 45168840 45304048 45438416 45573304 45709524 45847552 
3251.195 45986764 46126392 46265440 46403792 46541708 46680296 46820512 
3254.570 46963108 47108220 47255632 47404684 47554824 47706012 47858552 
3257.945 48013028 48170340 48330744 48494428 48661140 48830028 49000392 
3261.321 49171384 49342440 49513264 49683748 49854340 50025068 50196648 
3264.696 50368928 50541832 50715180 50888704 51062936 51238096 51415524 
3268.071 51595976 51780680 51969908 52163180 52359300 52556636 52753536 
3271.446 52948392 53140940 53331172 53520216 53709832 53901812 54098164 
3274.822 54300268 54509340 54725016 54947384 55175316 55407548 55643296 
3278.197 55881804 56122296 56364692 56608960 56854536 57101840 57350908 
3281.572 57601972 57855796 58113256 58375256 58642316 58915076 59193588 
3284.947 59477528 59766708 60060604 60359312 60662796 60971024 61284096 
3288.323 61602580 61926576 62256740 62593812 62937892 63289412 63648196 
3291.698 64013496 64384632 64761444 65143772 65532260 65927296 66329264 
3295.073 66737780 67151672 67569528 67990016 68412896 68838880 69270248 
3298.448 69709432 70158840 70619664 71092384 71575648 72068136 72568480 
3301.823 73075656 73589712 74111296 74641296 75180568 75729632 76288744 
3305.199 76857752 77436144 78022912 78617584 79219480 79828464 80445080 
3308.574 81070520 81706776 82354856 83016064 83690184 84376240 85073144 
3311.949 85780200 86497560 87226224 87968088 88723736 89493240 90275168 
3315.324 91066752 91865440 92669656 93479232 94295752 95121272 95958248 
3318.700 96807680 97669656 98542776 99424568 100313088 101205688 102099784 
3322.075 102992960 103882672 104766776 105644632 106516328 107383384 
3324.968 108247536 109110256 109971456 110829832 111683048 112528152 
3327.861 113362816 114185568 114994624 115787848 116561896 117312328 
3330.754 118034560 118724560 119379936 120000656 120587144 121140032 
3333.647 121658208 122139256 122579208 122975240 123325856 123632704 
3336.540 123899000 124128640 124323584 124483624 124606336 124686952 
3339.433 124721520 124707216 124642928 124528376 124363952 124148872 
3342.326 123881232 123559464 123181728 122747400 122257080 121711352 
3345.219 121110648 120455024 119743984 118977280 118156632 117285368 
3348.113 116368712 115412408 114422496 113403648 112358944 111290064 
3351.006 110198032 109083720 107947920 106791872 105617032 104425392 
3353.899 103219656 102003976 100783416 99563400 98349624 97145992 95955392 
3357.274 94778440 93615352 92466352 91332088 90214720 89116408 88039424 
3360.649 86984608 85951768 84939672 83947056 82973152 82018512 81084688 
3364.024 80173760 79287368 78426472 77591008 76780760 75995416 75234512 
3367.400 74497816 73784720 73093768 72422896 71769368 71130432 70503392 
3370.775 69886872 69279888 68681624 68092136 67511344 66939132 66376248 
3374.150 65823912 65283268 64755520 64240552 63737048 63242496 62753396 
3377.525 62267144 61781736 61296572 60811912 60328356 59846180 59364804 
3380.901 58883276 58400652 57916976 57433344 56951536 56473356 56000412 
3384.276 55533104 55070512 54611456 54154496 53698768 53244228 52791064 
3387.651 52339868 51890520 51443200 50997276 50552884 50110700 49671600 
3391.026 49237140 48808856 48387372 47972988 47565324 47163544 46766528 
3394.402 46373112 45982640 45594284 45208184 44824664 44444828 44069760 
3397.777 43700916 43338860 42983224 42632624 42284716 41937600 41589776 
3401.152 41240884 40892308 40545720 40202864 39864740 39531204 39201184 
3404.527 38873300 38546640 38220592 37895868 37573376 37254048 36938088 
3407.903 36625320 36314900 36006324 35699224 35394028 35091384 34792576 
3411.278 34498280 34209020 33925328 33647156 33374172 33106078 32842082 
3414.653 32581280 32322850 32065928 31809584 31553966 31299028 31044702 
3418.028 30791202 30538314 30285570 30033296 29781876 29532978 29288052 
3421.404 29049176 28817412 28592492 28373276 28157602 27943590 27729684 
3424.779 27515388 27301020 27087500 26875564 26665990 26458978 26254318 
3428.154 26052114 25852568 25656068 25462750 25272748 25085636 24901272 
3431.529 24719198 24539862 24363686 24191224 24022752 23857426 23693704 
3434.905 23529272 23362070 23191020 23015598 22837140 22657742 22479468 
3438.280 22304194 22132756 21965186 21800780 21639016 21479258 21321266 
3441.655 21165282 21011612 20860046 20710412 20561524 20411990 20260254 
3445.030 20104544 19943582 19777410 19607800 19437146 19269504 19108436 
3448.406 18956460 18814054 18679752 18550578 18422790 18293242 18160346 
3451.781 18024174 17886078 17747958 17611570 17477850 17346650 17217768 
3455.156 17090440 16964630 16840064 16716942 16594579 16472114 16348032 
3458.531 16221130 16090689 15956920 15821129 15685380 15551598 15421529 
3461.906 15296031 15175406 15059309 14947084 14838110 14731837 14627510 
3465.282 14524784 14423143 14322451 14222571 14123397 14024656 13925665 
3468.657 13825191 13722004 13615081 13504562 13390960 13275954 13161798 
3472.032 13049959 12941222 12835652 12732154 12629806 12528438 12428116 
3475.407 12329965 12235176 12144020 12055403 11967690 11878156 11784385 
3478.783 11685052 11580024 11470940 11360317 11251186 11146604 11048878 
3482.158 10959228 10877409 10803147 10734129 10668313 10603255 10536474 
3485.533 10466072 10391236 10311425 10227218 10139128 10048410 9956084 
3488.908 9863405 9771897 9683391 9599272 9520995 9448692 9382022 9319457 
3492.766 9259373 9199905 9139973 9078830 9016817 8954746 8893020 8832149 
3496.623 8772741 8714794 8658680 8604332 8551510 8499641 8447609 8393995 
3500.481 8337890 8278920 8218034 8156853 8098245 8044270 7996680 7956452 
3504.338 7922875 7895037 7871554 7851041 7832215 7813862 7795105 7774899 
3508.196 7752771 7729261 7705618 7683763 7665890 7653243 7646397 7644576 
3512.053 7646498 7650613 7656379 7663192 7671218 7680256 7689160 7696310 
3515.910 7699244 7696040 7685248 7667340 7643632 7616082 7586578 7555828 
3519.768 7523395 7488267 7449131 7405112 7356884 7305259 7251988 7198725 
3523.625 7146478 7095282 7044496 6992873 6938631 6880525 6817243 6748451 
3527.483 6674824 6597544 6518494 6440064 6363868 6290609 6220253 6151421 
3531.340 6082667 6012480 5939516 5863305 5783349 5699277 5610489 5517188 
3535.198 5419513 5318941 5217555 5118371 5023668 4935018 4852718 4775393 
3539.055 4700894 4627045 4551869 4474831 4395731 4314873 4232256 4148082 
3542.912 4061918 3974133 3885229 3796811 3710750 3629451 3554046 3485869 
3546.770 3425083 3371219 3323136 3279433 3237570 3194710 3147815 3093884 
3550.627 3031318 2960421 2883398 2804788 2728926 2660079 2600342 2549545 
3554.485 2505620 2465731 2427378 2388729 2349150 2308143 2265474 2220178 
3558.342 2171125 2117049 2056987 1991608 1922045 1850164 1777995 1706737 
3562.199 1636587 1566450 1494494 1418063 1334567 1241881 1139249 1028106 
3566.057 912608 799431 696903 613014 551733 513218 492518 482368 474208 
3570.396 460973 438584 405584 363002 313262 259417 203888 147769 91691 36349 
3575.218 -18786 -73087 -126719 -179880 -232406 -284693 -336379 -386469 
3579.076 -433541 -476669 -515690 -551894 -588128 -627502 -672861 -725559 
3582.933 -785923 -852629 -924581 -1000984 -1082497 -1169976 -1263780 
3586.308 -1362155 -1459881 -1549859 -1623280 -1673651 -1699098 -1702762 
3589.684 -1692068 -1675532 -1662000 -1657940 -1667215 -1691210 -1728175 
3593.059 -1775399 -1828721 -1883258 -1934952 -1979943 -2015564 -2041057 
3596.434 -2056985 -2065197 -2068494 -2070011 -2072155 -2076772 -2084752 
3599.809 -2095732 -2109219 -2124419 -2141037 -2158940 -2178623 -2200612 
3603.185 -2225699 -2254772 -2288129 -2326460 -2370686 -2421300 -2479156 
3606.560 -2543955 -2614870 -2688935 -2762131 -2829784 -2886862 -2931130 
3609.935 -2962098 -2982501 -2996453 -3008694 -3022712 -3040447 -3061833 
3613.310 -3084863 -3107498 -3128321 -3147631 -3167367 -3190853 -3221704 
3616.686 -3261827 -3311679 -3368956 -3429119 -3485395 -3531146 -3560790 
3620.061 -3572029 -3565358 -3545541 -3518887 -3492133 -3471590 -3461663 
3623.436 -3464095 -3478919 -3504261 -3538640 -3582282 -3637750 -3709111 
3626.811 -3801383 -3915374 -4045814 -4176577 -4285285 -4350438 -4360181 
3630.187 -4318552 -4241287 -4149731 -4062326 -3991450 -3942299 -3913765 
3633.562 -3899448 -3891238 -3882996 -3871699 -3858300 -3846149 -3838595 
3636.937 -3837051 -3840040 -3844178 -3844868 -3839153 -3826640 -3809463 
3640.312 -3791792 -3778456 -3773102 -3778029 -3793697 -3819546 -3855377 
3643.688 -3900991 -3957698 -4026840 -4109756 -4206275 -4314287 -4429259 
3647.063 -4544659 -4653047 -4747478 -4822917 -4875965 -4905485 -4910956 
3650.438 -4892904 -4852866 -4794047 -4722274 -4645671 -4572726 -4513246 
3653.813 -4474911 -4463040 -4477928 -4514427 -4561611 -4605053 -4631673 
3657.188 -4634001 -4611281 -4569250 -4516361 -4461433 -4411417 -4370842 
3660.564 -4341614 -4324228 -4318290 -4323211 -4338695 -4364118 -4398395 
3663.939 -4439722 -4485373 -4532593 -4579381 -4624723 -4669240 -4715162 
3667.314 -4766060 -4824817 -4893133 -4968743 -5044438 -5109118 -5150376 
3670.689 -5160297 -5139112 -5096936 -5048958 -5013684 -5007330 -5040050 
3674.065 -5112294 -5212257 -5316747 -5395457 -5425923 -5402297 -5336385 
3677.440 -5249054 -5159675 -5081970 -5020234 -4972183 -4931955 -4894280 
3680.815 -4856503 -4820951 -4792409 -4776023 -4774844 -4788280 -4812660 
3684.190 -4842938 -4875801 -4911022 -4951152 -5000484 -5062615 -5136559 
3687.566 -5216676 -5292263 -5351080 -5384363 -5389174 -5368654 -5329970 
3690.941 -5280413 -5224959 -5167304 -5109543 -5053772 -5002744 -4959604 
3694.316 -4926845 -4905452 -4894739 -4892118 -4894116 -4897950 -4903028 
3697.691 -4910759 -4924322 -4946599 -4979815 -5023116 -5073062 -5123198 
3701.067 -5166322 -5195756 -5207510 -5200798 -5178338 -5145203 -5107349 
3704.442 -5070901 -5041163 -5022527 -5018204 -5029766 -5057408 -5099654 
3707.817 -5154011 -5216710 -5283425 -5349836 -5411819 -5464828 -5504254 
3711.192 -5525683 -5525421 -5501081 -5453540 -5386719 -5306894 -5222275 
3714.568 -5141208 -5070180 -5014666 -4977457 -4958458 -4955869 -4965730 
3717.943 -4983484 -5005397 -5028848 -5053052 -5078368 -5105745 -5135052 
3721.318 -5165241 -5193988 -5218608 -5237792 -5251738 -5262443 -5272885 
3724.693 -5286076 -5302443 -5319528 -5332424 -5334813 -5321820 -5292361 
3728.069 -5250461 -5205055 -5166879 -5146643 -5152374 -5186949 -5247057 
3731.444 -5323816 -5405733 -5481810 -5545704 -5597323 -5639909 -5676964 
3734.819 -5707508 -5725396 -5720948 -5686612 -5620481 -5529609 -5427199 
3738.194 -5328268 -5243881 -5180663 -5139964 -5119989 -5118942 -5138032 
3741.570 -5182529 -5260871 -5379552 -5537133 -5716566 -5883243 -5996166 
3744.945 -6024237 -5965413 -5844113 -5698973 -5565397 -5467282 -5417611 
3748.320 -5416106 -5452820 -5509979 -5569650 -5617079 -5644979 -5651978 
3751.695 -5638830 -5605043 -5549335 -5471536 -5374709 -5266370 -5157154 
3755.071 -5058521 -4979291 -4925600 -4898998 -4897032 -4914690 -4945256 
3758.446 -4982894 -5021512 -5055541 -5079350 -5087340 -5076370 -5047255 
3761.821 -5005299 -4958916 -4918196 -4892183 -4885172 -4897294 -4922881 
3765.196 -4953806 -4981944 -5002678 -5016107 -5026130 -5037855 -5054264 
3768.572 -5075093 -5095986 -5110395 -5111836 -5096903 -5066741 -5026588 
3771.947 -4983549 -4944437 -4914658 -4896573 -4889988 -4892838 -4902667 
3775.322 -4917213 -4935952 -4960095 -4992197 -5034220 -5086554 -5145858 
3778.697 -5204596 -5253342 -5282345 -5285553 -5263719 -5223421 -5175391 
3782.073 -5130468 -5097656 -5080464 -5077746 -5083738 -5091663 -5094905 
3785.448 -5089797 -5076697 -5057965 -5037397 -5017614 -5000320 -4985842 
3788.823 -4974083 -4965173 -4959800 -4958359 -4961013 -4967269 -4975884 
3792.198 -4985449 -4995669 -5007755 -5024492 -5049351 -5084721 -5130468 
3795.573 -5183217 -5235861 -5280348 -5311182 -5326893 -5331541 -5333243 
3798.949 -5342178 -5367182 -5411721 -5472092 -5535334 -5583388 -5598402 
3802.324 -5571678 -5507166 -5420458 -5331279 -5258547 -5216676 -5211177 
3805.699 -5238905 -5285520 -5330722 -5354746 -5344796 -5301068 -5234224 
3809.074 -5159970 -5091893 -5038772 -5002744 -4981027 -4968645 -4961635 
3812.450 -4960063 -4968154 -4992917 -5040606 -5113211 -5204432 -5299726 
3815.825 -5377982 -5421146 -5420883 -5382367 -5320903 -5256092 -5206691 
3819.200 -5184886 -5194512 -5228790 -5272328 -5304112 -5305454 -5269252 
3822.575 -5200143 -5112589 -5023412 -4947319 -4893854 -4865710 -4859976 
3825.951 -4869641 -4885630 -4900275 -4909514 -4913577 -4915837 -4920850 
3829.326 -4931955 -4950235 -4974115 -5000189 -5024165 -5042670 -5053772 
3832.701 -5057965 -5057440 -5055868 -5057899 -5068051 -5090157 -5126669 
3836.076 -5177061 -5236712 -5297271 -5348363 -5379716 -5384789 -5363647 
3839.452 -5321918 -5268989 -5214712 -5167403 -5131843 -5108397 -5094447 
3842.827 -5085081 -5074471 -5057146 -5029864 -4992131 -4946402 -4897294 
3846.202 -4851129 -4813447 -4788869 -4779595 -4786084 -4807352 -4842938 
3849.577 -4894444 -4965730 -5064089 -5196575 -5366724 -5567851 -5779249 
3852.953 -5966197 -6087333 -6115267 -6047928 -5908314 -5729777 -5543676 
3856.328 -5371927 -5224959 -5106367 -5015780 -4951087 -4910465 -4892576 
3859.703 -4896017 -4918196 -4955280 -5001761 -5051447 -5099294 -5141601 
3863.078 -5175883 -5200143 -5211406 -5206233 -5181678 -5138588 -5083018 
3866.454 -5026294 -4982370 -4965271 -4984008 -5039788 -5122478 -5213239 
3869.829 -5286895 -5322965 -5313833 -5266469 -5197426 -5125032 -5064449 
3873.204 -5023379 -5000942 -4990854 -4983451 -4971200 -4951087 -4925567 
3876.579 -4901488 -4887465 -4890840 -4916067 -4963109 -5026851 -5097198 
3879.955 -5160952 -5205611 -5222602 -5210587 -5174933 -5127488 -5082461 
3883.330 -5052364 -5046535 -5067233 -5108855 -5158300 -5198212 -5214319 
3886.705 -5199488 -5157482 -5099457 -5040606 -4994457 -4970643 -4972183 
3890.080 -4995112 -5029078 -5060191 -5076239 -5069361 -5039689 -4992917 
3893.456 -4938409 -4885434 -4840841 -4808925 -4791065 -4787329 -4796800 
3896.831 -4818460 -4852080 -4896213 -4948531 -5005495 -5062189 -5113899 
3900.206 -5157645 -5193039 -5221522 -5246729 -5270823 -5294620 -5315175 
3903.581 -5327613 -5326369 -5307811 -5271248 -5219885 -5159479 -5096805 
3906.957 -5036807 -4983124 -4936968 -4897851 -4864334 -4835336 -4809908 
3910.332 -4787722 -4768518 -4752361 -4738891 -4728436 -4721422 -4719161 
3913.707 -4723684 -4736564 -4759014 -4790148 -4827144 -4865644 -4900636 
3917.082 -4927435 -4943683 -4949154 -4945616 -4935592 -4921571 -4905223 
3920.458 -4887924 -4870985 -4856044 -4845428 -4841430 -4845788 -4858535 
3923.833 -4877276 -4897720 -4914592 -4923765 -4922979 -4913053 -4897294 
3927.208 -4880454 -4866463 -4858436 -4857322 -4862597 -4872689 -4886089 
3930.583 -4901389 -4917836 -4934445 -4949875 -4961930 -4968842 -4968187 
3933.958 -4959997 -4945256 -4926583 -4907320 -4890840 -4878750 -4871542 
3937.334 -4868233 -4867086 -4866431 -4865710 -4865415 -4866693 -4870985 
3940.709 -4879012 -4890185 -4902864 -4914134 -4921308 -4922619 -4917672 
3944.084 -4907680 -4895558 -4884484 -4877603 -4876981 -4883567 -4896770 
3947.459 -4914199 -4932873 -4949351 -4961078 -4965926 -4963568 -4954625 
3950.835 -4940309 -4922128 -4901750 -4880355 -4858895 -4838383 -4820263 
3954.210 -4805811 -4796440 -4792638 -4794604 -4800896 -4809744 -4818657 
3957.585 -4825636 -4829241 -4829012 -4825636 -4820361 -4814987 -4810629 
3960.960 -4808728 -4809744 -4813709 -4820197 -4828651 -4838121 -4847754 
3964.336 -4856535 -4863908 -4869347 -4872820 -4874557 -4875080 -4875080 
3967.711 -4874982 -4875277 -4875998 -4877177 -4878292 -4879111 -4878554 
3971.086 -4876260 -4871378 -4863810 -4853489 -4841234 -4827832 -4814725 
3974.461 -4802993 -4793457 -4786510 -4781693 -4778710 -4776810 -4775794 
3977.837 -4775761 -4777137 -4780316 -4785363 -4791819 -4799061 -4805713 
3981.212 -4809940 -4811087 -4808925 -4803911 -4797455 -4791524 -4787722 
3984.587 -4787264 -4790639 -4796996 -4805156 -4813381 -4819771 -4823540 
3987.962 -4823998 -4821180 -4815544 -4807712 -4798176 -4787592 -4776580 
3991.338 -4765667 -4755835 -4748101 -4743086 -4741349 -4742660 -4746823 
3994.713 -4752722 -4759670 -4766945 -4774122 -4780972 -4786903 -4791819 
3998.088 -4795325 -4796603 -4795161 -4791360 -4785330 -4778317 
##END=
