##TITLE=1731o_3_b
##JCAMP-DX=5.01  $$ Nicolet v. 1
##DATATYPE=INFRARED SPECTRUM
##ORIGIN=UniL
##OWNER=Nicolet
##LONGDATE=2011/09/29
##TIME=14:50:48
##SPECTROMETER/DATA SYSTEM=Nicolet iS5
##DATA PROCESSING=
Ratio against background
%Transmittance->Absorbance
Truncated
ElementMultiply or ElementDivide
##COMMENTS=
Number of sample scans: 32
Collection length: 51.21 sec
Sample gain: 2.0
Background collected on: Jeu Sep 29 14:47:48 2011 (GMT+02:00);
Number of background scans: 32
Background gain: 2.0
Sample spacing:  1.000
Number of scan points: 12415
Resolution points: 8192
Number of FFT points: 65536
Apodization: N-B fort;
Phase correction: Mertz;
Laser frequency: 15798.0 cm-1
Number of rejected sample scans: 0
Number of rejected background scans: 0
Bench serial number: ASB1000141;
##RESOLUTION=4.000
##XUNITS=1/CM
##YUNITS=ABSORBANCE
##FIRSTX=649.893372
##LASTX=4000.122314
##FIRSTY=0.113133
##MAXX=4000.122314
##MINX=649.893372
##MAXY=0.280124
##MINY=-0.001984
##XFACTOR=1.000000
##YFACTOR=1.000000E-009
##NPOINTS=6950
##DELTAX=0.482117
##ZPD=6100
##XYDATA=(X++(Y..Y))
649.893 113132744 112482736 111911456 111427264 111019832 110670384 
652.786 110362472 110089992 109857424 109672352 109535672 109436888 
655.679 109355264 109270368 109171176 109062080 108959568 108883400 
658.571 108844360 108837592 108842104 108829632 108777656 108673688 
661.464 108521536 108334312 108130768 107927656 107736696 107563656 
664.357 107407648 107260224 107100184 106892336 106585696 106123344 
667.250 105472672 104663008 103796648 103000016 102357640 101876984 
670.142 101509848 101183808 100831688 100411120 99907864 99338552 98737552 
673.517 98143976 97582488 97056696 96552480 96050664 95538896 95017672 
676.892 94498272 93994168 93511448 93044864 92580672 92104424 91610056 
680.267 91104064 90602424 90123128 89678456 89270208 88891384 88531488 
683.642 88182616 87844360 87521440 87220472 86944280 86690560 86452352 
687.016 86224616 86006376 85803696 85625336 85478504 85362416 85267208 
690.391 85175768 85072328 84947656 84804360 84654536 84515888 84403960 
693.766 84326672 84283624 84268536 84274080 84295408 84331048 84380912 
697.141 84441880 84506112 84561504 84594512 84595880 84564240 84506672 
700.516 84435072 84362272 84297736 84245480 84205656 84177096 84160008 
703.890 84155704 84165240 84186152 84210520 84226376 84220984 84185464 
707.265 84118584 84026904 83923256 83823016 83738832 83682912 83667160 
710.640 83705080 83813896 84010456 84304296 84690424 85143560 85618352 
714.015 86053184 86389768 86581632 86606104 86467472 86191152 85814960 
717.390 85377136 84917072 84477008 84104472 83862808 83823704 84050984 
720.765 84582280 85399728 86418392 87476248 88367384 88883128 88842760 
724.139 88155408 86834400 85001568 82846624 80591408 78442352 76536576 
727.514 74943352 73663400 72653696 71851656 71197760 70651248 70185328 
730.889 69785536 69441512 69141704 68873120 68625080 68390440 68167992 
734.264 67960336 67771296 67602040 67450456 67312168 67182808 67060484 
737.639 66946512 66843816 66756056 66684812 66629760 66588820 66559620 
741.013 66540384 66530080 66526636 66527872 66530192 66530192 66526560 
744.388 66521152 66519148 66526176 66546252 66578084 66615396 66647224 
747.763 66662484 66654100 66621424 66570512 66512272 66459560 66421568 
751.138 66403308 66404620 66421872 66448904 66479912 66510500 66538028 
754.513 66562244 66584996 66610256 66643632 66690684 66755980 66842080 
757.888 66948100 67070888 67205864 67348960 67497640 67651952 67814752 
761.262 67991104 68187376 68410616 68668240 68966480 69312528 69716552 
764.637 70194864 70777624 71511696 72455080 73673408 75213984 77080344 
768.012 79203816 81429880 83532792 85222896 86225584 86336528 85468256 
771.387 83686440 81195608 78303488 75324504 72538952 70142720 68219824 
774.762 66767768 65719792 64986540 64474872 64108036 63832684 63607188 
778.136 63399204 63182816 62935592 62643340 62301484 61914352 61492476 
781.511 61047252 60589952 60129896 59675956 59239124 58830916 58463504 
784.886 58146360 57884264 57677460 57523628 57420676 57369476 57374468 
788.261 57441932 57578176 57787512 58071248 58429272 58862408 59373768 
791.636 59970552 60663252 61463844 62387008 63447596 64662488 66052652 
795.010 67642152 69459320 71537984 73913352 76625144 79718816 83243168 
798.385 87255224 91818240 96992232 102828216 109345544 116511192 124200256 
801.760 132171256 140070256 147395744 153576160 158057632 160361744 
804.653 160235248 157705424 153106400 146993824 140036128 132893968 
807.546 126036600 119711424 113926232 108512344 103215584 97805928 92172104 
810.920 86342112 80474464 74784624 69502320 64802328 60773188 57429904 
814.295 54723928 52574776 50887552 49574840 48563416 47788932 47200220 
817.670 46756856 46427132 46191468 46039076 45964736 45964296 46031300 
821.045 46155688 46327032 46536396 46779512 47057624 47374496 47734044 
824.420 48137944 48585836 49076884 49612356 50197912 50843112 51559332 
827.794 52359004 53254004 54256828 55385040 56662752 58124544 59817964 
831.169 61797668 64125432 66862100 70050512 73700736 77760600 82102960 
834.544 86491856 90585440 93990632 96274760 97074344 96186304 93605656 
837.919 89551144 84401512 78648608 72769136 67154264 62095696 57742888 
841.294 54135276 51231904 48947244 47177652 45818608 44782420 43993120 
844.669 43388512 42924072 42567200 42298304 42107548 41989208 41936616 
848.043 41940484 41987564 42064432 42161836 42276428 42411068 42571624 
851.418 42763536 42988160 43242804 43522468 43823500 44145348 44492068 
854.793 44870036 45285808 45744824 46251248 46810216 47430296 48124916 
858.168 48913092 49818476 50866468 52086780 53513472 55183520 57139060 
861.543 59416088 62031560 64963916 68136472 71409672 74569728 77368864 
864.917 79550928 80885224 81228488 80539840 78897360 76475328 73525816 
868.292 70336416 67164320 64231560 61691408 59619852 58036104 56912816 
871.667 56198124 55826076 55730456 55851584 56129948 56511844 56948212 
875.042 57393108 57812796 58188372 58519004 58822116 59129728 59481592 
878.417 59912468 60443844 61073412 61770928 62475880 63102848 63562608 
881.792 63768364 63661232 63225476 62492640 61539432 60466732 59389800 
885.166 58408044 57590660 56976584 56572156 56361712 56317236 56410116 
888.541 56614736 56909532 57277672 57704552 58177312 58686236 59226060 
891.916 59796744 60401384 61045764 61734908 62472092 63258856 64096012 
895.291 64984196 65922828 66907400 67927320 68961232 69979888 70949136 
898.666 71833080 72603640 73242592 73742664 74106584 74343736 74469104 
902.040 74500064 74458608 74371496 74266912 74175792 74128192 74149224 
905.415 74261760 74485704 74837912 75335224 75992456 76820696 77827104 
908.790 79013440 80378008 81917912 83632208 85523768 87597768 89859432 
912.165 92310392 94946992 97762064 100748776 103906824 107247464 110795104 
915.540 114584320 118650792 123024504 127717432 132715464 137965424 
918.432 143364800 148759984 153920032 158554544 162341856 164940688 
921.325 166080800 165621536 163604608 160276432 156072400 151591360 
924.218 147460320 144294672 142615232 142734880 144742960 148450784 
927.110 153430464 159008496 164364624 168715744 171367184 171892512 
930.003 170194304 166472000 161136352 154662608 147521664 140071920 
932.896 132549208 125106288 117833984 110807296 104115560 97857064 92137568 
936.271 87059256 82695808 79096632 76284632 74257552 72994160 72451008 
939.646 72561464 73219720 74278000 75560712 76855376 77948848 78660640 
943.020 78849400 78446920 77460896 75971104 74108696 72030048 69901312 
946.395 67859216 66004440 64398164 63059820 61980460 61132948 60485924 
949.770 60008140 59672308 59457124 59341820 59306232 59332328 59403664 
953.145 59509484 59645048 59810852 60010312 60246624 60520432 60829936 
956.520 61172200 61544700 61946676 62378940 62841536 63333072 63849300 
959.894 64384060 64932360 65491416 66061840 66646488 67248136 67866808 
963.269 68499056 69138752 69780048 70420312 71061160 71708120 72367472 
966.644 73044368 73740704 74455496 75187232 75935472 76702392 77492576 
970.019 78310584 79159208 80039240 80949968 81891296 82866152 83880136 
973.394 84940680 86054000 87222824 88445656 89718016 91035984 92397688 
976.768 93805008 95261080 96767768 98323080 99919960 101547608 103194488 
980.143 104851480 106511632 108170120 109820688 111453856 113057512 
983.036 114618704 116126728 117575944 118964120 120289296 121545360 
985.929 122718344 123786808 124727704 125520352 126153704 126628728 
988.821 126957920 127162096 127265976 127298760 127292184 127279344 
991.714 127297656 127381120 127556864 127841768 128238800 128738824 
994.607 129325584 129983040 130698400 131464664 132278368 133135752 
997.500 134029688 134950032 135884912 136824944 137766032 138707856 
1000.392 139651344 140593952 141526432 142433968 143300272 144111328 
1003.285 144861728 145554720 146201424 146816736 147417184 148021696 
1006.178 148650656 149330064 150091744 150967456 151986800 153170608 
1009.070 154527328 156053424 157736624 159561088 161507456 163553184 
1011.963 165671168 167823280 169963712 172046256 174029104 175888352 
1014.856 177621776 179247792 180795776 182294720 183765984 185217120 
1017.748 186646288 188048688 189425008 190786608 192158016 193573568 
1020.641 195078160 196726224 198574672 200688000 203128880 205947888 
1023.534 209180208 212835200 216897856 221330736 226084368 231107648 
1026.427 236344816 241738304 247219200 252691440 258038224 263120000 
1029.320 267781168 271877184 275272832 277845888 279494464 280124480 
1032.213 279658176 278050400 275298432 271457760 266636288 260993296 
1035.106 254715984 247994208 241029536 234016848 227140528 220592240 
1037.999 214546464 209155456 204552256 200827776 198034720 196186960 
1040.892 195255824 195165344 195778176 196902224 198268352 199536848 
1043.785 200355984 200367632 199282128 196942640 193335184 188601312 
1046.678 182990320 176834784 170477552 164217488 158311216 152931792 
1049.571 148174688 144074528 140611168 137729712 135352304 133398208 
1052.464 131790592 130461320 129359048 128441792 127672704 127018168 
1055.357 126440672 125899496 125357048 124777112 124130928 123398840 
1058.250 122567392 121630240 120588104 119450520 118238152 116982488 
1061.144 115728336 114524880 113421200 112463760 111687456 111116840 
1064.037 110766072 110638192 110723952 110998616 111421608 111931000 
1066.930 112446672 112885464 113163616 113214736 113001976 112518016 
1069.823 111784784 110843128 109747168 108551480 107302776 106040304 
1072.716 104789512 103562960 102362920 101183520 100015352 98850864 97688824 
1076.091 96537744 95416128 94348744 93363120 92485048 91732776 91116944 
1079.466 90639696 90295152 90069752 89942128 89885920 89867704 89852224 
1082.842 89809680 89717848 89570200 89376240 89162056 88962664 88816616 
1086.217 88763648 88836336 89061168 89459368 90044112 90822544 91793720 
1089.592 92948816 94271712 95741704 97339272 99047648 100853424 102744792 
1092.967 104702344 106692304 108665168 110550568 112270024 113752600 
1095.860 114944152 115827264 116425496 116808544 117076456 117346104 
1098.753 117732776 118315512 119120584 120102400 121148448 122082808 
1101.646 122693992 122790264 122219328 120910312 118886512 116259568 
1104.540 113205752 109921480 106612592 103453456 100569512 98045344 95916880 
1107.915 94182960 92814920 91768056 90989656 90422648 90015784 89722456 
1111.290 89500648 89315384 89133824 88924032 88658672 88313256 87870880 
1114.665 87325432 86680648 85950312 85152592 84309328 83441560 82567072 
1118.041 81702776 80862432 80057056 79294928 78579672 77910232 77281448 
1121.416 76686464 76118936 75574792 75052864 74552144 74069056 73594576 
1124.791 73112632 72601448 72040328 71412408 70712152 69946456 69135752 
1128.166 68310016 67501120 66741332 66055164 65456508 64948716 64524344 
1131.542 64167528 63856096 63566872 63278980 62977112 62655324 62317508 
1134.917 61976944 61651880 61363008 61129440 60964736 60876212 60864548 
1138.292 60924016 61043096 61205080 61390828 61577880 61744344 61871896 
1141.667 61946332 61959860 61910756 61801220 61635956 61420792 61162320 
1145.042 60867788 60546488 60209932 59870596 59540988 59232780 58954428 
1148.418 58712176 58510096 58351228 58238496 58174620 58161056 58197616 
1151.793 58281236 58406872 58567724 58757352 58970824 59204412 59455756 
1155.168 59722564 60001860 60290172 60583396 60877888 61170368 61457812 
1158.543 61736132 62000640 62244464 62460576 62642536 62785364 62886112 
1161.919 62943100 62954396 62916368 62823652 62669216 62446036 62149144 
1165.294 61775820 61326184 60802760 60209780 59552956 58840060 58081780 
1168.669 57291204 56483808 55676400 54884104 54120040 53394976 52716540 
1172.044 52091524 51526688 51029136 50606492 50265872 50012056 49848280 
1175.420 49776040 49796292 49912056 50129108 50455704 50902564 51480540 
1178.795 52199496 53068224 54094520 55286620 56654524 58209056 59961880 
1182.170 61924244 64104848 66508988 69136768 71980960 75020264 78212544 
1185.545 81493232 84762504 87890312 90733064 93130704 94937440 96040824 
1188.921 96365880 95892496 94653496 92733280 90251144 87347024 84173000 
1192.296 80863704 77535552 74283424 71172312 68248944 65544664 63077600 
1195.671 60858868 58892576 57176328 55700808 54449580 53401160 52528068 
1199.046 51800392 51189260 50665504 50203564 49781652 49380636 48986488 
1202.422 48590468 48189444 47786344 47388760 47006820 46650156 46325704 
1205.797 46036752 45782892 45561236 45368376 45202040 45060948 44944848 
1209.172 44853392 44786352 44743560 44726260 44737900 44784548 44873896 
1212.547 45014708 45213952 45476272 45803732 46196260 46653144 47172552 
1215.923 47751836 48385964 49066164 49780984 50516000 51256852 51992168 
1219.298 52714516 53421056 54112684 54792636 55465900 56138656 56819072 
1222.673 57517724 58245844 59015652 59836864 60713852 61645156 62622944 
1226.048 63633688 64658604 65676772 66665804 67602736 68469528 69255288 
1229.424 69961520 70604424 71216392 71844264 72538520 73354104 74340552 
1232.799 75537096 76976296 78682640 80674152 82965888 85568192 88486600 
1236.174 91719928 95260624 99095096 103202680 107558136 112127680 116864352 
1239.549 121711272 126599000 131450520 136197376 140782816 145169872 
1242.442 149341920 153294864 157026400 160526464 163767584 166700624 
1245.335 169257696 171345888 172856880 173678736 173696384 172816576 
1248.229 170981760 168175392 164427216 159804352 154402304 148327856 
1251.122 141696656 134635264 127270640 119741320 112193056 104759528 
1254.015 97569720 90735352 84337856 78439368 73075496 68255576 63969300 
1257.390 60188316 56872400 53971704 51433392 49206376 47239080 45486832 
1260.765 43912352 42484396 41181244 39988176 38895480 37896916 36987588 
1264.140 36162332 35416316 34744296 34141628 33603908 33126462 32703444 
1267.516 32328274 31993516 31692698 31422078 31181032 30972106 30799988 
1270.891 30669790 30585452 30550044 30566468 30638606 30773206 30979828 
1274.266 31268940 31650464 32130216 32706730 33368304 34090552 34838348 
1277.641 35563268 36207564 36715056 37033052 37125868 36981744 36614972 
1281.017 36063348 35377960 34618004 33836308 33072538 32354440 31695336 
1284.392 31100190 30569596 30102326 29697322 29352496 29064942 28830688 
1287.767 28646074 28509158 28420252 28381306 28394254 28458566 28570692 
1291.142 28723946 28910648 29124394 29361216 29619310 29897150 30192108 
1294.518 30498538 30809772 31120480 31429414 31741638 32067996 32424338 
1297.893 32826856 33290918 33830220 34455448 35174948 35993364 36907212 
1301.268 37900604 38940672 39979852 40954312 41795044 42441648 42845148 
1304.643 42981540 42852096 42483516 41921800 41223724 40454608 39674796 
1308.019 38935996 38279500 37729404 37294772 36971244 36746032 36601852 
1311.394 36521508 36492316 36504680 36551208 36625284 36718700 36822628 
1314.769 36929108 37032364 37129876 37221952 37310044 37394396 37473420 
1318.144 37544292 37604664 37654420 37696700 37736416 37778416 37824796 
1321.520 37873740 37919768 37955892 37976392 37978600 37963628 37935748 
1324.895 37901904 37870524 37851400 37857256 37903064 38004168 38175368 
1328.270 38426588 38760184 39171268 39648876 40180620 40754208 41360772 
1331.645 41993512 42644868 43305364 43961260 44595780 45192736 45738016 
1335.021 46221984 46640416 46992348 47279572 47504696 47672512 47790116 
1338.396 47867280 47917784 47956080 47994824 48043336 48106336 48185704 
1341.771 48284228 48408112 48568828 48783724 49071656 49451808 49941388 
1345.146 50553036 51295552 52172668 53181044 54304472 55508216 56739056 
1348.521 57920116 58959328 59767200 60260784 60382916 60111900 59462824 
1351.897 58487688 57263948 55892620 54476960 53111920 51880736 50839872 
1355.272 50019900 49426228 49043568 48842972 48788948 48849792 48997316 
1358.647 49208936 49467852 49759728 50074296 50407776 50764748 51160516 
1362.022 51616384 52155968 52793160 53524452 54323548 55144092 55925596 
1365.398 56594276 57076520 57302132 57210004 56764956 55964680 54848196 
1368.773 53487720 51981488 50435760 48938084 47555564 46325668 45258080 
1372.148 44345736 43574884 42935192 42423524 42043192 41797672 41682516 
1375.523 41683208 41778556 41945560 42169212 42446284 42786864 43211584 
1378.899 43750276 44441708 45329976 46467104 47907980 49693336 51832536 
1382.274 54276240 56910664 59543456 61926004 63803748 64920932 65077640 
1385.649 64169332 62217736 59396028 55998376 52403188 48956000 45900212 
1389.024 43362260 41352096 39809940 38643552 37761572 37084616 36548400 
1392.400 36107596 35728828 35390796 35084344 34810276 34576528 34392248 
1395.775 34262476 34184824 34151164 34150052 34171916 34213072 34277428 
1399.150 34375968 34522352 34729224 35002988 35342052 35738256 36179256 
1402.525 36650448 37136912 37626560 38109344 38577316 39023892 39442556 
1405.901 39827372 40175164 40487776 40774188 41048988 41330816 41637036 
1409.276 41979204 42361676 42781192 43231388 43706156 44203748 44727212 
1412.651 45281688 45871560 46497712 47157744 47849152 48572608 49335348 
1416.026 50151908 51042888 52031124 53134688 54359596 55689208 57080300 
1419.402 58464676 59763172 60904916 61834344 62519960 62955432 63159748 
1422.777 63182936 63103036 63024880 63049740 63253380 63670368 64291760 
1426.152 65082832 66003704 67027508 68142056 69345376 70638928 72021872 
1429.527 73493432 75059088 76738488 78563120 80563728 82759336 85145128 
1432.903 87696936 90376824 93155432 96025200 98996624 102092664 105325264 
1436.278 108675424 112081440 115462328 118751832 121913600 124937328 
1439.171 127814416 130519536 132989184 135120912 136796800 137883856 
1442.064 138260848 137839936 136567360 134442096 131521032 127931360 
1444.957 123856560 119507232 115116800 110892312 106997752 103550256 
1447.850 100598416 98124080 96045704 94250832 92620896 91062952 89537664 
1451.225 88064336 86716096 85584576 84753568 84260408 84081592 84132584 
1454.601 84283624 84390808 84308200 83942840 83298360 82499232 81745088 
1457.976 81223976 81062928 81307432 81953440 82975632 84336608 85986624 
1461.351 87853440 89848672 91852712 93714016 95274496 96374776 96900736 
1464.726 96823544 96212896 95215912 93997384 92712192 91473872 90351208 
1468.102 89386616 88593328 87957536 87435192 86953960 86422312 85744680 
1471.477 84862040 83782672 82601648 81468840 80539240 79923008 79661448 
1474.852 79748792 80155872 80850056 81799288 82967296 84309608 85765312 
1478.227 87261544 88725520 90083536 91277056 92271296 93058248 93661800 
1481.603 94131688 94540280 94965880 95490432 96202840 97191080 98543400 
1484.978 100337136 102615816 105367072 108496136 111832616 115113600 
1487.871 118005784 120159808 121220448 120906104 119084056 115807704 
1490.764 111327400 106010112 100260448 94407544 88660256 83139552 77886520 
1494.139 72915064 68261928 63994868 60220892 57064576 54624420 52943224 
1497.514 51998180 51725436 52041992 52867848 54135764 55781992 57739408 
1500.890 59937952 62294104 64716868 67117528 69387208 71400960 73008152 
1504.265 73997264 74109880 73069344 70673000 66939204 62197548 57011796 
1507.640 51921624 47258180 43112444 39426952 36104320 33070214 30288592 
1511.015 27761260 25505722 23530950 21830674 20380008 19145070 18091320 
1514.391 17189052 16413648 15740348 15145453 14609862 14123636 13690749 
1517.766 13324160 13036472 12828894 12686265 12577175 12466680 12329454 
1521.141 12166338 12006145 11891607 11852685 11891165 11983971 12096591 
1524.516 12201403 12284664 12352975 12425797 12525436 12662521 12831897 
1527.892 13017284 13202784 13381632 13559288 13748440 13960804 14199016 
1531.267 14454246 14708838 14944958 15155471 15351189 15557676 15799962 
1534.642 16090862 16424246 16781822 17141380 17486128 17809262 18111046 
1538.017 18396032 18666886 18918528 19139112 19316820 19452910 19563014 
1541.393 19669748 19790412 19926204 20063110 20178818 20255914 20288514 
1544.768 20288410 20278134 20282334 20315526 20377194 20455092 20534080 
1548.143 20605020 20670206 20743392 20842664 20982296 21164236 21378798 
1551.518 21610076 21845518 22081576 22324808 22587442 22880796 23208356 
1554.894 23563518 23932448 24298750 24649718 24974546 25262738 25504280 
1558.269 25691890 25830802 25942428 26062034 26218594 26421334 26662254 
1561.644 26921710 27176416 27402650 27583702 27713332 27797818 27854764 
1565.019 27906136 27969458 28049542 28138052 28217426 28269546 28281358 
1568.395 28251016 28188538 28114016 28049930 28012820 28011228 28045266 
1571.770 28110302 28198828 28300596 28401682 28482376 28520092 28494864 
1575.145 28398498 28243662 28064140 27903592 27791848 27734134 27711954 
1578.520 27695920 27656580 27571414 27429756 27230070 26977412 26678568 
1581.896 26339580 25964552 25557026 25124218 24677566 24230812 23797782 
1585.271 23387038 23000192 22633448 22281698 21943194 21620800 21320814 
1588.646 21049172 20807904 20593660 20399836 20220854 20055580 19908164 
1592.021 19785454 19692838 19630470 19593032 19572442 19562044 19560726 
1595.396 19572928 19606584 19668014 19758996 19876564 20016334 20177220 
1598.772 20364832 20591436 20873154 21225574 21658624 22175610 22773864 
1602.147 23447780 24188490 24982862 25811320 26643194 27436356 28143780 
1605.522 28714282 29102922 29279296 29230102 28963952 28507390 27902462 
1608.897 27195994 26431546 25650480 24886710 24168348 23518498 22950586 
1612.273 22467218 22058776 21706862 21387708 21076578 20753090 20404004 
1615.648 20027578 19635912 19253778 18912712 18639666 18450722 18347848 
1619.023 18321510 18354174 18424518 18512126 18600066 18680306 18756690 
1622.398 18844434 18964074 19132360 19355862 19628666 19938136 20270912 
1625.774 20619544 20980696 21353042 21733024 22111628 22475488 22812414 
1629.149 23115566 23387142 23635864 23872724 24104212 24329306 24537688 
1632.524 24712918 24835940 24887938 24855448 24733858 24531834 24270998 
1635.899 23982622 23697972 23437148 23206468 22999422 22802498 22598088 
1639.275 22369528 22105246 21801862 21466796 21114840 20764872 20431058 
1642.650 20118182 19820168 19521252 19201446 18841010 18428424 17965498 
1646.025 17471054 16977310 16522191 16138075 15842572 15637290 15511557 
1649.400 15447519 15421529 15403780 15358055 15238889 15000517 14620417 
1652.776 14129044 13616210 13182803 12885720 12718131 12638096 12598288 
1656.151 12563498 12514626 12444585 12356248 12256511 12152163 12046478 
1659.526 11938264 11823403 11697305 11556919 11402155 11236395 11066076 
1662.901 10900071 10747205 10615409 10509860 10431521 10377085 10338773 
1666.277 10305792 10265045 10204049 10114166 9993310 9847406 9688982 9533899 
1670.134 9395158 9280358 9190938 9123223 9070169 9021858 8966720 8891464 
1673.991 8784845 8642220 8470719 8290301 8125150 7995330 7907049 7853942 
1677.849 7821217 7793587 7761103 7721774 7681774 7650781 7635977 7636078 
1681.706 7639282 7624377 7568370 7454558 7285884 7089489 6907322 6774465 
1685.564 6700868 6674824 6674926 6682126 6683337 6673142 6651608 6621867 
1689.421 6587855 6553476 6522968 6501004 6492394 6499726 6521622 6551054 
1693.279 6574366 6575543 6539718 6461856 6353141 6241631 6160898 6131493 
1697.136 6153001 6205397 6260354 6286171 6257934 6166880 6028404 5879896 
1700.993 5759844 5690548 5669432 5679604 5699948 5713444 5708979 5682223 
1704.851 5635730 5577428 5518296 5467694 5431188 5409448 5399786 5397404 
1708.708 5397706 5397740 5396767 5395995 5397807 5404449 5416561 5433101 
1712.566 5451353 5468600 5483196 5495343 5506316 5516685 5525242 5527592 
1716.423 5518497 5494772 5459607 5423640 5402034 5407100 5444374 5511249 
1720.281 5599949 5701056 5806484 5913013 6020643 6132837 6253799 6386395 
1724.138 6531107 6685861 6847503 7012606 7178513 7342090 7498987 7643497 
1727.995 7768861 7869866 7944708 7996343 8031173 8056016 8074514 8083560 
1731.853 8073029 8027832 7935766 7795713 7626333 7462513 7342865 7289422 
1735.710 7301856 7363827 7453615 7552591 7646701 7728756 7796657 7852322 
1739.568 7899492 7941604 7980616 8016526 8048354 8074750 8094532 8107022 
1743.425 8111377 8106550 8091595 8065400 8027258 7976363 7911875 7832789 
1747.282 7737660 7624613 7491942 7337575 7159750 6958125 6735024 6496228 
1751.140 6251883 6015066 5797620 5607602 5446857 5311026 5191130 5075660 
1754.997 4954187 4820151 4673597 4521333 4375549 4247480 4142930 4060213 
1758.855 3990585 3922473 3844243 3749216 3636400 3512190 3386746 3271320 
1762.712 3174316 3098656 3043430 3004426 2976668 2954650 2932699 2906080 
1766.570 2871124 2827532 2778110 2729060 2687250 2656278 2635043 2616975 
1770.427 2592675 2552778 2492923 2417282 2337790 2269205 2222410 2200163 
1774.284 2197266 2204792 2214117 2220745 2223842 2225740 2229071 2234266 
1778.142 2239662 2241593 2236797 2224908 2208322 2191938 2180316 2175320 
1781.999 2175221 2175554 2171957 2161834 2145784 2127004 2109890 2097871 
1785.857 2091944 2091378 2094807 2101533 2111821 2126471 2145318 2165697 
1789.714 2182880 2190639 2183413 2159103 2120844 2075997 2033184 1999796 
1793.572 1978160 1966976 1962283 1960486 1959421 1958422 1957357 1956159 
1797.429 1953796 1949036 1940682 1929533 1917818 1908633 1905305 1909198 
1801.286 1919682 1934925 1952331 1970272 1988379 2007252 2027259 2047932 
1805.144 2068439 2087283 2103830 2118214 2131632 2144752 2157572 2168327 
1809.001 2174654 2173889 2165464 2151012 2134130 2119579 2110556 2107992 
1812.859 2110456 2115018 2118580 2120378 2120811 2122043 2126971 2137326 
1816.716 2153709 2175753 2202594 2233833 2269338 2309009 2352515 2398357 
1820.573 2444738 2489390 2530981 2568510 2601542 2629842 2653311 2671814 
1824.431 2686916 2701519 2720324 2747966 2787080 2836871 2892871 2947411 
1828.288 2992849 3024278 3041829 3051238 3061482 3081537 3115876 3163602 
1832.146 3219444 3277296 3332686 3384242 3433533 3483865 3538145 3597075 
1836.003 3659857 3724752 3791095 3860156 3935680 4021652 4121489 4236204 
1839.861 4364169 4502283 4646770 4794388 4942558 5089304 5232847 5371774 
1843.718 5505544 5634858 5761960 5888125 6013219 6133408 6242336 6331523 
1847.575 6392751 6421434 6416525 6381587 6322580 6245295 6153202 6046211 
1851.433 5922821 5781837 5624620 5456453 5284897 5117231 4959081 4811675 
1855.290 4673831 4542661 4416384 4294928 4179997 4073290 3975303 3884326 
1859.148 3797379 3711953 3627012 3543791 3464994 3392891 3328312 3269852 
1863.005 3215038 3162467 3112339 3067255 3030417 3003959 2987411 2977102 
1866.863 2967727 2954716 2935868 2912918 2890369 2873058 2863452 2861585 
1870.720 2864653 2870056 2876427 2884065 2893938 2906147 2918656 2927529 
1874.577 2927862 2916521 2892637 2858650 2818428 2775509 2731094 2684149 
1878.435 2632476 2574843 2512585 2449636 2392227 2345486 2311874 2290322 
1882.292 2277165 2268105 2259879 2251485 2243392 2236464 2230137 2222709 
1886.150 2211453 2194635 2172623 2148082 2124740 2105495 2091478 2081224 
1890.007 2072334 2062547 2052060 2043138 2039376 2043504 2056221 2075730 
1893.865 2099202 2123774 2147715 2171624 2195967 2220645 2243925 2263076 
1897.722 2275200 2279530 2277698 2273201 2269637 2269271 2271469 2273601 
1901.579 2272469 2266573 2257114 2247622 2241660 2241060 2244691 2249187 
1905.437 2250686 2246689 2238163 2228838 2222743 2222476 2227739 2235365 
1909.294 2241860 2245024 2245490 2246289 2251519 2263342 2281395 2302780 
1913.152 2324399 2344320 2362975 2381932 2402989 2424879 2444138 2455567 
1917.009 2455334 2443438 2425012 2408219 2399890 2402422 2412384 2422280 
1920.866 2424546 2414950 2395425 2372803 2356712 2353614 2365174 2387296 
1924.724 2413450 2437274 2456534 2472795 2489790 2510685 2535447 2561177 
1928.581 2584209 2601908 2615142 2627309 2642577 2662679 2686049 2707387 
1932.439 2721424 2725725 2721958 2715990 2714523 2721958 2738329 2759536 
1936.296 2779777 2795450 2806556 2816660 2829867 2847410 2866187 2879295 
1940.154 2879462 2863352 2833336 2798552 2771107 2760470 2770974 2799652 
1944.011 2839906 2884832 2930297 2976501 3025613 3078234 3131895 3181025 
1947.868 3219177 3242978 3253694 3257633 3262273 3273958 3294723 3320799 
1951.726 3346609 3365909 3377196 3382038 3384709 3389017 3396530 3405647 
1955.583 3413629 3418538 3420608 3422111 3425918 3433700 3443686 3452503 
1959.441 3456945 3456945 3455809 3458715 3469971 3489777 3513660 3534537 
1963.298 3545828 3545327 3536441 3525952 3520641 3523814 3533468 3544091 
1967.156 3549570 3548200 3543122 3540984 3547499 3563968 3586318 3606898 
1971.013 3617957 3616353 3604593 3590360 3580939 3581440 3593200 3615685 
1974.870 3649432 3699923 3775018 3881718 4018843 4174945 4326887 4447749 
1978.728 4517316 4527025 4483100 4402125 4305101 4208568 4122392 4048407 
1982.585 3984767 3929394 3883691 3850227 3831842 3827061 3830404 3833580 
1986.443 3829435 3815529 3795307 3776188 3764523 3763053 3768634 3774316 
1990.300 3773347 3763654 3749016 3738822 3742498 3763320 3799485 3841201 
1994.157 3878074 3902146 3911206 3908732 3901076 3893754 3888773 3884828 
1998.015 3878375 3867778 3853503 3838627 3826995 3820008 3816866 3813691 
2001.872 3806772 3795307 3782171 3772846 3773447 3787084 3813089 3847185 
2005.730 3884627 3922306 3960557 4001085 4045932 4093893 4141994 4185316 
2009.587 4221081 4250959 4279401 4312162 4352957 4401254 4451765 4498366 
2013.445 4536533 4566970 4595834 4631398 4679827 4742597 4814757 4886997 
2017.302 4950434 4999568 5034361 5058429 5076096 5090444 5101574 5108849 
2021.159 5112705 5116091 5124573 5143349 5175404 5218091 5265378 5310556 
2025.017 5348829 5380932 5412031 5449038 5496048 5552022 5610724 5662752 
2028.874 5701996 5726807 5740774 5751887 5767869 5792885 5827707 5870762 
2032.732 5921108 5979154 6047589 6127527 6217396 6310511 6397391 6468616 
2036.589 6518225 6546109 6557849 6561516 6562222 6563265 6562928 6558589 
2040.447 6549137 6536153 6524784 6521118 6528854 6547051 6570363 6592094 
2044.304 6605685 6609150 6604776 6598990 6599562 6613187 6643971 6693129 
2048.161 6758278 6833837 6911530 6981594 7033248 7058033 7051871 7017893 
2052.019 6965129 6907086 6858241 6829730 6825355 6842723 6873321 6908534 
2055.876 6941460 6969977 6995365 7020283 7046045 7071201 7092217 7105992 
2059.734 7111246 7110371 7106868 7104477 7104275 7104038 7099222 7085784 
2063.591 7062176 7030722 6996544 6964186 6936510 6912607 6889042 6862381 
2067.448 6831380 6799034 6770124 6750235 6741182 6740744 6743336 6741956 
2071.306 6731221 6710257 6682395 6653156 6628427 6612212 6605921 6609083 
2075.163 6621497 6643130 6674320 6714530 6760936 6808694 6850936 6882175 
2079.021 6899781 6904763 6901128 6894428 6889277 6887965 6891095 6897424 
2082.878 6906749 6920081 6939002 6963883 6993985 7024998 7051702 7068676 
2086.736 7072818 7063860 7044395 7018263 6988597 6957486 6925333 6892610 
2090.593 6860395 6830875 6807011 6790990 6783687 6783351 6787355 6793515 
2094.450 6801020 6811521 6827341 6850027 6878640 6910049 6939339 6962570 
2098.308 6979405 6992133 7006309 7026816 7056922 7096393 7142773 7192324 
2102.165 7242555 7293027 7344550 7397933 7452839 7506269 7554513 7594198 
2106.023 7624714 7648218 7669363 7693510 7724270 7762688 7807621 7857147 
2109.880 7909851 7965800 8025740 8090177 8157696 8224382 8285067 8334782 
2113.738 8370857 8393557 8406191 8412880 8417474 8422473 8428115 8433825 
2117.595 8439839 8447069 8457812 8474706 8499776 8533296 8575233 8624339 
2121.452 8679435 8740014 8805234 8873101 8941351 9006466 9066278 9120482 
2125.310 9171885 9224950 9285131 9355749 9437010 9525669 9615770 9702195 
2129.167 9782403 9856795 9928759 10003211 10084119 10173284 10270982 
2132.542 10376406 10488407 10606106 10728457 10852914 10975368 11090209 
2135.918 11193044 11281077 11355693 11420048 11479206 11536707 11593194 
2139.293 11646012 11691689 11726545 11749353 11761473 11765388 11762835 
2142.668 11753439 11734852 11704045 11659626 11602280 11536026 11465462 
2146.043 11394162 11322225 11247412 11166254 11075899 10977543 10875269 
2149.419 10774309 10679485 10591880 10508739 10425140 10336602 10241093 
2152.794 10140213 10037458 9936218 9837680 9741399 9646530 9556389 9480254 
2156.651 9431862 9427935 9479305 9585655 9732623 9894691 10043764 10154696 
2160.509 10215685 10224131 10188208 10119219 10029692 9929540 9827139 
2163.884 9728353 9636638 9554086 9479407 9408127 9334488 9253449 9161190 
2167.741 9058497 8948387 8835226 8722367 8610517 8498796 8385956 8271997 
2171.599 8159520 8054362 7961919 7886366 7827930 7782928 7745384 7710374 
2175.456 7675400 7639181 7603538 7567865 7530070 7486818 7435008 7374375 
2179.314 7309673 7248754 7199331 7167295 7152642 7149745 7149274 7143009 
2183.171 7125797 7096831 7059482 7017657 6973782 6928565 6879852 6826869 
2187.029 6770763 6714665 6662981 6618940 6583886 6555864 6532352 6510388 
2190.886 6490241 6473392 6463336 6461688 6467876 6478470 6488762 6494916 
2194.743 6495085 6490511 6484490 6479983 6478335 6478638 6478773 6476620 
2198.601 6471273 6463168 6454222 6445243 6436634 6427453 6416659 6404553 
2202.458 6392583 6384008 6381352 6385756 6396080 6409059 6420661 6427487 
2206.316 6428697 6423855 6414070 6399778 6380377 6355193 6325505 6294038 
2210.173 6266338 6249026 6247446 6263245 6294138 6333910 6374862 6411010 
2214.031 6438920 6458157 6470600 6478739 6484221 6488257 6491688 6495455 
2217.888 6501811 6512978 6529964 6552030 6576047 6597174 6611808 6618200 
2221.745 6616383 6609251 6600201 6590917 6582305 6573289 6562962 6551323 
2225.603 6539281 6527643 6516745 6505747 6491957 6473627 6450623 6425436 
2229.460 6403444 6390195 6389489 6401560 6422947 6447429 6469692 6487282 
2233.318 6500802 6514458 6531746 6554956 6583347 6614096 6643365 6669374 
2237.175 6692052 6713756 6736538 6761475 6787692 6813036 6835385 6854336 
2241.032 6871470 6888941 6908702 6930282 6950651 6965735 6972334 6970516 
2244.890 6964287 6959708 6963209 6978732 7005939 7040791 7077095 7109529 
2248.747 7134958 7152844 7165038 7173729 7180433 7185553 7188753 7190909 
2252.605 7192796 7196299 7202599 7211122 7218972 7222307 7217355 7201925 
2256.462 7177030 7145467 7111550 7078779 7048840 7022035 6996982 6972806 
2260.320 6948699 6925300 6902979 6881804 6861270 6840804 6820104 6800750 
2264.177 6786178 6780119 6786346 6806068 6837405 6876284 6916681 6952873 
2268.034 6980785 6997722 7002638 6995972 6978866 6953075 6921596 6888066 
2271.892 6856356 6829495 6809434 6795601 6786144 6778201 6770360 6762518 
2275.749 6756494 6754576 6758850 6769451 6784562 6801761 6818556 6833938 
2279.607 6848984 6865478 6884733 6906446 6928464 6946611 6957250 6957789 
2283.464 6947823 6929036 6904258 6876519 6847739 6819161 6791529 6764908 
2287.322 6740139 6717828 6697907 6679636 6661231 6640775 6617123 6590244 
2291.179 6561785 6534538 6511532 6494445 6484087 6480017 6480555 6484490 
2295.036 6490914 6499289 6508841 6518258 6525860 6529527 6527979 6520848 
2298.894 6509446 6495791 6482203 6470567 6461083 6453785 6447631 6442283 
2302.751 6437676 6434145 6432262 6432262 6433540 6435221 6436701 6437374 
2306.609 6437744 6438752 6441275 6446050 6453247 6462293 6472921 6484390 
2310.466 6496396 6509009 6521757 6534000 6545134 6554754 6562726 6569555 
2314.323 6576182 6582742 6589032 6593978 6596165 6594516 6589235 6581228 
2318.181 6572751 6565552 6560574 6557176 6553947 6548363 6538675 6523674 
2322.038 6502887 6475746 6441409 6398063 6344501 6280456 6207649 6130451 
2325.896 6054241 5984898 5927121 5882785 5851384 5830327 5816827 5808600 
2329.753 5804940 5806149 5812495 5823678 5838017 5853466 5868008 5881341 
2333.611 5894708 5910125 5929741 5954195 5982614 6012950 6042650 6070302 
2337.468 6095436 6119361 6143154 6168090 6194709 6222505 6251446 6281566 
2341.325 6313469 6347695 6383773 6419820 6452776 6480118 6500769 6517317 
2345.183 6535211 6561650 6603566 6665101 6746196 6842790 6948395 7054969 
2349.040 7154428 7240095 7306674 7350818 7371713 7371005 7352840 7322242 
2352.898 7285311 7246665 7209135 7173763 7139977 7107373 7076152 7047594 
2356.755 7024122 7007555 6998160 6995567 6997588 7001191 7004793 7007454 
2360.613 7008767 7009845 7010889 7011292 7010956 7010249 7010484 7014727 
2364.470 7026547 7048705 7082551 7127346 7180298 7238276 7298722 7360457 
2368.327 7423110 7487290 7552355 7617329 7680593 7740494 7796725 7850264 
2372.185 7902967 7957228 8014601 8075190 8138149 8201590 8264534 8326203 
2376.042 8386665 8446494 8505655 8563946 8620487 8674635 8726356 8776494 
2379.900 8826130 8876516 8928262 8980791 9033225 9084278 9133409 9180717 
2383.757 9227252 9274435 9322978 9373387 9424921 9476800 9528582 9579998 
2387.615 9631861 9684882 9739366 9795383 9852151 9909200 9966289 10023996 
2391.472 10083169 10144725 10209036 10275290 10342099 10408272 10472555 
2394.847 10535218 10597245 10660198 10725128 10792278 10860932 10929835 
2398.222 10997593 11063221 11126343 11187129 11245644 11301583 11354842 
2401.598 11405081 11452535 11498327 11544159 11591867 11643051 11698803 
2404.973 11759328 11824663 11894331 11968235 12046102 12127460 12211525 
2408.348 12297275 12383214 12468419 12552584 12636390 12720757 12806541 
2411.723 12894014 12982221 13069764 13154967 13236327 13313227 13386142 
2415.099 13455686 13522712 13588210 13652349 13715302 13777203 13837813 
2418.474 13897200 13955021 14010968 14065108 14117920 14170739 14225891 
2421.849 14285948 14353478 14429994 14515636 14609519 14709832 14815071 
2425.224 14924587 15038076 15156261 15279488 15407557 15540230 15676793 
2428.600 15817245 15961766 16111802 16268289 16431782 16601637 16776105 
2431.975 16953122 17130868 17308618 17486956 17667714 17852348 18042342 
2435.350 18238086 18438796 18643400 18850524 19058994 19267320 19474256 
2438.725 19677896 19876772 20069460 20255672 20435852 20611588 20784302 
2442.101 20954860 21123328 21288764 21449632 21604850 21753576 21896218 
2445.476 22033084 22164870 22291044 22411080 22523680 22627966 22723936 
2448.851 22811962 22892916 22967422 23036036 23098408 23155020 23206608 
2452.226 23255160 23303788 23356266 23416376 23487228 23571318 23669594 
2455.602 23783012 23911828 24055986 24215222 24388498 24574572 24771322 
2458.977 24977284 25191630 25414582 25647352 25890972 26146624 26414434 
2462.352 26693118 26981150 27276886 27578652 27886172 28199854 28520588 
2465.727 28850164 29190302 29543158 29910746 30294736 30696388 31116208 
2469.103 31553358 32006748 32474502 32955344 33448246 33952308 34466388 
2472.478 34988516 35515476 36043116 36566888 37082596 37587324 38078888 
2475.853 38555912 39016964 39459496 39880652 40276328 40642744 40976376 
2479.228 41274840 41536400 41759552 41943184 42086920 42190244 42254476 
2482.604 42282236 42276900 42243084 42185752 42108788 42015740 41909468 
2485.979 41791872 41664792 41529728 41387376 41237900 41080092 40912004 
2489.354 40730808 40533864 40318684 40084024 39829080 39554140 39259500 
2492.729 38946068 38614104 38263832 37895616 37509000 37103312 36677524 
2496.104 36230504 35761316 35270172 34758512 34228988 33685896 33134148 
2499.480 32578458 32022588 31469490 30920480 30376424 29837982 29306270 
2502.855 28782784 28269582 27768184 27279816 26805390 26344930 25898816 
2506.230 25467810 25052744 24655014 24276148 23916834 23577860 23258900 
2509.605 22960156 22681516 22423256 22185478 21968218 21770784 21592210 
2512.981 21430906 21286294 21157696 21045172 20949366 20870614 20808946 
2516.356 20764282 20736060 20723374 20725912 20742976 20773840 20817184 
2519.731 20870894 20932710 21000064 21070980 21144338 21219624 21297256 
2523.106 21377128 21459136 21542938 21627278 21711390 21794196 21875032 
2526.482 21952326 22024232 22087712 22138998 22174110 22189976 22184222 
2529.857 22156780 22108282 22040858 21957448 21860778 21753820 21639016 
2533.232 21519054 21396236 21272722 21149906 21028652 20909240 20791184 
2536.607 20674236 20558292 20443420 20329796 20218596 20109924 20004538 
2539.983 19903134 19806194 19714022 19627176 19545720 19468714 19395532 
2543.358 19324858 19255198 19186034 19117090 19048226 18979996 18912228 
2546.733 18844330 18775788 18705698 18633784 18560710 18487922 18417294 
2550.108 18350474 18289266 18233872 18184116 18138994 18096988 18056676 
2553.484 18016956 17976686 17935248 17892674 17849480 17806846 17766492 
2556.859 17729906 17698534 17672788 17651704 17633828 17616816 17598080 
2560.234 17575824 17548880 17516692 17479574 17438422 17394588 17349444 
2563.609 17304444 17261276 17221354 17185742 17154892 17129212 17107946 
2566.985 17090818 17076826 17065868 17057528 17051668 17048466 17048120 
2570.360 17050636 17056528 17066006 17079066 17095608 17115152 17136900 
2573.735 17160338 17184744 17209944 17235798 17262690 17290652 17319514 
2577.110 17349134 17379102 17409002 17438908 17469468 17501272 17534976 
2580.486 17570650 17608502 17648218 17689766 17733426 17780094 17830700 
2583.861 17885698 17945468 18008908 18074776 18142068 18210098 18278588 
2587.236 18348608 18421062 18496602 18575476 18657340 18741260 18826718 
2590.611 18913300 19000628 19088666 19176616 19263166 19346682 19425364 
2593.987 19498134 19564540 19625408 19682056 19735762 19788022 19839002 
2597.362 19889190 19938136 19985560 20031534 20076608 20120752 20164656 
2600.737 20208634 20253136 20298894 20346844 20397822 20452660 20511742 
2604.112 20575038 20642128 20712878 20787256 20865956 20949644 21039572 
2607.488 21136094 21239354 21348622 21463140 21581972 21704912 21832102 
2610.863 21964036 22101202 22243924 22391576 22543432 22698204 22854812 
2614.238 23012070 23169314 23325990 23481774 23635936 23788192 23937736 
2617.613 24083794 24225416 24361618 24491516 24614756 24731474 24842360 
2620.989 24948998 25052780 25154832 25255714 25354864 25451226 25543146 
2624.364 25629354 25709220 25782628 25850318 25913024 25971516 26026606 
2627.739 26078466 26127938 26175410 26222042 26268328 26314584 26360456 
2631.114 26404714 26446160 26483138 26514588 26540228 26560130 26574712 
2634.490 26584820 26591196 26594122 26594122 26591584 26587006 26580876 
2637.865 26573514 26565166 26556150 26547272 26539384 26533992 26533150 
2641.240 26538468 26551430 26572456 26601272 26636818 26677826 26723068 
2644.615 26772050 26824034 26879266 26937432 26998250 27061298 27126330 
2647.990 27193594 27262916 27334894 27409462 27486336 27564564 27642844 
2651.366 27719758 27794358 27866246 27935958 28004160 28071984 28140812 
2654.741 28211380 28284222 28359624 28437870 28518712 28601834 28686850 
2658.116 28773156 28859902 28946596 29032776 29118300 29203450 29287944 
2661.491 29372278 29456202 29539538 29622146 29703992 29784998 29865594 
2664.867 29945782 30025982 30106196 30186604 30267170 30347926 30429160 
2668.242 30511156 30594162 30678252 30763460 30849718 30937130 31025698 
2671.617 31115532 31207056 31300522 31396360 31494998 31596866 31702608 
2674.992 31812400 31926930 32046486 32171174 32300610 32434478 32572244 
2678.368 32713306 32857378 33004180 33153280 33304546 33457798 33612968 
2681.743 33769904 33928876 34089588 34252076 34415668 34579648 34743256 
2685.118 34905848 35067500 35228812 35391188 35556144 35724728 35897696 
2688.493 36074724 36255324 36438588 36623736 36810616 36999532 37190476 
2691.869 37383960 37580132 37778852 37980192 38184808 38393252 38606680 
2695.244 38825760 39050896 39281772 39517596 39756996 39999000 40243100 
2698.619 40489016 40737320 40988612 41243072 41500960 41762068 42025740 
2701.994 42291364 42558428 42826096 43094188 43362072 43629472 43896408 
2705.370 44163176 44430256 44698348 44967888 45239436 45512848 45788420 
2708.745 46066044 46346276 46629792 46917924 47211856 47512868 47821816 
2712.120 48139388 48465420 48799516 49141144 49488944 49841592 50197428 
2715.495 50554524 50910424 51263224 51610712 51950824 52282232 52603796 
2718.871 52915608 53218348 53514296 53806352 54097972 54392792 54693752 
2722.246 55003224 55322408 55652028 55992460 56343904 56706812 57081660 
2725.621 57468176 57866092 58274604 58692188 59117616 59549572 59987028 
2728.996 60428576 60872476 61316720 61758516 62195288 62624508 63044608 
2732.372 63454844 63854484 64243084 64619496 64982040 65328284 65656000 
2735.747 65963164 66248976 66513352 66756756 66980416 67186248 67375968 
2739.122 67552488 67719712 67881616 68042960 68208272 68381440 68565400 
2742.497 68762664 68974752 69203288 69449600 69714880 69999824 70304280 
2745.873 70626920 70965680 71317040 71676776 72040016 72401208 72754008 
2749.248 73091336 73406528 73692840 73944504 74157824 74330408 74461672 
2752.623 74551832 74601552 74611784 74582904 74515320 74408656 74262304 
2755.998 74074632 73843352 73565608 73238000 72857808 72422936 71933136 
2759.374 71389712 70796072 70156816 69477440 68764296 68024352 67264688 
2762.749 66493152 65717900 64946600 64186924 63446484 62731304 62047688 
2766.124 61400984 60796244 60237948 59729940 59274668 58873448 58526396 
2769.499 58231716 57987060 57789744 57636628 57524572 57450816 57412056 
2772.875 57404148 57422944 57463676 57520600 57588956 57663456 57739144 
2776.250 57811584 57876276 57928900 57965892 57984032 57980928 57955708 
2779.625 57908572 57840656 57754696 57654416 57543560 57426764 57308864 
2783.000 57193564 57084268 56983116 56890908 56807100 56730260 56657356 
2786.375 56584912 56508828 56424564 56327460 56213060 56077692 55918660 
2789.751 55734860 55526556 55295840 55046100 54781772 54507876 54229608 
2793.126 53951860 53679496 53417200 53169288 52940680 52735692 52559140 
2796.501 52415864 52310112 52245200 52223636 52246620 52314412 52426028 
2799.876 52580500 52776060 53011204 53284384 53593456 53936028 54309240 
2803.252 54709456 55132468 55574376 56030832 56498112 56972768 57450932 
2806.627 57929052 58402588 58866316 59314928 59742524 60143100 60511180 
2810.002 60840992 61127496 61366100 61553140 61686100 61764244 61788040 
2813.377 61759736 61682544 61560772 61399304 61203136 60978196 60730660 
2816.753 60467876 60197904 59929208 59671016 59432388 59221728 59046548 
2820.128 58912872 58824580 58783912 58790816 58843812 58939476 59073004 
2823.503 59239124 59430792 59640336 59860100 60081228 60295468 60495488 
2826.878 60675216 60830164 60957760 61057280 61129404 61176052 61200160 
2830.254 61205312 61195964 61177576 61155148 61133904 61118112 61110368 
2833.629 61112468 61125128 61148472 61182880 61229116 61288484 61363044 
2837.004 61454648 61566120 61700572 61862272 62056860 62291732 62575064 
2840.379 62915868 63323296 63805552 64370768 65027064 65783360 66649192 
2843.755 67634984 68749784 70000096 71385808 72897968 74513672 76195344 
2847.130 77891400 79532264 81039448 82332152 83329672 83969408 84211408 
2850.505 84045240 83491792 82600016 81442304 80096584 78644040 77159184 
2853.880 75698944 74307680 73013632 71830976 70763624 69807600 68953504 
2857.256 68188576 67498608 66870092 66289932 65747424 65234244 64742984 
2860.631 64268016 63804172 63345760 62888636 62427940 61960128 61482780 
2864.006 60995088 60497924 59994636 59490788 58994852 58516540 58067500 
2867.381 57659256 57301944 57003596 56769000 56599636 56492904 56443356 
2870.757 56442752 56480336 56543736 56620588 56697900 56764772 56812540 
2874.132 56835724 56831496 56799736 56742076 56660712 56558044 56436940 
2877.507 56299620 56149520 55990460 55826416 55661448 55499368 55342808 
2880.882 55193716 55053172 54922000 54800944 54690516 54591540 54504272 
2884.258 54429036 54365564 54314120 54274848 54248228 54235428 54236820 
2887.633 54252924 54283296 54327488 54384604 54454764 54537968 54635352 
2891.008 54748244 54878424 55027368 55196764 55388952 55606952 55854676 
2894.383 56136852 56458300 56822812 57231780 57683892 58173560 58692040 
2897.759 59225604 59759024 60274716 60754856 61185092 61554892 61860440 
2901.134 62104756 62297852 62455220 62594236 62734180 62891892 63081624 
2904.509 63315548 63603460 63953832 64375028 64875268 65463140 66148104 
2907.884 66940100 67850312 68890632 70072664 71405144 72890648 74522360 
2911.260 76279496 78124008 80005664 81857816 83605096 85175888 86500592 
2914.635 87524648 88214928 88559280 88568504 88271600 87713440 86944976 
2918.010 86017152 84980168 83875184 82735648 81588896 80453496 79342928 
2921.385 78266304 77228840 76233136 75280760 74372168 73508152 72689968 
2924.760 71919136 71197216 70525104 69902240 69326056 68792016 68293064 
2928.136 67820288 67363584 66912724 66457592 65990628 65506676 65004132 
2931.511 64485252 63955100 63420980 62890516 62370944 61868348 61386900 
2934.886 60929584 60498268 60094736 59720588 59377340 59066704 58789524 
2938.261 58546944 58339252 58167044 58030688 57930792 57867648 57840732 
2941.637 57848416 57887672 57953324 58038944 58135340 58232660 58319096 
2945.012 58381968 58409448 58390876 58318752 58190344 58008608 57782552 
2948.387 57524952 57252988 56984556 56735620 56519772 56346396 56219548 
2951.762 56139564 56103176 56104988 56137940 56195220 56270312 56357032 
2955.138 56450376 56546116 56640252 56730296 56814240 56891740 56963512 
2958.513 57031744 57099040 57168352 57241532 57319452 57402072 57488300 
2961.888 57577004 57667584 57760032 57854512 57951280 58049776 58148632 
2965.263 58245544 58338156 58424232 58502892 58574096 58639092 58700004 
2968.639 58759516 58820408 58886276 58960844 59047652 59150456 59271936 
2972.014 59413012 59572836 59748568 59935444 60127764 60319412 60504552 
2975.389 60677576 60833712 60968932 61080276 61166212 61226448 61262500 
2978.764 61276692 61272608 61253952 61224844 61189248 61151448 61115248 
2982.140 61083940 61059416 61041304 61025936 61006600 60974496 60919024 
2985.515 60829632 60697960 60517272 60284044 59997412 59659344 59274516 
2988.890 58849508 58393488 57916748 57429940 56943340 56464640 55999432 
2992.265 55550352 55117496 54699612 54294672 53900164 53513396 53130192 
2995.641 52745756 52353924 51947612 51520868 51069124 50590932 50087608 
2999.016 49563512 49025024 48478756 47931472 47388796 46854912 46332820 
3002.391 45824280 45330384 44851372 44387208 43937428 43501412 43079076 
3005.766 42670384 42275584 41895124 41528852 41176400 40836720 40508256 
3009.142 40189376 39878872 39575340 39277780 38985868 38698856 38415764 
3012.517 38135932 37858412 37582552 37308308 37036192 36766800 36501432 
3015.892 36241668 35988612 35743364 35506812 35279192 35060456 34849984 
3019.267 34647000 34450860 34261616 34079624 33906200 33743048 33591596 
3022.643 33453110 33328268 33217016 33119488 33036106 32967788 32916348 
3026.018 32883790 32871422 32879248 32905448 32945730 32993418 33040610 
3029.393 33078152 33096708 33088520 33047258 32969322 32854232 32704442 
3032.768 32525174 32322456 32103814 31876046 31644620 31414100 31187048 
3036.144 30965026 30748344 30536680 30329236 30124842 29922494 29721270 
3039.519 29521168 29322398 29126272 28934270 28747736 28567862 28395350 
3042.894 28230120 28072090 27921048 27776942 27639560 27509176 27385464 
3046.269 27268314 27157086 27051636 26951710 26857554 26769548 26688116 
3049.645 26613038 26543714 26478770 26416862 26356512 26296840 26237812 
3053.020 26179810 26123680 26070408 26020660 25974964 25933564 25896564 
3056.395 25863788 25835268 25810864 25790082 25773030 25759670 25750212 
3059.770 25745290 25745466 25751126 25762694 25780342 25803762 25833332 
3063.146 25869026 25911160 25959876 26014786 26074878 26138532 26203740 
3066.521 26268680 26331412 26390770 26445278 26493492 26533254 26562102 
3069.896 26577388 26577176 26560728 26529134 26485038 26432320 26374856 
3073.271 26316310 26258824 26203740 26151656 26102040 26054682 26008946 
3076.646 25964378 25920058 25875394 25829218 25781118 25730664 25678636 
3080.022 25625736 25573262 25522096 25473184 25426596 25382438 25340426 
3083.397 25300562 25262702 25227200 25194122 25163996 25137312 25114704 
3086.772 25096764 25084092 25076860 25075210 25078616 25086618 25098344 
3090.147 25113474 25131064 25151040 25172528 25194998 25217332 25239070 
3093.523 25259682 25279772 25300422 25323076 25349454 25380718 25417112 
3096.898 25458182 25502594 25548628 25594806 25639548 25682010 25721840 
3100.273 25759142 25794688 25829712 25865756 25904056 25945698 25991076 
3103.648 26039308 26089268 26139374 26188008 26234644 26279698 26323912 
3107.024 26368590 26415032 26463910 26515150 26568512 26623184 26678708 
3110.399 26734626 26790622 26846520 26902144 26957632 27013166 27069198 
3113.774 27126118 27184284 27243760 27303704 27362912 27419802 27472958 
3117.149 27521424 27564990 27603860 27638748 27670564 27699842 27727282 
3120.525 27753630 27779804 27806932 27835830 27866884 27899704 27933414 
3123.900 27966594 27998224 28028016 28056928 28086796 28119812 28157744 
3127.275 28201728 28251158 28304628 28359730 28414556 28467196 28517154 
3130.650 28564570 28610576 28656338 28703484 28753152 28805762 28861212 
3134.026 28918934 28977942 29037486 29096970 29156816 29217306 29279686 
3137.401 29344272 29411418 29480278 29549682 29618068 29684194 29747456 
3140.776 29807782 29866128 29922954 29979116 30035036 30090926 30147428 
3144.151 30204934 30264362 30326606 30392378 30461396 30533302 30606854 
3147.527 30681418 30755956 30830332 30904860 30979650 31054882 31130090 
3150.902 31204530 31277270 31347852 31415738 31481356 31545590 31608946 
3154.277 31672630 31737432 31803918 31872764 31943836 32016844 32090898 
3157.652 32164752 32237050 32307216 32375108 32441762 32508820 32578566 
3161.028 32652396 32731206 32814708 32901942 32991342 33081834 33172558 
3164.403 33263196 33353812 33444270 33534140 33623064 33710568 33796412 
3167.778 33880980 33964740 34048444 34132704 34217192 34301880 34385940 
3171.153 34468864 34550336 34630744 34710128 34789492 34869116 34949476 
3174.529 35030860 35113728 35198408 35285156 35374296 35465892 35559276 
3177.904 35654436 35750308 35846520 35942432 36037820 36132444 36226472 
3181.279 36320304 36414228 36508788 36604844 36702364 36801528 36902196 
3184.654 37003936 37106164 37208848 37311776 37415236 37519584 37624788 
3188.030 37730704 37837084 37943416 38049916 38157024 38265964 38377612 
3191.405 38493020 38612040 38733812 38857216 38980648 39102376 39222036 
3194.780 39339264 39454272 39567460 39679736 39791200 39902700 40015132 
3198.155 40129300 40245828 40365404 40487704 40612512 40739032 40866680 
3201.531 40995272 41124708 41255096 41386064 41517184 41647324 41775712 
3204.906 41901876 42026216 42149788 42274016 42399888 42527768 42657116 
3208.281 42786532 42914892 43041208 43165652 43288708 43411320 43534264 
3211.656 43657572 43781460 43905460 44029532 44154116 44279540 44406180 
3215.031 44534252 44662724 44790904 44918168 45044516 45170424 45297504 
3218.407 45426532 45557960 45691300 45825092 45958072 46089656 46219880 
3221.782 46350260 46482296 46617212 46755456 46895996 47036876 47176212 
3225.157 47312712 47445744 47576008 47704756 47833136 47962000 48091160 
3228.532 48220100 48347816 48473124 48595468 48714736 48831216 48945464 
3231.908 49058444 49170788 49283088 49395228 49506840 49617072 49725212 
3235.283 49831336 49936220 50041280 50148556 50259844 50375216 50494040 
3238.658 50614276 50733612 50850152 50963592 51074900 51186348 51300176 
3242.033 51417952 51539708 51664376 51790164 51915464 52040016 52164340 
3245.409 52289860 52418292 52550544 52686424 52825004 52965388 53106640 
3248.784 53248912 53393064 53540044 53690520 53844576 54001384 54159636 
3252.159 54318364 54476624 54634828 54793728 54954716 55118472 55285640 
3255.534 55455772 55627816 55800300 55971504 56140128 56305992 56469016 
3258.910 56630628 56792260 56955764 57123152 57295288 57472488 57654148 
3262.285 57838988 58025496 58212092 58398076 58582892 58766840 58950712 
3265.660 59135308 59321272 59509712 59701084 59895736 60093900 60295312 
3269.035 60499216 60704900 60910864 61115976 61318628 61517860 61712984 
3272.411 61904336 62093024 62281024 62471020 62665804 62867424 63076988 
3275.786 63294084 63517356 63744536 63973524 64203060 64433060 64664640 
3279.161 64898968 65137536 65381088 65629168 65881020 66135792 66392764 
3282.536 66651896 66913584 67178320 67446472 67717936 67992384 68269416 
3285.912 68549376 68833128 69122000 69417488 69720600 70032216 70352000 
3289.287 70679552 71014136 71354992 71701592 72053280 72409944 72771096 
3292.662 73136976 73507920 73884600 74268048 74658768 75056808 75461400 
3296.037 75871576 76286208 76704368 77126368 77553016 77985208 78424016 
3299.413 78869616 79321448 79778896 80241432 80709104 81182952 81664304 
3302.788 82154408 82654040 83163592 83682664 84211256 84749296 85297736 
3306.163 85857920 86431008 87018288 87620312 88236968 88867760 89511688 
3309.538 90167576 90833448 91507456 92187840 92873144 93563400 94259944 
3312.914 94965104 95681488 96411304 97155480 97913064 98682320 99461320 
3316.289 100248848 101045128 101851088 102667688 103495800 104334088 
3319.182 105180488 106032272 106887216 107743584 108600880 109458544 
3322.075 110315864 111170984 112022000 112867160 113706400 114540928 
3324.968 115372992 116204928 117037328 117868496 118694912 119511280 
3327.861 120313336 121097208 121861312 122604432 123326032 124024800 
3330.754 124698600 125344888 125961352 126546320 127098336 127615768 
3333.647 128095928 128535288 128930152 129277840 129577848 129832400 
3336.540 130046024 130223168 130366832 130477296 130552072 130586712 
3339.433 130576504 130517872 130409328 130250664 130042360 129784824 
3342.326 129477752 129120528 128712760 128254112 127744688 127184840 
3345.219 126574128 125911848 125197664 124432344 123618344 122760056 
3348.113 121863056 120932064 119971048 118981808 117964216 116917912 
3351.006 115842960 114741280 113616264 112472512 111314040 110144736 
3353.899 108967488 107785072 106601112 105419528 104245160 103082768 
3356.792 101935800 100805904 99693184 98596864 97516048 96450560 95401440 
3360.167 94370312 93358936 92368672 91400216 90453864 89529928 88629000 
3363.542 87751680 86898912 86070360 85265232 84481640 83717776 82972064 
3366.917 82243856 81533488 80841760 80169376 79516104 78881096 78262776 
3370.293 77659392 77069152 76490928 75923632 75365896 74816344 74273392 
3373.668 73735760 73202784 72675080 72153264 71638640 71132000 70633160 
3377.043 70141120 69654504 69172120 68693072 68217536 67745736 67277344 
3380.418 66812008 66348216 65883764 65416948 64946524 64471916 63994104 
3383.794 63514360 63034424 62555700 62079988 61607928 61140196 60677196 
3387.169 60218648 59764312 59313448 58865784 58421388 57980812 57544736 
3390.544 57114232 56689820 56271328 55858140 55449332 55044336 54642720 
3393.919 54245188 53851700 53462612 53077396 52694728 52313328 51932300 
3397.295 51552168 51174236 50800944 50433972 50074560 49721868 49374140 
3400.670 49028880 48683972 48338372 47992640 47647844 47305504 46966392 
3404.045 46630676 46297504 45966028 45635868 45307288 44981412 44659824 
3407.420 44343460 44032796 43727408 43426336 43128000 42831580 42536356 
3410.796 42241660 41947384 41653232 41359312 41066032 40774008 40484504 
3414.171 40199012 39918788 39644520 39376488 39113836 38855292 38599040 
3417.546 38343448 38087532 37830468 37572728 37315496 37060404 36809572 
3420.921 36564760 36326932 36096544 35872360 35652140 35433932 35215300 
3424.297 34994944 34772728 34549296 34325796 34103780 33884416 33667992 
3427.672 33454686 33244054 33035782 32829430 32624536 32420802 32217958 
3431.047 32016202 31815964 31618140 31424462 31235858 31053066 30876078 
3434.422 30703678 30534192 30365336 30195804 30024738 29852462 29679796 
3437.798 29507656 29336898 29167410 28998770 28830264 28661116 28491150 
3441.173 28320754 28150744 27982108 27815692 27651320 27488348 27325014 
3444.548 27158922 26988200 26811664 26629736 26445350 26262344 26085538 
3447.923 25919178 25765330 25623064 25488996 25358868 25227586 25091884 
3451.299 24950646 24805068 24657364 24510168 24365228 24222858 24082708 
3454.674 23943548 23804886 23667004 23530496 23395918 23263166 23130978 
3458.049 22997606 22861342 22721176 22577530 22432084 22287346 22145378 
3461.424 22007986 21875520 21747410 21622716 21500460 21379702 21259848 
3464.800 21140372 21020932 20900862 20780374 20659712 20539880 20421784 
3468.175 20306500 20193778 20083028 19972932 19861822 19748870 19633590 
3471.550 19516572 19398650 19280726 19163596 19047188 18931712 18817236 
3474.925 18703932 18592420 18482738 18375016 18268566 18162418 18055674 
3478.301 17947784 17838606 17728596 17618370 17508516 17399622 17292342 
3481.676 17187294 17086304 16990230 16900000 16815126 16733540 16652212 
3485.051 16567042 16475005 16374663 16266912 16154993 16042348 15932962 
3488.426 15829308 15731895 15639968 15552215 15466609 15382496 15299326 
3491.802 15217063 15136086 15056633 14978601 14902297 14828167 14756655 
3495.177 14687965 14622198 14558326 14495594 14433317 14371048 14309268 
3498.552 14248694 14190389 14134213 14079517 14024588 13967819 13908113 
3501.927 13845647 13781410 13717627 13656692 13600278 13549341 13503809 
3505.302 13463069 13426124 13391644 13358464 13324775 13289038 13249923 
3508.678 13207429 13162959 13119108 13079667 13047842 13025546 13012470 
3512.053 13006598 13004481 13002808 12999189 12992770 12983621 12972867 
3515.428 12960885 12947674 12932756 12915176 12894492 12871077 12845719 
3518.803 12819167 12791730 12762999 12731266 12695476 12653992 12606645 
3522.179 12554016 12497370 12437901 12376975 12314625 12250683 12184126 
3525.554 12114206 12040141 11961866 11879688 11794224 11706428 11617016 
3528.929 11527009 11436886 11346782 11256457 11165709 11074403 10982641 
3532.304 10890456 10798120 10705431 10611776 10515869 10416112 10311561 
3535.680 10202082 10088357 9972595 9856897 9743602 9634435 9530343 9431659 
3539.537 9339058 9253280 9174896 9104071 9040295 8981197 8923324 8862955 
3543.395 8796307 8721353 8637927 8547962 8454602 8361534 8271456 8186395 
3547.252 8106921 8032557 7961919 7893418 7825029 7754829 7681403 7603909 
3551.109 7522957 7439828 7357322 7277865 7203643 7135430 7072751 7014289 
3554.967 6958496 6904023 6850196 6796308 6742091 6685928 6626409 6561852 
3558.824 6491318 6415112 6335221 6254539 6176559 6104005 6038282 5979859 
3562.682 5927389 5878318 5829689 5778043 5719253 5649560 5566118 5467895 
3566.539 5357181 5239353 5122159 5013311 4918966 4841192 4778810 4727691 
3570.396 4682908 4640106 4595767 4548052 4496156 4440016 4379532 4315073 
3574.254 4247145 4176451 4104062 4031216 3958284 3884861 3810448 3734010 
3578.111 3655747 3577465 3501835 3432664 3373389 3325440 3288413 3260270 
3581.969 3237503 3217074 3196812 3175017 3150652 3122250 3087377 3042930 
3585.826 2986276 2916287 2834570 2746665 2659512 2581276 2517351 2469663 
3589.684 2436807 2414617 2397758 2380966 2359844 2330595 2291255 2241327 
3593.541 2181914 2116150 2048464 1983885 1927037 1880712 1845538 1820217 
3597.398 1801551 1786146 1770177 1751879 1729889 1704608 1677398 1650091 
3601.256 1624781 1603030 1586303 1574697 1567747 1563723 1559799 1552982 
3605.113 1539615 1517071 1483257 1437810 1381266 1316819 1248427 1180811 
3608.971 1118719 1064973 1019836 981312 944949 906067 860315 806203 745028 
3613.310 681737 622603 573663 538330 516568 504593 495338 482102 457988 
3617.650 418651 363831 296982 224806 155128 96066 52255 25315 13386 13088 
3622.472 19748 29655 40458 51327 62859 75353 88079 97855 98551 82014 40591 
3627.776 -29753 -124996 -231876 -331677 -406265 -447377 -457274 -446185 
3631.633 -426954 -410734 -404974 -411561 -428145 -449661 -470612 -487624 
3635.490 -499936 -509402 -518800 -530450 -545474 -564005 -585051 -607683 
3639.348 -631142 -655195 -679180 -701675 -720465 -733365 -738261 -734027 
3643.205 -721424 -702337 -679610 -656386 -635906 -620554 -612845 -615326 
3647.063 -629984 -658304 -700848 -756288 -821344 -890789 -958437 -1017612 
3650.920 -1063128 -1091950 -1103881 -1101435 -1089372 -1073970 -1062302 
3654.295 -1060385 -1073341 -1102427 -1144762 -1193139 -1239397 -1275607 
3657.671 -1298303 -1307487 -1307024 -1301342 -1294074 -1287732 -1283173 
3661.046 -1279770 -1276730 -1273592 -1270090 -1266357 -1262392 -1257338 
3664.421 -1249673 -1238538 -1223109 -1204671 -1185672 -1170471 -1164821 
3667.796 -1173776 -1202094 -1250928 -1317364 -1392872 -1464702 -1520110 
3671.172 -1550123 -1552764 -1532954 -1501223 -1470778 -1454333 -1462325 
3674.547 -1498846 -1559169 -1628727 -1689593 -1728736 -1742035 -1735435 
3677.922 -1719297 -1704049 -1696458 -1698372 -1707647 -1719495 -1729000 
3681.297 -1733026 -1731046 -1724445 -1714808 -1702993 -1688735 -1670879 
3684.673 -1649325 -1625492 -1603275 -1587991 -1585812 -1601097 -1634735 
3688.048 -1683520 -1740253 -1796088 -1843701 -1879300 -1901964 -1914038 
3691.423 -1917600 -1915159 -1909221 -1901568 -1894277 -1889230 -1887943 
3694.798 -1890483 -1895729 -1901931 -1906087 -1905625 -1899687 -1888735 
3698.174 -1875275 -1862276 -1853962 -1853038 -1861451 -1879036 -1903514 
3701.549 -1931092 -1956492 -1975260 -1983769 -1981098 -1967476 -1945672 
3704.924 -1918722 -1889593 -1860626 -1833308 -1808099 -1784902 -1764014 
3708.299 -1745863 -1732102 -1725270 -1727283 -1740187 -1764674 -1799124 
3711.675 -1840302 -1882896 -1921559 -1951148 -1968267 -1972225 -1963715 
3715.050 -1945639 -1921394 -1894904 -1869534 -1847858 -1831130 -1819483 
3718.425 -1812422 -1809221 -1809749 -1813610 -1820605 -1829843 -1839016 
3721.800 -1845054 -1845021 -1836904 -1821463 -1801170 -1781008 -1765499 
3725.176 -1758437 -1760747 -1770713 -1783747 -1794471 -1798464 -1793548 
3728.551 -1780414 -1761539 -1740814 -1721937 -1707713 -1698999 -1695171 
3731.926 -1694412 -1694742 -1695270 -1696854 -1702531 -1715435 -1737646 
3735.301 -1768667 -1804272 -1838092 -1862639 -1873361 -1868808 -1850299 
3738.677 -1820935 -1783648 -1740847 -1694049 -1644670 -1595881 -1552500 
3742.052 -1522752 -1516280 -1542067 -1603638 -1693719 -1793284 -1876759 
3745.427 -1924231 -1929905 -1900644 -1850365 -1794076 -1745039 -1712135 
3748.802 -1699197 -1704808 -1724709 -1752662 -1783450 -1813774 -1841391 
3752.177 -1863926 -1878310 -1881708 -1872800 -1852180 -1823343 -1791139 
3755.553 -1760417 -1735072 -1717614 -1708571 -1707548 -1713719 -1726360 
3758.928 -1744477 -1766489 -1789489 -1808660 -1819912 -1820572 -1810937 
3762.303 -1794471 -1776850 -1764014 -1760054 -1765466 -1777114 -1789390 
3765.678 -1795824 -1792723 -1780051 -1761176 -1742002 -1727713 -1721772 
3769.054 -1724973 -1735303 -1748702 -1761110 -1769624 -1773089 -1771604 
3772.429 -1766126 -1757975 -1747910 -1736623 -1724313 -1710848 -1696722 
3775.804 -1682167 -1668304 -1656289 -1648136 -1645562 -1649358 -1659227 
3779.179 -1672463 -1685533 -1693917 -1694742 -1687283 -1673420 -1656553 
3782.555 -1641337 -1631434 -1629090 -1634371 -1645397 -1659227 -1672364 
3785.930 -1682629 -1688108 -1688669 -1684840 -1677942 -1670053 -1663089 
3789.305 -1659425 -1660448 -1666291 -1675400 -1684642 -1690682 -1690583 
3792.680 -1683157 -1669492 -1652823 -1636847 -1624865 -1618229 -1615688 
3796.056 -1614202 -1609977 -1600271 -1585151 -1567258 -1551741 -1544444 
3799.431 -1551278 -1575511 -1616975 -1669987 -1725138 -1769624 -1793350 
3802.806 -1792360 -1769261 -1731739 -1689461 -1653154 -1630839 -1626977 
3806.181 -1640610 -1665399 -1691441 -1708373 -1710947 -1699230 -1678008 
3809.557 -1653187 -1629882 -1609713 -1592216 -1574026 -1552401 -1527077 
3812.932 -1500398 -1478109 -1466915 -1472528 -1496336 -1533714 -1574125 
3816.307 -1604431 -1615655 -1605157 -1577921 -1544708 -1518129 -1509842 
3819.682 -1527440 -1572111 -1636880 -1707383 -1765466 -1797111 -1796583 
3823.058 -1767413 -1719000 -1663551 -1612288 -1572837 -1549628 -1541836 
3826.433 -1545633 -1554349 -1561876 -1564353 -1560820 -1552764 -1542793 
3829.808 -1533615 -1526714 -1522058 -1518393 -1513705 -1506275 -1494619 
3833.183 -1478736 -1459418 -1438779 -1419129 -1404003 -1396935 -1400766 
3836.559 -1416949 -1444789 -1480586 -1518591 -1552665 -1577921 -1592216 
3839.934 -1596145 -1592546 -1584689 -1576040 -1568744 -1564518 -1563494 
3843.309 -1565244 -1568611 -1571847 -1573068 -1570493 -1562603 -1548571 
3846.684 -1528563 -1502775 -1471967 -1436401 -1396373 -1351949 -1304084 
3850.060 -1255686 -1212304 -1182731 -1177212 -1206522 -1276565 -1383360 
3853.435 -1510403 -1633645 -1731046 -1790446 -1812323 -1804734 -1778401 
3856.810 -1741936 -1701343 -1660151 -1619616 -1580629 -1543982 -1511129 
3860.185 -1483591 -1462820 -1449677 -1444426 -1446903 -1456579 -1472958 
3863.561 -1494520 -1518757 -1541473 -1557551 -1563131 -1556165 -1538765 
3866.936 -1516346 -1496799 -1487190 -1492869 -1513969 -1545600 -1577789 
3870.311 -1599479 -1604662 -1593240 -1571583 -1548076 -1531039 -1525063 
3873.686 -1530049 -1541109 -1550585 -1550849 -1537445 -1510139 -1472991 
3877.062 -1432867 -1397298 -1373055 -1364732 -1373980 -1397959 -1429796 
3880.437 -1460871 -1482237 -1487487 -1475467 -1449478 -1416916 -1386762 
3883.812 -1368134 -1366845 -1384450 -1415727 -1450403 -1476557 -1484416 
3887.187 -1470382 -1437656 -1394458 -1350528 -1315745 -1297642 -1299459 
3890.563 -1320139 -1353798 -1392311 -1427286 -1452715 -1465990 -1467014 
3893.938 -1457767 -1440529 -1417642 -1390957 -1362155 -1333451 -1307090 
3897.313 -1285188 -1269826 -1261699 -1260047 -1262954 -1267348 -1270652 
3900.688 -1271676 -1270883 -1270487 -1273526 -1282710 -1299228 -1321856 
3904.063 -1347457 -1371139 -1388480 -1396175 -1393335 -1381411 -1363047 
3907.439 -1341808 -1321064 -1303423 -1290474 -1282512 -1278911 -1278481 
3910.814 -1279274 -1279770 -1278680 -1275145 -1269363 -1262227 -1254496 
3914.189 -1247988 -1243659 -1242404 -1243891 -1247162 -1251027 -1254067 
3917.564 -1255719 -1255719 -1254628 -1253043 -1250829 -1247558 -1242503 
3920.940 -1234507 -1223571 -1210619 -1197964 -1188348 -1184581 -1187786 
3924.315 -1197534 -1211313 -1225487 -1236159 -1240917 -1238902 -1231237 
3927.690 -1220036 -1208075 -1197600 -1189835 -1185705 -1185044 -1187489 
3931.065 -1192578 -1199186 -1206059 -1211412 -1213560 -1211412 -1204572 
3934.441 -1193866 -1180814 -1167398 -1155138 -1144729 -1136269 -1128965 
3937.816 -1122322 -1116373 -1111780 -1110127 -1112705 -1120538 -1133195 
3941.191 -1149355 -1166605 -1182466 -1194659 -1202028 -1204341 -1202854 
3944.566 -1198459 -1192941 -1187489 -1183127 -1180616 -1180087 -1181112 
3947.942 -1182367 -1182301 -1179228 -1171826 -1159864 -1144035 -1126123 
3951.317 -1108376 -1092611 -1080183 -1071391 -1065872 -1062599 -1060914 
3954.692 -1060352 -1060914 -1062765 -1065905 -1070102 -1075226 -1080547 
3958.067 -1085637 -1090561 -1095288 -1100014 -1104905 -1109466 -1113267 
3961.443 -1115118 -1114258 -1110127 -1102856 -1093338 -1082761 -1072680 
3964.818 -1064616 -1059625 -1058005 -1059459 -1063029 -1067524 -1070962 
3968.193 -1072879 -1072416 -1069574 -1065078 -1059559 -1053873 -1048188 
3971.568 -1042536 -1036619 -1030735 -1025281 -1020587 -1017612 -1016554 
3974.944 -1016951 -1018207 -1018438 -1016686 -1012191 -1005215 -997116 
3978.319 -989579 -984257 -982339 -984157 -988653 -994339 -999430 -1002141 
3982.176 -1001910 -998736 -993282 -987298 -982042 -979099 -979132 -982306 
3986.034 -987562 -993877 -999596 -1003893 -1005943 -1005910 -1004257 
3989.409 -1001513 -998240 -994538 -990141 -984918 -979099 -973049 -967694 
3993.266 -963693 -961313 -960916 -961412 -962007 -961842 -960189 -957180 
3997.124 -953478 -949279 -945113 -941278 -937773 -934864 -933111 -933177 
##END=
