
##TITLE=1731a_2_c
##JCAMP-DX=5.01  $$ Nicolet v. 1
##DATATYPE=INFRARED SPECTRUM
##ORIGIN=UniL
##OWNER=Nicolet
##LONGDATE=2011/09/22
##TIME=10:17:51
##SPECTROMETER/DATA SYSTEM=Nicolet iS5
##DATA PROCESSING=
Ratio against background
%Transmittance->Absorbance
Truncated
ElementMultiply or ElementDivide
##COMMENTS=
Number of sample scans: 32
Collection length: 51.21 sec
Sample gain: 2.0
Background collected on: Jeu Sep 22 10:11:43 2011 (GMT+02:00);
Number of background scans: 32
Background gain: 2.0
Sample spacing:  1.000
Number of scan points: 12415
Resolution points: 8192
Number of FFT points: 65536
Apodization: N-B fort;
Phase correction: Mertz;
Laser frequency: 15798.0 cm-1
Number of rejected sample scans: 0
Number of rejected background scans: 0
Bench serial number: ASB1000141;
##RESOLUTION=4.000
##XUNITS=1/CM
##YUNITS=ABSORBANCE
##FIRSTX=649.893372
##LASTX=4000.122314
##FIRSTY=0.101994
##MAXX=4000.122314
##MINX=649.893372
##MAXY=0.264524
##MINY=-0.003321
##XFACTOR=1.000000
##YFACTOR=1.000000E-009
##NPOINTS=6950
##DELTAX=0.482117
##ZPD=6100
##XYDATA=(X++(Y..Y))
649.893 101994168 101626400 101353328 101119320 100860776 100541568 
652.786 100167768 99784024 99445656 99191976 99025176 98916728 98826944 
656.161 98731016 98632048 98556576 98530888 98564144 98635120 98703280 
659.536 98725528 98681320 98580904 98457400 98347088 98268352 98216920 
662.911 98172808 98119056 98055056 97998960 97973304 97986168 98009888 
666.285 97972224 97763144 97287784 96528352 95587288 94637216 93828040 
669.660 93214848 92762400 92387032 92002656 91553880 91022792 90428640 
673.035 89806256 89185904 88575688 87960904 87320128 86642952 85942880 
676.410 85253296 84611304 84038768 83533680 83073712 82630424 82184952 
679.785 81738968 81309144 80915680 80566720 80253472 79953480 79646040 
683.159 79321928 78990744 78672192 78385272 78133520 77903088 77667752 
686.534 77405768 77111528 76800928 76502832 76245136 76040536 75879824 
689.909 75739256 75592104 75424736 75242384 75064408 74911464 74795568 
693.284 74712680 74648056 74585696 74520008 74459472 74422464 74425296 
696.659 74471704 74547928 74627760 74685248 74703664 74683952 74640312 
700.034 74592784 74554504 74526536 74499784 74462304 74407208 74338344 
703.408 74265568 74200784 74148704 74104456 74056280 73993688 73913664 
706.783 73823448 73736936 73665824 73614520 73577736 73546376 73516320 
710.158 73496224 73509376 73591048 73773568 74074160 74486880 74981744 
713.533 75508672 76006232 76418584 76698952 76816664 76759720 76532664 
716.908 76156048 75663712 75104816 74541720 74042056 73681928 73532880 
720.282 73649544 74060952 74750304 75647080 76614200 77469208 78013960 
723.657 78061376 77498760 76312480 74602152 72550656 70386288 68329872 
727.032 66529536 65055160 63896976 62997072 62280180 61684420 61176244 
730.407 60742852 60380708 60083092 59832604 59606964 59388052 59167768 
733.782 58951356 58749616 58571480 58416612 58275856 58137988 57996832 
737.156 57857276 57733012 57637612 57577080 57543600 57519504 57484064 
740.531 57423700 57339072 57242592 57151196 57076180 57017876 56966532 
743.906 56909532 56839052 56758352 56679176 56615716 56575064 56553096 
747.281 56535700 56506600 56455772 56384952 56305428 56231840 56174256 
750.656 56132060 56096316 56055788 56005012 55948740 55900268 55873288 
754.031 55876040 55905244 55949040 55992460 56026008 56049868 56074036 
757.405 56111208 56170372 56252924 56353600 56465204 56584308 56714248 
760.780 56863068 57038732 57243840 57473512 57718100 57971500 58236564 
764.155 58530944 58885704 59345052 59961808 60788088 61874764 63255480 
767.530 64931632 66850072 68890048 70867256 72535496 73651816 74028264 
770.905 73579744 72365080 70575536 68499568 66424348 64586660 63118176 
774.279 62028044 61231060 60589876 59977212 59300456 58525980 57670760 
777.654 56781384 55910256 55095980 54360948 53710016 53136708 52627584 
781.029 52166916 51739468 51332172 50937736 50557984 50203564 49890132 
784.404 49633228 49443160 49321280 49262452 49259668 49310180 49417728 
787.779 49592448 49845160 50184336 50611964 51126224 51725136 52411748 
791.154 53195800 54094148 55125504 56306256 57649572 59164388 60858948 
794.528 62743060 64826564 67117448 69616504 72316008 75200816 78257024 
797.903 81483152 84900512 88560168 92533712 96906824 101751400 107095896 
801.278 112894192 118994320 125136880 130923808 135874944 139501248 
804.171 141352096 141155776 138881744 134776688 129307192 123065808 
807.063 116660672 110537920 104943312 99896648 95245080 90746256 86171400 
810.438 81398064 76428776 71387096 66452652 61821388 57645524 54006524 
813.813 50927192 48379332 46307568 44641460 43311260 42252908 41406840 
817.188 40726588 40179092 39744396 39414616 39187588 39059092 39019504 
820.563 39053432 39143748 39278468 39454452 39677084 39955588 40297996 
823.938 40706208 41175960 41700716 42275844 42902748 43586244 44331172 
827.312 45137184 45996672 46897876 47832656 48804560 49834568 50962696 
830.687 52247444 53753024 55548164 57698496 60252372 63230916 66603460 
834.062 70272880 74043784 77620840 80656080 82757936 83590192 82956184 
837.437 80833448 77399592 72977416 67994592 62869868 57950976 53501888 
840.812 49663652 46481112 43927052 41929828 40397040 39230596 38346488 
844.186 37672884 37154272 36754864 36450804 36227696 36076020 35985480 
847.561 35944016 35939584 35961720 36005136 36070188 36161824 36285904 
850.936 36445576 36640748 36868396 37124748 37407940 37719212 38061960 
854.311 38439980 38855400 39308432 39799480 40331152 40910804 41551456 
857.686 42268612 43080720 44006320 45064440 46279884 47685340 49320724 
861.060 51233248 53463364 56029060 58907488 62020400 65229892 68328976 
864.435 71082272 73247376 74604704 75014392 74429736 72915136 70627584 
867.810 67801968 64711520 61604260 58696168 56137300 54003072 52315872 
871.185 51055668 50182104 49644148 49390068 49370652 49531796 49819592 
874.560 50182180 50569972 50947236 51295404 51614036 51919492 52239148 
877.935 52606228 53048456 53583336 54209600 54903800 55616288 56274272 
881.309 56798416 57109472 57150664 56904016 56395252 55690752 54878464 
884.684 54057220 53309636 52690876 52230064 51931744 51786392 51777992 
888.059 51891300 52112148 52425880 52817632 53271348 53771740 54308304 
891.434 54875568 55472560 56100012 56757520 57441440 58145792 58865180 
894.809 59596628 60341076 61100300 61872624 62649308 63410828 64131388 
898.183 64782864 65340496 65789216 66124028 66348680 66472032 66505208 
901.558 66461256 66354976 66205136 66035220 65869264 65731624 65643236 
904.933 65619656 65674728 65822260 66077464 66458828 66984244 67667432 
908.308 68515968 69530200 70706144 72039472 73529152 75179392 76996792 
911.683 78986288 81148000 83476048 85961416 88597800 91387864 94346144 
915.058 97500112 100885344 104535776 108480232 112732736 117287192 122107736 
918.432 127117736 132195208 137145888 141714208 145606800 148499840 
921.325 150122400 150312000 149064576 146564192 143174160 139418976 
924.218 135866976 133093656 131605800 131730232 133597808 137086416 
927.110 141847888 147298096 152700544 157327600 160501824 161760768 
930.003 160926368 158082704 153523792 147634704 140834048 133478168 
932.896 125843048 118153288 110579496 103269168 96365632 89992512 84257912 
936.271 79248672 75016680 71589088 68970088 67145096 66083864 65735400 
939.646 66026540 66845476 68039472 69430432 70805432 71953032 72696352 
943.020 72898832 72499160 71512248 70026880 68182032 66139156 64065448 
946.395 62093976 60318420 58791612 57526768 56512072 55721980 55128328 
949.770 54703820 54422948 54263360 54201940 54216584 54289192 54405748 
953.145 54558440 54745088 54965432 55219148 55503548 55814016 56145748 
956.520 56496640 56867188 57260848 57681508 58130788 58606708 59104516 
959.894 59618064 60143292 60678756 61225720 61785520 62357900 62939188 
963.269 63524068 64107076 64685448 65260812 65838264 66423460 67020588 
966.644 67630184 68250144 68877824 69512824 70158136 70819552 71504080 
970.019 72216136 72956680 73723864 74515320 75330936 76174416 77052616 
973.394 77972960 78941304 79959128 81024680 82134472 83286840 84482368 
976.768 85723928 87014000 88351840 89732112 91145960 92581976 94030664 
980.143 95484528 96938016 98384944 99816544 101219536 102579816 103884648 
983.518 105126800 106305336 107423904 108485632 109488520 110423144 
986.411 111273248 112021784 112654392 113165208 113557216 113841648 
989.304 114034784 114155184 114225648 114271720 114321728 114407528 
992.196 114557232 114791952 115122192 115546664 116055784 116636056 
995.089 117276344 117969352 118711632 119499992 120328464 121186504 
997.982 122061912 122942960 123822760 124700592 125579584 126462088 
1000.874 127345800 128221616 129075752 129894824 130669608 131398960 
1003.767 132088480 132748600 133389832 134022696 134659440 135315744 
1006.660 136014512 136785952 137660608 138666592 139822800 141135776 
1009.552 142601280 144208208 145943216 147790864 149732784 151745520 
1012.445 153794944 155839616 157838736 159757040 161577104 163301920 
1015.338 164952560 166558064 168145984 169735024 171330848 172930144 
1018.231 174526192 176115936 177703488 179302464 180934160 182630016 
1021.123 184432320 186390560 188565104 191017824 193800304 196949424 
1024.016 200476368 204368432 208591552 213101344 217852800 222796976 
1026.909 227883456 233049840 238208032 243250288 248048496 252460576 
1029.802 256355440 259611216 262117984 263783568 264524224 264272128 
1032.695 262990176 260681984 257403904 253256736 248384320 242950464 
1035.588 237115680 231047072 224902608 218830912 212985744 207507664 
1038.481 202518224 198123792 194398320 191389056 189119296 187584288 
1041.374 186747536 186524896 186782416 187314864 187848272 188087888 
1044.267 187724912 186502032 184271552 181004272 176804672 171871696 
1047.160 166479008 160914720 155434560 150262032 145551376 141389728 
1050.053 137809536 134792960 132289248 130226256 128530208 127132576 
1052.947 125974104 125011592 124209208 123534272 122955144 122436480 
1055.840 121940672 121434208 120886680 120273776 119578352 118785888 
1058.733 117885888 116873416 115751864 114537432 113258560 111957288 
1061.626 110680856 109474624 108380496 107429552 106643976 106038744 
1064.519 105620416 105386584 105321000 105392456 105550104 105725896 
1067.412 105848656 105846840 105664272 105269784 104656760 103842984 
1070.305 102861760 101758056 100578528 99363968 98149872 96959424 95803344 
1073.680 94681592 93585880 92504976 91430272 90360672 89304768 88280328 
1077.055 87308336 86410992 85606328 84905904 84315808 83837408 83468264 
1080.431 83201832 83026176 82924216 82871648 82841376 82808856 82755968 
1083.806 82677128 82580696 82488616 82431168 82442464 82558536 82811096 
1087.181 83227000 83827848 84625632 85622232 86806800 88157280 89640784 
1090.556 91218960 92857184 94525288 96202432 97875696 99532648 101156080 
1093.932 102720456 104188456 105516816 106666472 107608352 108336608 
1096.825 108872840 109271136 109608040 109972864 110453944 111109696 
1099.718 111953560 112936864 113953672 114844176 115419584 115512688 
1102.611 114993632 113806416 111977704 109610040 106860888 103903168 
1105.504 100917448 98057632 95435072 93126520 91165416 89551552 88259176 
1108.879 87247288 86468000 85869912 85408280 85042384 84735000 84453624 
1112.254 84165712 83839136 83446456 82965128 82382216 81696296 80916560 
1115.630 80059688 79146040 78197392 77234056 76273968 75334008 74428592 
1119.005 73568872 72761768 72008608 71305480 70644696 70017616 69417288 
1122.380 68838952 68280344 67738304 67206128 66672176 66119284 65526940 
1125.755 64877456 64158692 63369148 62518120 61626640 60723720 59839984 
1129.131 59006616 58248496 57579996 57005372 56517016 56098804 55727552 
1132.506 55379844 55035232 54679468 54307440 53923196 53538468 53169476 
1135.881 52834620 52551924 52335604 52195576 52135760 52153428 52239184 
1139.256 52377656 52550468 52736440 52915940 53073128 53195880 53277004 
1142.632 53313044 53302628 53245916 53144796 53003232 52827808 52627884 
1146.007 52415376 52201928 51998556 51814016 51654636 51525008 51428876 
1149.382 51369240 51349136 51370768 51434360 51538628 51680424 51856204 
1152.757 52062464 52296736 52557276 52842440 53149512 53474680 53812428 
1156.133 54157124 54504044 54849476 55190588 55524860 55848116 56154760 
1159.508 56437168 56686724 56895820 57058268 57169300 57225428 57223012 
1162.883 57157960 57025848 56822280 56544644 56192168 55765752 55267352 
1166.258 54699948 54066976 53373020 52625340 51834548 51014008 50179388 
1169.634 49347116 48531552 47745068 46997444 46295960 45647428 45058040 
1173.009 44533996 44081236 43705128 43409380 43197016 43070840 43033268 
1176.384 43088588 43242112 43500348 43870416 44359572 44974984 45724616 
1179.759 46617212 47662784 48873560 50261484 51838396 53615240 55600172 
1183.135 57799356 60215188 62843948 65670796 68662416 71765608 74895672 
1186.510 77940360 80773632 83252160 85241120 86631384 87341840 87337584 
1189.885 86630328 85278896 83376960 81042520 78408888 75598096 72718992 
1193.260 69862584 67093700 64460612 61997352 59724656 57655288 55794048 
1196.635 54138096 52678156 51398852 50282688 49308436 48455268 47703944 
1200.011 47035140 46431332 45876972 45357676 44862248 44383940 43919684 
1203.386 43471088 43042376 42638728 42264080 41920048 41605604 41317912 
1206.761 41053288 40808440 40581736 40372240 40179928 40004704 39846836 
1210.136 39707000 39587276 39491904 39427496 39402204 39425248 39505544 
1213.512 39650000 39863944 40149872 40508256 40937124 41432284 41987272 
1216.887 42592784 43238996 43915136 44611612 45321664 46040808 46767408 
1220.262 47501408 48244496 49000064 49773104 50571316 51405004 52285260 
1223.637 53223404 54228144 55303592 56448676 57656536 58915344 60207380 
1227.013 61511756 62803396 64054848 65240832 66340380 67342264 68247392 
1230.388 69070448 69838104 70583376 71345072 72163392 73075928 74122568 
1233.763 75342640 76773480 78452752 80413536 82681328 85274864 88203760 
1237.138 91469864 95066752 98981144 103189320 107652592 112320792 117128696 
1240.514 122000168 126863096 131649200 136300944 140774896 145031920 
1243.407 149032352 152732800 156078912 159006576 161447200 163321504 
1246.300 164547808 165048288 164750256 163603504 161589072 158723696 
1249.193 155057536 150664080 145630576 140041568 133979304 127528472 
1252.086 120775128 113819256 106775808 99760512 92895264 86295544 80054624 
1255.461 74251816 68941544 64149976 59880828 56114300 52814076 49929604 
1258.836 47405276 45187148 43221540 41463816 39878328 38436544 37119120 
1262.212 35912844 34808588 33799952 32881324 32047022 31291406 30608882 
1265.587 29993886 29441522 28946312 28502754 28104894 27746848 27423544 
1268.962 27132150 26872676 26647280 26460280 26316378 26219720 26173264 
1272.337 26179810 26242316 26364964 26554036 26816668 27159662 27587372 
1275.713 28098602 28684016 29323640 29987744 30634732 31214354 31677834 
1279.088 31979002 32086190 31988454 31697008 31242838 30668722 30024278 
1282.463 29354056 28691980 28061840 27475498 26937292 26448308 26008314 
1285.838 25617546 25276786 24986374 24745960 24554834 24412508 24319144 
1289.214 24274852 24279092 24329342 24420918 24547576 24702642 24880780 
1292.589 25079246 25296770 25532814 25785864 26052324 26327714 26608458 
1295.964 26894002 27188022 27499220 27840174 28224356 28665434 29176306 
1299.339 29767362 30447072 31219268 32080304 33014904 33992580 34970916 
1302.715 35893772 36701208 37341024 37771080 37969960 37938424 37698616 
1306.090 37289284 36759084 36163984 35556292 34980544 34472776 34053856 
1309.465 33732052 33503968 33358750 33281114 33255752 33270132 33314422 
1312.840 33380900 33462808 33553112 33644868 33731944 33810092 33877252 
1316.216 33933064 33977532 34009884 34028092 34029704 34013180 33979572 
1319.591 33933032 33879296 33824308 33772056 33723248 33675516 33625068 
1322.966 33569076 33506508 33438832 33370308 33306946 33256434 33227962 
1326.341 33233542 33287126 33402834 33592988 33864176 34215260 34636448 
1329.717 35112364 35625556 36159848 36703808 37250328 37794536 38331936 
1333.092 38855836 39357184 39826572 40255244 40637256 40969932 41253784 
1336.467 41491336 41686056 41842948 41968584 42071480 42162640 42254188 
1339.842 42356452 42478180 42623852 42795968 42996500 43229116 43499652 
1343.218 43816572 44188708 44624240 45130020 45711548 46372856 47116788 
1346.593 47941572 48836628 49776076 50718792 51603436 52356048 52904788 
1349.968 53183144 53146816 52781112 52102356 51157312 50013248 48756028 
1353.343 47472616 46242256 45134576 44196884 43455524 42916100 42566396 
1356.719 42382536 42334136 42393020 42533908 42735712 42982708 43261440 
1360.094 43561772 43879216 44216620 44586312 45006512 45499564 46080960 
1363.469 46752576 47497932 48282340 49058152 49764560 50338788 50718792 
1366.844 50847172 50685352 50219228 49466960 48475348 47314560 46065304 
1370.219 44797924 43570344 42419432 41361500 40400892 39537084 38772324 
1373.595 38115204 37578756 37174484 36904724 36760312 36723132 36771888 
1376.970 36890836 37074692 37331240 37679428 38148484 38778228 39614136 
1380.345 40709300 42117880 43877528 45992920 48408556 51005960 53589636 
1383.720 55911992 57723056 58775716 58881608 57947760 56005576 53231608 
1387.096 49915144 46422484 43083648 40128612 37673824 35725480 34224328 
1390.471 33081442 32210532 31537042 31000822 30559536 30181276 29844904 
1393.846 29540922 29268804 29035610 28850022 28717326 28636234 28599852 
1397.221 28598012 28621512 28665754 28731840 28826758 28959808 29140480 
1400.597 29373554 29659040 29991650 30362636 30761114 31175192 31594336 
1403.972 32009390 32412950 32799128 33162866 33499994 33808800 34091520 
1407.347 34355812 34613808 34881252 35173260 35500196 35866816 36271240 
1410.722 36708312 37172320 37660492 38173088 38712044 39278508 39870772 
1414.098 40484868 41117792 41770496 42450852 43173848 43960344 44833224 
1417.473 45810580 46899720 48088308 49340360 50598716 51796580 52873464 
1420.848 53781264 54491688 54997060 55311532 55475572 55554908 55639224 
1424.223 55816544 56154116 56684272 57400936 58274796 59270072 60361404 
1427.599 61534048 62781112 64097436 65474964 66905616 68388000 69935600 
1430.974 71576352 73341160 75255784 77326896 79544120 81884136 84327712 
1434.349 86873088 89534608 92339656 95309280 98439392 101685400 104978248 
1437.724 108252544 111462376 114582200 117586064 120434392 123051072 
1440.617 125323352 127126488 128323704 128794400 128455296 127259848 
1443.510 125214416 122379552 118880808 114893896 110617504 106271360 
1446.404 102051632 98118928 94596592 91549216 88980560 86832256 85008656 
1449.779 83399128 81910032 80494528 79160520 77967520 76995208 76318128 
1453.154 75968896 75925088 76109816 76406224 76687176 76824688 76736472 
1456.529 76420168 75973320 75555632 75319184 75369712 75748368 76457544 
1459.905 77482752 78798584 80368328 82133072 84017576 85916392 87693088 
1463.280 89204336 90304624 90888952 90929760 90489328 89700416 88713168 
1466.655 87669400 86672840 85786984 85049240 84468720 84027304 83674912 
1470.030 83330752 82892736 82250976 81332208 80134784 78753536 77348624 
1473.406 76094184 75120144 74481888 74182352 74197680 74500496 75067680 
1476.781 75876272 76895688 78078632 79362664 80681536 81966128 83160784 
1480.156 84232448 85171896 85998368 86752904 87494728 88288616 89202944 
1483.531 90314976 91704296 93453384 95636552 98296480 101421456 104917576 
1486.906 108614456 112246592 115476032 117947696 119300736 119249936 
1489.800 117661264 114588936 110284768 105116584 99489232 93731528 88050864 
1493.175 82565744 77314304 72307552 67579624 63197688 59270300 55926652 
1496.550 53271124 51352908 50154436 49614992 49653400 50191252 51164728 
1499.925 52515168 54183512 56108948 58218300 60431012 62667340 64827100 
1503.301 66794156 68426672 69523984 69838304 69100248 67100316 63828460 
1506.676 59561888 54805152 50057788 45639472 41652936 38059864 34781016 
1510.051 31755254 28954920 26388694 24080186 22044762 20283098 18776478 
1513.426 17495614 16408762 15486971 14705000 14036018 13453054 12933951 
1516.802 12465112 12048352 11696285 11422156 11228609 11101699 11010575 
1520.177 10919710 10802230 10657073 10512677 10412685 10389845 10448592 
1523.552 10567639 10712698 10854647 10977441 11084975 11194914 11329028 
1526.927 11499314 11702343 11923517 12147802 12368213 12589727 12825105 
1530.302 13086769 13379444 13696835 14023732 14342759 14645982 14939195 
1533.678 15242388 15575294 15948739 16356392 16782374 17206152 17611744 
1537.053 17991882 18345082 18673562 18977644 19250488 19478554 19649120 
1540.428 19762568 19834910 19890680 19950486 20018764 20084244 20125402 
1543.803 20123528 20071646 19980774 19875212 19783652 19725186 19702234 
1547.179 19702860 19708614 19705182 19688990 19670200 19667252 19698766 
1550.554 19773386 19887212 20028168 20184058 20349658 20528730 20731438 
1553.929 20968142 21242450 21548162 21871094 22193288 22498590 22771072 
1557.304 22993798 23149568 23225694 23227300 23183994 23143732 23147298 
1560.680 23209962 23325148 23470826 23620646 23746964 23829038 23857250 
1564.055 23835582 23781088 23717078 23664240 23630372 23608996 23582688 
1567.430 23532140 23441798 23307354 23137232 22951704 22775504 22628246 
1570.805 22522004 22459614 22438050 22450888 22488294 22536628 22575960 
1574.181 22582766 22535894 22423988 22256340 22063308 21886320 21755596 
1577.556 21678998 21642148 21620452 21589076 21529986 21435918 21307624 
1580.931 21150600 20970438 20770468 20551344 20313304 20059502 19796552 
1584.306 19533138 19276778 19030018 18789696 18549022 18302538 18049250 
1587.682 17795558 17551536 17329030 17136486 16977688 16853220 16763259 
1591.057 16710021 16697315 16727135 16796012 16891214 16992090 17076104 
1594.432 17123526 17124250 17079756 17001738 16906854 16810684 16726481 
1597.807 16664399 16633412 16645050 16712913 16850638 17069556 17375172 
1601.183 17767218 18241370 18792602 19414864 20099964 20834288 21593846 
1604.558 22342530 23037994 23631526 24077348 24341782 24403954 24262380 
1607.933 23932622 23445262 22838188 22149562 21418478 20679518 19963878 
1611.308 19299500 18704900 18188158 17744920 17360996 17015142 16684093 
1614.684 16348032 15993083 15615960 15227083 14849528 14512929 14242976 
1618.059 14055251 13951326 13921833 13949991 14015108 14097760 14181350 
1621.434 14257289 14327520 14404613 14505735 14645604 14830705 15057147 
1624.809 15314942 15593600 15887180 16192859 16509421 16833622 17157408 
1628.185 17470088 17762074 18029114 18274200 18505730 18732748 18959748 
1631.560 19184442 19396156 19578958 19715548 19788714 19786114 19703274 
1634.935 19546932 19335664 19096664 18858240 18639112 18445710 18272748 
1638.310 18107800 17934904 17738984 17509896 17245762 16954466 16650386 
1641.686 16350957 16068581 15806422 15557779 15307837 15038590 14732763 
1645.061 14380501 13983798 13557989 13129899 12730823 12388464 12119010 
1648.436 11926207 11802872 11734817 11702104 11677359 11628315 11513706 
1651.811 11293693 10950256 10513085 10062721 9686881 9432303 9289701 9221193 
1655.669 9185285 9152121 9106948 9045539 8971658 8891499 8810475 8729568 
1659.526 8646174 8555092 8451528 8332283 8197572 8050818 7898648 7749871 
1663.384 7613789 7498650 7409999 7348695 7311088 7289051 7271497 7245486 
1667.241 7199297 7125123 7021630 6894630 6755249 6616921 6490611 6382731 
1671.098 6295013 6225866 6170947 6122890 6072453 6007776 5917346 5795941 
1674.956 5648183 5490981 5346179 5232075 5155084 5109553 5082164 5058697 
1678.813 5030473 4996686 4964108 4943229 4941854 4959014 4983715 4994909 
1682.671 4968900 4887500 4749364 4576848 4408417 4278598 4199802 4165043 
1686.528 4156312 4156479 4153401 4141358 4119080 4088307 4052052 4013893 
1690.385 3978447 3951863 3940194 3947784 3973966 4012255 4049142 4067738 
1694.243 4052386 3995668 3905890 3808476 3734912 3706005 3723449 3770105 
1698.100 3820276 3844678 3819774 3737719 3613012 3480258 3375626 3319898 
1701.958 3310182 3330482 3360132 3381871 3383807 3359832 3311016 3244280 
1705.815 3171378 3103562 3049170 3012033 2991214 2983374 2983841 2988845 
1709.673 2996285 3006228 3020341 3040461 3067789 3101259 3138237 3175217 
1713.530 3208862 3237103 3259235 3274759 3282304 3279199 3262307 3230660 
1717.387 3188768 3147248 3119814 3117879 3146280 3202654 3280067 3369916 
1721.245 3464426 3559725 3654845 3751255 3852166 3959621 4074327 4195486 
1725.102 4321398 4450494 4581502 4712383 4839953 4959315 5064564 5150893 
1728.960 5216381 5263366 5297106 5323604 5345508 5359831 5356175 5319646 
1732.817 5236770 5104290 4938135 4770569 4640072 4571423 4567371 4614252 
1736.675 4691282 4778877 4860827 4926875 4973157 5001479 5017970 5029936 
1740.532 5043747 5061815 5083337 5105028 5123098 5133961 5135437 5127021 
1744.389 5109319 5083571 5050954 5011769 4965180 4909180 4841360 4759112 
1748.247 4660200 4542661 4404903 4245874 4066534 3870753 3666272 3464627 
1752.104 3277296 3113106 2975767 2862552 2766072 2675214 2579843 2472295 
1755.962 2351249 2222010 2095407 1982687 1890529 1818786 1760695 1706371 
1759.819 1644803 1568811 1475909 1369798 1258496 1151442 1057334 981046 
1763.677 923698 883522 856696 838204 821805 801688 773340 735767 691992 
1768.016 648685 613479 590518 578507 570213 554852 521610 464986 388305 
1772.356 304111 228850 175281 147869 142665 150885 163878 176275 187115 
1776.695 198219 212043 229182 247482 262865 271087 270988 263760 254544 
1781.035 248112 247482 251725 257030 258555 252455 238100 217546 195236 
1785.375 175513 161392 154001 153271 158807 170773 189137 212938 238995 
1789.714 262003 275132 271949 249239 208363 155956 101468 53547 16998 -7355 
1794.536 -21901 -29819 -33430 -33861 -31940 -28229 -24220 -22464 -24750 
1798.875 -32569 -45258 -60730 -75804 -87862 -95316 -98098 -97370 -94024 
1803.215 -88723 -81700 -72822 -62121 -50360 -38268 -26672 -15638 -5334 4738 
1808.037 13949 21603 26110 26375 21603 12856 2153 -8283 -16268 -21172 -23922 
1813.341 -25413 -27069 -29156 -31277 -32006 -30117 -24551 -15208 -2485 13750 
1818.163 33300 56629 84102 115686 150620 187612 225403 262600 298408 331798 
1822.984 361709 387078 407375 423526 438717 457457 484126 521411 567924 
1827.324 618920 666306 701981 720367 721131 710311 697600 693883 706096 
1831.664 735767 778983 830038 883389 935320 985363 1034350 1083973 1135495 
1836.003 1188785 1243609 1300401 1361090 1429133 1508625 1602531 1711360 
1839.861 1833959 1966244 2103830 2242426 2378834 2510719 2637543 2759603 
1843.718 2878628 2996752 3116310 3238171 3360834 3480057 3589725 3682546 
1847.575 3751656 3792198 3802259 3783140 3737653 3669848 3582776 3477987 
1851.433 3356760 3220646 3072427 2916821 2759569 2605342 2457433 2316970 
1855.290 2183146 2055089 1932395 1816257 1707901 1608351 1516472 1429565 
1859.148 1344404 1258130 1169780 1081282 995492 915397 842620 776792 716219 
1863.487 659702 607108 559762 519620 487509 462300 440773 418220 390494 
1867.827 356735 319662 284814 258356 244598 244034 253947 269993 287234 
1872.167 302751 314356 320259 319198 309449 289853 260146 221855 177833 
1876.506 131827 87283 45661 6659 -31111 -69211 -108566 -148183 -186968 
1880.846 -223332 -256812 -289064 -322109 -357634 -396301 -436685 -476603 
1884.703 -513108 -545275 -572774 -596996 -619264 -640737 -660720 -678783 
1888.561 -693537 -704818 -713088 -719042 -723309 -725327 -723938 -718215 
1892.418 -708589 -696548 -684936 -676533 -672630 -672166 -673093 -672299 
1896.275 -667535 -659793 -651324 -645170 -644442 -649703 -659429 -670744 
1900.133 -681198 -688575 -693206 -695621 -697176 -698566 -699393 -699029 
1903.990 -697375 -695158 -693504 -693339 -695191 -697739 -700021 -701047 
1907.848 -701411 -703428 -710045 -722383 -739815 -759033 -774810 -782450 
1911.705 -780234 -769154 -753344 -737864 -726783 -721655 -722846 -728800 
1915.563 -738790 -753410 -773289 -798458 -827396 -855274 -876603 -887713 
1919.420 -888474 -883051 -877893 -879447 -891218 -912281 -937046 -958271 
1923.277 -970107 -970372 -961478 -948783 -938137 -932714 -933177 -937343 
1927.135 -942468 -947064 -951163 -955395 -960718 -966173 -969810 -969016 
1930.992 -963396 -953973 -944551 -939691 -942038 -951824 -966041 -980752 
1934.850 -991992 -998042 -1000058 -1000158 -1000786 -1001711 -1001976 
1938.225 -999563 -994240 -988191 -986075 -992686 -1011529 -1042172 -1079754 
1942.082 -1116638 -1145918 -1162276 -1164754 -1155832 -1139904 -1120604 
1945.458 -1101204 -1083621 -1069441 -1060848 -1059261 -1064979 -1075424 
1948.833 -1085604 -1088909 -1080745 -1060451 -1032851 -1007232 -994736 
1952.208 -1002968 -1034603 -1086000 -1149058 -1214154 -1274352 -1325556 
1955.583 -1368695 -1406281 -1439869 -1469226 -1492341 -1505747 -1508025 
1958.958 -1500563 -1487124 -1473684 -1465660 -1467212 -1479958 -1505615 
1962.334 -1543619 -1593009 -1651899 -1715336 -1775597 -1825059 -1855743 
1965.709 -1862639 -1847132 -1814269 -1773617 -1734709 -1706425 -1694082 
1969.084 -1701244 -1728439 -1774574 -1837267 -1911333 -1988288 -2058799 
1972.459 -2111230 -2137377 -2133355 -2100745 -2043794 -1968927 -1879069 
1975.835 -1774904 -1654738 -1520573 -1377844 -1240091 -1123644 -1043395 
1979.210 -1008587 -1018802 -1064781 -1131146 -1201268 -1262326 -1307123 
1982.585 -1334541 -1348216 -1354195 -1358225 -1364467 -1374806 -1389966 
1985.960 -1408032 -1426361 -1440793 -1447101 -1442345 -1426361 -1402054 
1989.336 -1375565 -1354789 -1345210 -1348943 -1362882 -1379595 -1389008 
1992.711 -1384054 -1361065 -1322715 -1274814 -1225719 -1182103 -1147471 
1996.086 -1122785 -1106359 -1096444 -1091751 -1092247 -1099320 -1114457 
1999.461 -1138251 -1170967 -1211908 -1259485 -1312772 -1370974 -1432702 
2002.837 -1496105 -1558377 -1614763 -1660448 -1690781 -1702399 -1693455 
2006.212 -1665399 -1620474 -1563791 -1501785 -1440595 -1386201 -1343790 
2009.587 -1314721 -1298865 -1294074 -1297841 -1306925 -1320205 -1336160 
2012.962 -1354426 -1373914 -1392410 -1406116 -1411599 -1404432 -1382435 
2016.338 -1345574 -1296915 -1240389 -1181806 -1126850 -1079126 -1041346 
2019.713 -1013711 -993282 -976554 -958172 -933574 -900245 -859077 -811952 
2023.570 -764656 -721523 -685796 -657312 -633226 -609768 -583893 -554707 
2027.428 -525155 -500433 -486433 -484944 -495832 -513671 -530185 -535910 
2031.285 -523500 -488750 -432084 -356872 -268667 -173653 -78156 14413 101965 
2035.625 183137 258688 330074 397492 461271 521544 577114 626751 669857 
2039.964 706196 736298 761391 782568 800692 817821 835017 853874 876384 
2044.304 904008 937943 978721 1026412 1080252 1141176 1208554 1282123 
2048.161 1360790 1440702 1516106 1581314 1630335 1660335 1672941 1673740 
2052.019 1671112 1673939 1689572 1720608 1766484 1822047 1880046 1934425 
2055.876 1980989 2018138 2047066 2069804 2088615 2105129 2120212 2133664 
2059.734 2146017 2158138 2170325 2183646 2198731 2214750 2230303 2244025 
2063.591 2253417 2255948 2251552 2239262 2220345 2197466 2172989 2150246 
2067.448 2132099 2119879 2113553 2112587 2114551 2117748 2120045 2121144 
2071.306 2121410 2122509 2126072 2133930 2147016 2164831 2185844 2208123 
2075.163 2228971 2246456 2259512 2268005 2273135 2276865 2281762 2289789 
2079.021 2302980 2322067 2346618 2376302 2409519 2444305 2478827 2511419 
2082.878 2540213 2564044 2582676 2596309 2606475 2614375 2620842 2626042 
2086.736 2628109 2624976 2613542 2592009 2560177 2519783 2474761 2429410 
2090.593 2388196 2354114 2328763 2312507 2306011 2308909 2321601 2344220 
2094.450 2375569 2412751 2452468 2490023 2521550 2545479 2562377 2574476 
2098.308 2584976 2597242 2612242 2630376 2650678 2671614 2693518 2717857 
2102.165 2747032 2783646 2830034 2886200 2950613 3019707 3089146 3155158 
2106.023 3214637 3266413 3311050 3350816 3389017 3428824 3473544 3524549 
2109.880 3581707 3643918 3708110 3771509 3831908 3887636 3938322 3984733 
2113.738 4027337 4066266 4101720 4132895 4159489 4181301 4198631 4212382 
2117.595 4223322 4232189 4240186 4248183 4257685 4269999 4287265 4310054 
2121.452 4339203 4373976 4412735 4453741 4495420 4536735 4576915 4616061 
2125.310 4654038 4690277 4724911 4758241 4790636 4823602 4858683 4896145 
2129.167 4935688 4975972 5014618 5050417 5083303 5114884 5148982 5189253 
2133.025 5238380 5296502 5361542 5429242 5494269 5552996 5602333 5641503 
2136.882 5671480 5693301 5708341 5719152 5726874 5733219 5738860 5742956 
2140.740 5742519 5733958 5712571 5674971 5620592 5552157 5474270 5392774 
2144.597 5313038 5237441 5166384 5098222 5029232 4957070 4879256 4793617 
2148.454 4698583 4592485 4473458 4341411 4196758 4041617 3878977 3712087 
2152.312 3542554 3371819 3200150 3027281 2853647 2681282 2513118 2355446 
2156.169 2217647 2110389 2046733 2038311 2089680 2197632 2348517 2521583 
2160.027 2692684 2843508 2962123 3047735 3105130 3143176 3169643 3188234 
2163.884 3197981 3195945 3178955 3146380 3101059 3048202 2992248 2935401 
2167.741 2877127 2814526 2743864 2664846 2578076 2486524 2394059 2302580 
2171.599 2213018 2126705 2046300 1975897 1922045 1890562 1882708 1894555 
2175.456 1915621 1932295 1932262 1906736 1854623 1781588 1697223 1611744 
2179.314 1533563 1468362 1418562 1385088 1367970 1365776 1375183 1391337 
2183.171 1406994 1414739 1410717 1393797 1366940 1336428 1307746 1284715 
2187.029 1268233 1256569 1247430 1240319 1235834 1235601 1240486 1249590 
2190.886 1258795 1264212 1262716 1254276 1243177 1235867 1237894 1251950 
2194.743 1275842 1304024 1330744 1350985 1363948 1372956 1382928 1398318 
2198.601 1421620 1452803 1490205 1530504 1571903 1612176 1649326 1680126 
2202.458 1700516 1706038 1695127 1668384 1631166 1591158 1555310 1528642 
2206.316 1512615 1504004 1498983 1493530 1485717 1476508 1467897 1462677 
2210.173 1462777 1469193 1482193 1502208 1530038 1565053 1606256 1650257 
2214.031 1692633 1728958 1757036 1777430 1792967 1808505 1826639 1847468 
2217.888 1868133 1884173 1892159 1891860 1886502 1881510 1882143 1891361 
2221.745 1907701 1927403 1945642 1958556 1965212 1967176 1967110 1966544 
2225.603 1966111 1965212 1962982 1960586 1959887 1963814 1974465 1990542 
2229.460 2008950 2025794 2037246 2042605 2044503 2047166 2054323 2067873 
2233.318 2086018 2104696 2120312 2130833 2137326 2143154 2152011 2165730 
2237.175 2183546 2203027 2220145 2233534 2243925 2253650 2265507 2280929 
2241.032 2298849 2316937 2332560 2345053 2356579 2371704 2394659 2428677 
2244.890 2474095 2528215 2586776 2645577 2701586 2752667 2798052 2836170 
2248.747 2865353 2884599 2893271 2894038 2891503 2890836 2896340 2910383 
2252.605 2931431 2956785 2982573 3006795 3029216 3051238 3074162 3097755 
2256.462 3120215 3137936 3147548 3147682 3138503 3122284 3101259 3076832 
2260.320 3049103 3018206 2984575 2950747 2921391 2901743 2895006 2902444 
2264.177 2921024 2945476 2970696 2992415 3009264 3021575 3031452 3039693 
2268.034 3046767 3052006 3054842 3055843 3056711 3059247 3064786 3072494 
2271.892 3080369 3086176 3088812 3089413 3092015 3100926 3119080 3146614 
2275.749 3180724 3216339 3248419 3273924 3292787 3307043 3319196 3331083 
2279.607 3342435 3352219 3359231 3363805 3368013 3375693 3389384 3410089 
2283.464 3436205 3463257 3487406 3504975 3515063 3518871 3518771 3517401 
2287.322 3516733 3517167 3519038 3522244 3527055 3533702 3541953 3550772 
2291.179 3558890 3564502 3567810 3569614 3572721 3580505 3594570 3614850 
2295.036 3639174 3663933 3685854 3703364 3716999 3729030 3742532 3759176 
2298.894 3779764 3803329 3828098 3852534 3875701 3897231 3916890 3934443 
2302.751 3949088 3960122 3968181 3974333 3981590 3992558 4009713 4033725 
2306.609 4064193 4099211 4137444 4178525 4222620 4270065 4321398 4375047 
2310.466 4428802 4479919 4526590 4568410 4606919 4644928 4684583 4727389 
2314.323 4772713 4819180 4865317 4910152 4954020 4997591 5041333 5084577 
2318.181 5126049 5164238 5198575 5230633 5262996 5298448 5338195 5380630 
2322.038 5420788 5451823 5467392 5463332 5439476 5399484 5349466 5296804 
2325.896 5248072 5208232 5180501 5165948 5163769 5171581 5185698 5201660 
2329.753 5214771 5222384 5223658 5220204 5215543 5213497 5217085 5227515 
2333.611 5244182 5265746 5290834 5318908 5350237 5385293 5423807 5464237 
2337.468 5504638 5542760 5577831 5610757 5643820 5679067 5717910 5759542 
2341.325 5801481 5840301 5872844 5896858 5910864 5913652 5903374 5878990 
2345.183 5840368 5790836 5737920 5692025 5664431 5664901 5698538 5765015 
2349.040 5858839 5971898 6093823 6215211 6329405 6432262 6522699 6601278 
2352.898 6669071 6727351 6776754 6818219 6852821 6882074 6907692 6930484 
2356.755 6951055 6969439 6986779 7004322 7024425 7049076 7078408 7110573 
2360.613 7141493 7166790 7182724 7188113 7184913 7176323 7166150 7157156 
2364.470 7150251 7145030 7141055 7137653 7135396 7134521 7135059 7135329 
2368.327 7133342 7126908 7115019 7098279 7079082 7059818 7042441 7027422 
2372.185 7014054 7000854 6987284 6973580 6960785 6950348 6942537 6936174 
2376.042 6929912 6921663 6910890 6898737 6886989 6878404 6874466 6875408 
2379.900 6880121 6887123 6895337 6904528 6915705 6930383 6949439 6972906 
2383.757 6999911 7029106 7059347 7090432 7122563 7156179 7191246 7227057 
2387.615 7262231 7296060 7328173 7359614 7391968 7426042 7462143 7498515 
2391.472 7533070 7563751 7590084 7613350 7636618 7662922 7694488 7731656 
2395.329 7773449 7817472 7862140 7906544 7951086 7996308 8042616 8089164 
2399.187 8134570 8177819 8218371 8257172 8296617 8338835 8385381 8436528 
2403.044 8491667 8550057 8611868 8678420 8751577 8832825 8922072 9017257 
2406.902 9115068 9212326 9306932 9399391 9491801 9587009 9687253 9792773 
2410.759 9902420 10014027 10125901 10236751 10346781 10456195 10564040 
2414.134 10668755 10767414 10857433 10937004 11006395 11066858 11120122 
2417.510 11167614 11209466 11245508 11275602 11301447 11326137 11353720 
2420.885 11388005 11430933 11482371 11540076 11601089 11663608 11727158 
2424.260 11792931 11862595 11937344 12017012 12100816 12187738 12277847 
2427.635 12372748 12475444 12589146 12715367 12854456 13004720 13163779 
2431.010 13329832 13501964 13680045 13864358 14054122 14247906 14443696 
2434.386 14639984 14836533 15035298 15238648 15449442 15668789 15896220 
2437.761 16129822 16367437 16607696 16850500 17096504 17345962 17597700 
2441.136 17849448 18097540 18339208 18573228 18800940 19025102 19249172 
2444.511 19474812 19702546 19931060 20158582 20383480 20605438 20824658 
2447.887 21040826 21253166 21459416 21657612 21846318 22026428 22200402 
2451.262 22370994 22540500 22708260 22872240 23029118 23177004 23316968 
2454.637 23453444 23592588 23740490 23900904 24073286 24254460 24439180 
2458.012 24622576 24801630 24974932 25141630 25300562 25449716 25586160 
2461.388 25707742 25814698 25909330 25996282 26080788 26166928 26257488 
2464.763 26353416 26455808 26566434 26688574 26826536 26983900 27162660 
2468.138 27362596 27581406 27817000 28067708 28333486 28615778 28916066 
2471.513 29234566 29569936 29919478 30280456 30650908 31029720 31416450 
2474.889 31809154 32203790 32593708 32971398 33329376 33662876 33970004 
2478.264 34251792 34509008 34742212 34949692 35128244 35273980 35385152 
2481.639 35461112 35504292 35517780 35504436 35466792 35407116 35327820 
2485.014 35232656 35126556 35013620 34897160 34778328 34654968 34524324 
2488.390 34383892 34232648 34070772 33899752 33719772 33529378 33325550 
2491.765 33104864 32864380 32603852 32325204 32030574 31721532 31397286 
2495.140 31055060 30691410 30304294 29894488 29465952 29024450 28574798 
2498.515 28120378 27661596 27197334 26726698 26250378 25771026 25292694 
2501.891 24819346 24353488 23896494 23448234 23009274 22580984 22166264 
2505.266 21767614 21386594 21023052 20675174 20340700 20018730 19710210 
2508.641 19417950 19144446 18891084 18656752 18438484 18232732 18037160 
2512.016 17851656 17678584 17520488 17379516 17255210 17144998 17046190 
2515.392 16956568 16876472 16808926 16757026 16723692 16709022 16710641 
2518.767 16724793 16748141 16778962 16817158 16863692 16919050 16981856 
2522.142 17049394 17118322 17185984 17251830 17317340 17384276 17453738 
2525.517 17525144 17595630 17661470 17719552 17768184 17807364 17836984 
2528.893 17856834 17864604 17857214 17831252 17785340 17720518 17640384 
2532.268 17549638 17452980 17352686 17249796 17144482 17037024 16928868 
2535.643 16822634 16720179 16622499 16528558 16436188 16343078 16248887 
2539.018 16155509 16066346 15985005 15913507 15851060 15795117 15741894 
2542.394 15688816 15635366 15582953 15533122 15486936 15443262 15399763 
2545.769 15353386 15302621 15248085 15192082 15137493 15086169 15038453 
2549.144 14992903 14947392 14900994 14854430 14809379 14767830 14730569 
2552.519 14696773 14664453 14631657 14598108 14565214 14535850 14512484 
2555.895 14495560 14483536 14473053 14460446 14443969 14423623 14401462 
2559.270 14379404 14357931 14335328 14308753 14274990 14232945 14184089 
2562.645 14131886 14080578 14032870 13989409 13948931 13909824 13871029 
2566.020 13833571 13799811 13772141 13751825 13738044 13728742 13721697 
2569.396 13715780 13712224 13712942 13720294 13735102 13755725 13779152 
2572.771 13802171 13822660 13840960 13859021 13878829 13901682 13927409 
2576.146 13954166 13980308 14005322 14030268 14057031 14087834 14122576 
2579.521 14159955 14197749 14234211 14269512 14306254 14348102 14398379 
2582.896 14458665 14527217 14600438 14674735 14747125 14817471 14887244 
2586.272 14958435 15032245 15108537 15185460 15261333 15335709 15409650 
2589.647 15484910 15563446 15645636 15730076 15814291 15895704 15973419 
2593.022 16048295 16122462 16197398 16273586 16349202 16420839 16485503 
2596.397 16541811 16590381 16633550 16674589 16715324 16756888 16799318 
2599.773 16842542 16887770 16936998 16992678 17056494 17128248 17205978 
2603.148 17286548 17367860 17449288 17532216 17619300 17712718 17813130 
2606.523 17919156 18028146 18137958 18248004 18359600 18475270 18597540 
2609.898 18727248 18863432 19003776 19146038 19288934 19432502 19577850 
2613.274 19725430 19874588 20022998 20167502 20305942 20437482 20563468 
2616.649 20686050 20807104 20926868 21043814 21155470 21259812 21356766 
2620.024 21448380 21537436 21627070 21718356 21810502 21900990 21987074 
2623.399 22067212 22141334 22211072 22277616 22342110 22404240 22462998 
2626.775 22517642 22567934 22615192 22660674 22705500 22749354 22790906 
2630.150 22828654 22861970 22891310 22918974 22947406 22978288 23011476 
2633.525 23045332 23077688 23106864 23132690 23156208 23179312 23202972 
2636.900 23226496 23248170 23265752 23278022 23285924 23292774 23301970 
2640.276 23317352 23340148 23369974 23405256 23444212 23486424 23532700 
2643.651 23584612 23643002 23707176 23775068 23843950 23911478 23977196 
2647.026 24042642 24110202 24182396 24260348 24343358 24429682 24517144 
2650.401 24604518 24691560 24778582 24865938 24953418 25040002 25124674 
2653.777 25207256 25288762 25371444 25457724 25549084 25645596 25746240 
2657.152 25848982 25952628 26056968 26162916 26271778 26383658 26497858 
2660.527 26611840 26723422 26831190 26935494 27038412 27142944 27251062 
2663.902 27363442 27478534 27594328 27708670 27820814 27931576 28042544 
2667.278 28155024 28269228 28384136 28498226 28610152 28720088 28829910 
2670.653 28941460 29056830 29176482 29299606 29424680 29550322 29676744 
2674.028 29805226 29938112 30076792 30221804 30371982 30525196 30679462 
2677.403 30834102 30989152 31145966 31305544 31468208 31633322 31800032 
2680.779 31967730 32136850 32308712 32485108 32666862 32854088 33045686 
2684.154 33240158 33436864 33636272 33840144 34050236 34267744 34492468 
2687.529 34722760 34956876 35193416 35432496 35675480 35923856 36178752 
2690.904 36439956 36705824 36974564 37244948 37517524 37793924 38076356 
2694.280 38366140 38663360 38966476 39273392 39582448 39893728 40208280 
2697.655 40528008 40854340 41187220 41525316 41867104 42210912 42556676 
2701.030 42904944 43256896 43612728 43971780 44331828 44690744 45046976 
2704.405 45400896 45753588 46106976 46461864 46817308 47171412 47521036 
2707.781 47863952 48199364 48527844 48850868 49169416 49483816 49793208 
2711.156 50096908 50394788 50687696 50977452 51265276 51551684 51834588 
2714.531 52111024 52377432 52631136 52870992 53097016 53309896 53509384 
2717.906 53694272 53862388 54012640 54145112 54262836 54370788 54474560 
2721.281 54579256 54688112 54803124 54925460 55056668 55199508 55357296 
2724.657 55533404 55729512 55945308 56179120 56428488 56691596 56968272 
2728.032 57259300 57565464 57885968 58218300 58558472 58902176 59245880 
2731.407 59588492 59930424 60272624 60614944 60955664 61291308 61618276 
2734.782 61933380 62235288 62524012 62800676 63065296 63317204 63554628 
2738.158 63776380 63982620 64176172 64361460 64543224 64725980 64912356 
2741.533 65103240 65299204 65501704 65713196 65937480 66178240 66437088 
2744.908 66713632 67005968 67310688 67625000 67947480 68276896 68611576 
2748.283 68948184 69280776 69601528 69902856 70178272 70423896 70638152 
2751.659 70821032 70972624 71092032 71177976 71229272 71246176 71230320 
2755.034 71184376 71110296 71008128 70875216 70707240 70498952 70246896 
2758.409 69949616 69608448 69225632 68803392 68343328 67846704 67315488 
2761.784 66753856 66167400 65564700 64953908 64342020 63734284 63134380 
2765.160 62545292 61971556 61418688 60893288 60401768 59948948 59536768 
2768.535 59165188 58833192 58539932 58285592 58071136 57897212 57762644 
2771.910 57664516 57597964 57557144 57537432 57535052 57547156 57571860 
2775.285 57605796 57644464 57682680 57714544 57735548 57742436 57733464 
2778.661 57707012 57661340 57594708 57505092 57392388 57258924 57108716 
2782.036 56948400 56783840 56619984 56459320 56302900 56150912 56003652 
2785.411 55862056 55726388 55595764 55467104 55335244 55193564 55035568 
2788.786 54857560 54658012 54437900 54199168 53944204 53674624 53391604 
2792.162 53097240 52795408 52491684 52193036 51906388 51637508 51390612 
2795.537 51168384 50973132 50807204 50673472 50575112 50513692 50490208 
2798.912 50503120 50550656 50630992 50743256 50887404 51063384 51269864 
2802.287 51503708 51760336 52033848 52319684 52614868 52918448 53230784 
2805.663 53551700 53879304 54209900 54538268 54858836 55167340 55459988 
2809.038 55733844 55986052 56212116 56406644 56564192 56680684 56754348 
2812.413 56785688 56776588 56729652 56646444 56527812 56374804 56189792 
2815.788 55978096 55746916 55505544 55263588 55029252 54809588 54610816 
2819.164 54438688 54299404 54199540 54144100 54135956 54174500 54256376 
2822.539 54375896 54527112 54705024 54905496 55124340 55356956 55596328 
2825.914 55834136 56061936 56271932 56459468 56622208 56759824 56872664 
2829.289 56961092 57025056 57065372 57084192 57085852 57076368 57062008 
2832.665 57047724 57035784 57026680 57019880 57015344 57015044 57022864 
2836.040 57042888 57078748 57132524 57204412 57294760 57405508 57541256 
2839.415 57709812 57920116 58181020 58500956 58885668 59341404 59875504 
2842.790 60497504 61219276 62054108 63012816 64102656 65323316 66666424 
2846.166 68111552 69626192 71165752 72668344 74061976 75270016 76213152 
2849.541 76828128 77073504 76936496 76435376 75615216 74542584 73288128 
2852.916 71925936 70523968 69136032 67806968 66568004 65437324 64421952 
2856.291 63519232 62718748 62006256 61366748 60787060 60255988 59764692 
2859.667 59305360 58869692 58449288 58036368 57624448 57209404 56789164 
2863.042 56362616 55928948 55487056 55036436 54578728 54118764 53666072 
2866.417 53231756 52828820 52468128 52156644 51897912 51692292 51538740 
2869.792 51436152 51382144 51373492 51403476 51462004 51536464 51612728 
2873.167 51678816 51726368 51751340 51753092 51733424 51694160 51637100 
2876.543 51563924 51476700 51378712 51273928 51166368 51058576 50951928 
2879.918 50846168 50741100 50637768 50538852 50448188 50370004 50306644 
2883.293 50258396 50223316 50199028 50183888 50177900 50182960 50201148 
2886.668 50233952 50280972 50340240 50408888 50485556 50569752 50663048 
2890.044 50767276 50883900 51012924 51153432 51304760 51467708 51645156 
2893.419 51842020 52063584 52314824 52599120 52918152 53272432 53661800 
2896.794 54084764 54537816 55012704 55497296 55974444 56424984 56832252 
2900.169 57184796 57479184 57719460 57916712 58085600 58240428 58395724 
2903.545 58564504 58758532 58989992 59270604 59610348 60017420 60497960 
2906.920 61056596 61698852 62432952 63269704 64223988 65309108 66535248 
2910.295 67904120 69406600 71019832 72706224 74418016 76094736 77668192 
2913.670 79073216 80245464 81134496 81710056 81962648 81906184 81571696 
2917.046 81004592 80253592 79364928 78382576 77342176 76273416 75201336 
2920.421 74144144 73113688 72116016 71151040 70215232 69304600 68417872 
2923.796 67556624 66726616 65933548 65182732 64476564 63814296 63193164 
2927.171 62609388 62059268 61538592 61042180 60563364 60093592 59625020 
2930.547 59151820 58672012 58187916 57705688 57232912 56776060 56340208 
2933.922 55928160 55541616 55182464 54853500 54557200 54295308 54067464 
2937.297 53871468 53703940 53562272 53446052 53357024 53298580 53273596 
2940.672 53282924 53324544 53394304 53486676 53596196 53717740 53845400 
2944.048 53971252 54084912 54172588 54220600 54217032 54155060 54034480 
2947.423 53862016 53649764 53411504 53162996 52919088 52692596 52495164 
2950.798 52335792 52219864 52148384 52117712 52120624 52147712 52190456 
2954.173 52242356 52299464 52360052 52422180 52482972 52538728 52584948 
2957.549 52619284 52641724 52655712 52666524 52679128 52697012 52721140 
2960.924 52750808 52785000 52823544 52867664 52919384 52979084 53045724 
2964.299 53115624 53184268 53247824 53304576 53355528 53403148 53450324 
2967.674 53498252 53546528 53594056 53640092 53686056 53735664 53793680 
2971.050 53864452 53950208 54050500 54162676 54283448 54409916 54540296 
2974.425 54673196 54806392 54935952 55056556 55161732 55245748 55305060 
2977.800 55338328 55346040 55329032 55288200 55223964 55137544 55031772 
2981.175 54912188 54786056 54660868 54542512 54432752 54329740 54228032 
2984.551 54121128 54002056 53864792 53704732 53516880 53297272 53042204 
2987.926 52750320 52423228 52065784 51685464 51289512 50883380 50469252 
2991.301 50046448 49613392 49169604 48717848 48263676 47814604 47376044 
2994.676 46951032 46537948 46132216 45726900 45315780 44894360 44459768 
2998.052 44010796 43547376 43069928 42580612 42082832 41582048 41084284 
3001.427 40595052 40117964 39654176 39202420 38761308 38330056 37909788 
3004.802 37502752 37111540 36737088 36378020 36031992 35696200 35369048 
3008.177 35051728 34746664 34456308 34181168 33918952 33664772 33413318 
3011.552 33160328 32904624 32647822 32393314 32144092 31901576 31665254 
3014.928 31433762 31205988 30982178 30763532 30551858 30347998 30151016 
3018.303 29958844 29769244 29581178 29395678 29215536 29043794 28882246 
3021.678 28731238 28588988 28453860 28325388 28204944 28096446 28003738 
3025.053 27929916 27876068 27841128 27823218 27820074 27830424 27852752 
3028.429 27884018 27919314 27950128 27966488 27958964 27920446 27847806 
3031.804 27742152 27607428 27448426 27269338 27073676 26864956 26646928 
3035.179 26424962 26204234 25989600 25783332 25585002 25392416 25202690 
3038.554 25014276 24827942 24645932 24470624 24303374 24143336 23988260 
3041.930 23835688 23684570 23535884 23392142 23256348 23129404 23010674 
3045.305 22897736 22788146 22680712 22576902 22479152 22390146 22311066 
3048.680 22240122 22173760 22107966 22040544 21971390 21902908 21837714 
3052.055 21777752 21722956 21671406 21620488 21568984 21517452 21467980 
3055.431 21422970 21384018 21350396 21319980 21290294 21260370 21231036 
3058.806 21204804 21184590 21171890 21166290 21165804 21167680 21170674 
3062.181 21175266 21183824 21199028 21222826 21255428 21295410 21340548 
3065.556 21389170 21440514 21494438 21550320 21606452 21658972 21703414 
3068.932 21735462 21752636 21754864 21743544 21721038 21689064 21648314 
3072.307 21599036 21541860 21479294 21415206 21354260 21299934 21253724 
3075.682 21214372 21178850 21143782 21106770 21068022 21028304 20989286 
3079.057 20951034 20912718 20872700 20829838 20784510 20738980 20695850 
3082.433 20657452 20623922 20593938 20564788 20534462 20502954 20472422 
3085.808 20445576 20425258 20412130 20404456 20399628 20395080 20390356 
3089.183 20387266 20388412 20396294 20411158 20430746 20451306 20469264 
3092.558 20482808 20492638 20501460 20512368 20527236 20546308 20568472 
3095.934 20592130 20616728 20643136 20672464 20705408 20741516 20778880 
3099.309 20814926 20848262 20879550 20911118 20946168 20986956 21033206 
3102.684 21082562 21131502 21177040 21218476 21257308 21296246 21337762 
3106.059 21382278 21428294 21472888 21513726 21550076 21583434 21616588 
3109.435 21651936 21690632 21731978 21774512 21817016 21860222 21905732 
3112.810 21956054 22012240 22072930 22134536 22192626 22243856 22287346 
3116.185 22324984 22360076 22395764 22433374 22471650 22508430 22541826 
3119.560 22571562 22599414 22628038 22659592 22694398 22731022 22766740 
3122.936 22799740 22830156 22859946 22892078 22928404 22968820 23011300 
3126.311 23052878 23091630 23127484 23162674 23200248 23241806 23287356 
3129.686 23333924 23377806 23416130 23448968 23478276 23508426 23542914 
3133.061 23583246 23628308 23675506 23722362 23767928 23813462 23861172 
3136.437 23913088 23969772 24029510 24089502 24147612 24202784 24256002 
3139.812 24309366 24364316 24421164 24478756 24535340 24589932 24643162 
3143.187 24696890 24753396 24813910 24877552 24941766 25003956 25062468 
3146.562 25118108 25173406 25231694 25295154 25363962 25436082 25509024 
3149.938 25580782 25651322 25721876 25794126 25868290 25942570 26013836 
3153.313 26079204 26137474 26190544 26242704 26298530 26361020 26430244 
3156.688 26503318 26576508 26646506 26712920 26777478 26843384 26912650 
3160.063 26985910 27061156 27136030 27209080 27280804 27353314 27429898 
3163.438 27512000 27599200 27688858 27777792 27863598 27946206 28027522 
3166.814 28109596 28193594 28278706 28362208 28441372 28515528 28586050 
3170.189 28656904 28731840 28813056 28899882 28989064 29076528 29159296 
3173.564 29237262 29312578 29388338 29466450 29546774 29627326 29705198 
3176.939 29778966 29849092 29918482 29990334 30066282 30145864 30226388 
3180.315 30305288 30381434 30456312 30533550 30617024 30708550 30806890 
3183.690 30907990 31006838 31100368 31188294 31273316 31359390 31449612 
3187.065 31544984 31643442 31741888 31838286 31932176 32025616 32121542 
3190.440 32221954 32326740 32434444 32542422 32649464 32755748 32863882 
3193.816 32975900 33092812 33212722 33332024 33446812 33554972 33656964 
3197.191 33755868 33855688 33959508 34067976 34179484 34291948 34403692 
3200.566 34515140 34627980 34743868 34862944 34983128 35100616 35212136 
3203.941 35316136 35414556 35511920 35612644 35720052 35834104 35952292 
3207.317 36070944 36187432 36301644 36415416 36531424 36651060 36773256 
3210.692 36895164 37013600 37126628 37235384 37343080 37453880 37570704 
3214.067 37693988 37821284 37949780 38076500 38200656 38323108 38445052 
3217.442 38566884 38687664 38805436 38918564 39027408 39134612 39244088 
3220.818 39359688 39482828 39611816 39743200 39872876 39998308 40120108 
3224.193 40240884 40363620 40489960 40619028 40748092 40874036 40995240 
3227.568 41112760 41229080 41347212 41468296 41590692 41711036 41825908 
3230.943 41933516 42035668 42135548 42237460 42343596 42453376 42563876 
3234.319 42671624 42774284 42872576 42969284 43068684 43173084 43283436 
3237.694 43397848 43513828 43629616 43745584 43863304 43984760 44110728 
3241.069 44239664 44368304 44493428 44612968 44727620 44840092 44954072 
3244.444 45071644 45193656 45318576 45444784 45571060 45698296 45828364 
3247.820 45963708 46105056 46251544 46400768 46550080 46697748 46844060 
3251.195 46990056 47137356 47286184 47435988 47584992 47732420 47879012 
3254.570 48027016 48179556 48338516 48503576 48672484 48841412 49007220 
3257.945 49169120 49328556 49488348 49650800 49816060 49981980 50145512 
3261.321 50303856 50456748 50606904 50758264 50914412 51076984 51244360 
3264.696 51413400 51580860 51745368 51907884 52071952 52240640 52415752 
3268.071 52596840 52781448 52966768 53151240 53334880 53518232 53702068 
3271.446 53885496 54066376 54242372 54412208 54577112 54740880 54908200 
3274.822 55082400 55264416 55451928 55641560 55829916 56016280 56202124 
3278.197 56391288 56586652 56789352 56997928 57209248 57420412 57630500 
3281.572 57840844 58053976 58271916 58495192 58721432 58947828 59172476 
3284.947 59395992 59621864 59854624 60098240 60354056 60619856 60891424 
3288.323 61164456 61436820 61709280 61984660 62265956 62555128 62851304 
3291.698 63152544 63456260 63761996 64070708 64384752 64705908 65034152 
3295.073 65367380 65702556 66037340 66371804 66708224 67050824 67403096 
3298.448 67766256 68139152 68518688 68902056 69288048 69677920 70074152 
3301.823 70479352 70894320 71318328 71749232 72185536 72627528 73077344 
3305.199 73537984 74011168 74496680 74991976 75493408 75998144 76506464 
3308.574 77021000 77546048 78085416 78640424 79209816 79790672 80379960 
3311.949 80976640 81581736 82197800 82826896 83469072 84122560 84784056 
3315.324 85451392 86124000 86803808 87493632 88195800 88909840 89633408 
3318.700 90362224 91093280 91825368 92560000 93299944 94047528 94802592 
3322.075 95562976 96324928 97085408 97843120 98599528 99356424 100115144 
3325.450 100873896 101628824 102374208 103105664 103821264 104522288 
3328.343 105211096 105889712 106557360 107210184 107842792 108450536 
3331.236 109030864 109584416 110113264 110619128 111100752 111554040 
3334.129 111972384 112350440 112685152 112977432 113230776 113449848 
3337.022 113637440 113793712 113916536 114002776 114050560 114059304 
3339.916 114029144 113960392 113851512 113699688 113501488 113254952 
3342.809 112960160 112619616 112236424 111812520 111347312 110837608 
3345.702 110279296 109670224 109011272 108306800 107563440 106787376 
3348.595 105982192 105148960 104287192 103396616 102479080 101538648 
3351.488 100579872 99606992 98621528 97622696 96608680 95579400 94537152 
3354.863 93487984 92439304 91398088 90369160 89354176 88352768 87364208 
3358.238 86388880 85428600 84486152 83563368 82660688 81776928 80910488 
3361.614 80060520 79227680 78413936 77620760 76848456 76094896 75356672 
3364.989 74631144 73917432 73217992 72536952 71879024 71246648 70639120 
3368.364 70052928 69483624 68927560 68383696 67852480 67335264 66831952 
3371.739 66340648 65857852 65379896 64905160 64434484 63970336 63515432 
3375.115 63070664 62634156 62201868 61770204 61336868 60903124 60471948 
3378.490 60047592 59632052 59224844 58822496 58420932 58016448 57607988 
3381.865 57196172 56782932 56369448 55955860 55541160 55124640 54707204 
3385.240 54291444 53880392 53476328 53079568 52687656 52297108 51905080 
3388.615 51510908 51116572 50725716 50341096 49963356 49590440 49219288 
3391.991 48847492 48475420 48106516 47745772 47397480 47061764 46735236 
3395.366 46412088 46086304 45755244 45420132 45085132 44755680 44435284 
3398.741 44123344 43816900 43511668 43204632 42895984 42588072 42284752 
3402.116 41987816 41697544 41411472 41126204 40839704 40551684 40263748 
3405.492 39977964 39695420 39415196 39135768 38855220 38573112 38291008 
3408.867 38011544 37736884 37467748 37202280 36938160 36673304 36407600 
3412.242 36142704 35881680 35626960 35378536 35134388 34891380 34646784 
3415.617 34400640 34155212 33913720 33678700 33450246 33225920 33001964 
3418.993 32775256 32545708 32315530 32088936 31869448 31658232 31453672 
3422.368 31252452 31051180 30848580 30645752 30445082 30248058 30055060 
3425.743 29863892 29672060 29477762 29281848 29087298 28897756 28715380 
3429.118 28539660 28366628 28191260 28010098 27822582 27631650 27441932 
3432.494 27258190 27082000 26912474 26746396 26580630 26414046 26248052 
3435.869 26085046 25927200 25774894 25626262 25478454 25329012 25177618 
3439.244 25025682 24875272 24727404 24580954 24433186 24281090 24123966 
3442.619 23963996 23805340 23652414 23507514 23368470 23229992 23086212 
3445.995 22933120 22771036 22604930 22441434 22286580 22142170 22006246 
3449.370 21873462 21739154 21600568 21458232 21314758 21172864 21033278 
3452.745 20894744 20754898 20612386 20468012 20325074 20187218 20056898 
3456.120 19933176 19812298 19689650 19561420 19427374 19290216 19154800 
3459.496 19024410 18899978 18779212 18658724 18535984 18411554 18288402 
3462.871 18171022 18062100 17960974 17863362 17763146 17656018 17540082 
3466.246 17418040 17294030 17173264 17057322 16945440 16834482 16721832 
3469.621 16605975 16488668 16372701 16260307 16151762 16045408 15937945 
3472.997 15827039 15712554 15596588 15482301 15371854 15265554 15161681 
3476.372 15058040 14953462 14849151 14747708 14652288 14562883 14476958 
3479.747 14389029 14293378 14187307 14072364 13953789 13839421 13735102 
3483.122 13642809 13559972 13481114 13401110 13316371 13227172 13135603 
3486.498 13044326 12954842 12866470 12777740 12687868 12597878 12510295 
3489.873 12428354 12353554 12284664 12218102 12149471 12075094 11994564 
3493.248 11909895 11824458 11741456 11662247 11586286 11512379 11439879 
3496.623 11370080 11305153 11247310 11196206 11149289 11101392 11047484 
3499.999 10984952 10914511 10839631 10765342 10695413 10631233 10571408 
3503.374 10513526 10456161 10400263 10348580 10303689 10266674 10236004 
3506.749 10207339 10176574 10141095 10100702 10058820 10019181 9984224 
3510.124 9954491 9928184 9902996 9877438 9852626 9830697 9814057 9802839 
3513.982 9794908 9785893 9771965 9751057 9724829 9696910 9671567 9651374 
3517.839 9635893 9622307 9607368 9588839 9567398 9545178 9524111 9504129 
3521.697 9482285 9453569 9413240 9358660 9291530 9216388 9138315 9060730 
3525.554 8984275 8906717 8825555 8739608 8650670 8562459 8479131 8402036 
3529.411 8330053 8258759 8183998 8103376 8017606 7929355 7842336 7757595 
3533.269 7674152 7588297 7496796 7398742 7296633 7195491 7100368 7013818 
3537.126 6935164 6859688 6782745 6701407 6616518 6531847 6452406 6381016 
3540.984 6317840 6259446 6201162 6138953 6071646 6000519 5927927 5855615 
3544.841 5783617 5710087 5633246 5552559 5470277 5390426 5316526 5250252 
3548.698 5190124 5132184 5072207 5008115 4940447 4871784 4805410 4743200 
3552.556 4684214 4625739 4564693 4500174 4433723 4369022 4309251 4256246 
3556.413 4208534 4162868 4115033 4062788 4006369 3948553 3892383 3839998 
3560.271 3791496 3745239 3699521 3654277 3610774 3571184 3536709 3505276 
3564.128 3471440 3427555 3366544 3284474 3182727 3067489 2948111 2833269 
3567.986 2728693 2635976 2554345 2481926 2417849 2360943 2310541 2264275 
3571.843 2219013 2171324 2118980 2062480 2005022 1950601 1902343 1860646 
3575.700 1822113 1781622 1734214 1677398 1612010 1541942 1471886 1405166 
3579.558 1343507 1286875 1234671 1186791 1145096 1111012 1085600 1067531 
3583.415 1053813 1039332 1020002 993068 957634 913969 862307 801921 732482 
3587.755 654791 572834 493944 426611 377295 348643 336838 334086 331367 
3592.094 320192 296186 259682 214297 165038 115620 67764 21504 -22928 -63977 
3596.916 -99291 -126520 -145599 -159941 -174680 -195744 -225915 -263600 
3600.774 -302607 -335783 -356773 -363858 -359719 -349986 -340318 -334260 
3604.631 -332339 -334226 -339756 -352171 -376736 -419473 -483189 -565693 
3608.489 -658470 -749077 -827396 -888375 -933376 -968851 -1002340 -1038635 
3612.346 -1078365 -1117927 -1152296 -1177807 -1193734 -1203019 -1209628 
3615.721 -1217326 -1228791 -1245179 -1267645 -1297741 -1337118 -1386168 
3619.096 -1442345 -1499473 -1549298 -1585217 -1603771 -1607699 -1602648 
3622.472 -1595418 -1590731 -1588783 -1586175 -1577723 -1560358 -1535332 
3625.847 -1509875 -1495280 -1504360 -1546194 -1623280 -1727251 -1841094 
3629.222 -1945375 -2024534 -2072749 -2093622 -2095106 -2085741 -2072551 
3632.597 -2061009 -2054512 -2055765 -2065131 -2081421 -2101404 -2121485 
3635.973 -2138235 -2150763 -2160127 -2168831 -2180172 -2195370 -2213798 
3639.348 -2233544 -2252168 -2268320 -2282625 -2296633 -2311266 -2324911 
3642.723 -2334106 -2333710 -2319736 -2291886 -2253685 -2213304 -2179875 
3646.098 -2161973 -2164479 -2188150 -2229885 -2285394 -2351309 -2425517 
3649.474 -2505215 -2585425 -2657288 -2710898 -2738688 -2738425 -2714718 
3652.849 -2676619 -2636145 -2603507 -2586314 -2587763 -2606801 -2639077 
3656.224 -2677705 -2716924 -2751694 -2778856 -2796502 -2804403 -2803350 
3659.599 -2795844 -2786066 -2779119 -2778658 -2786198 -2800189 -2816781 
3662.975 -2830871 -2839199 -2840878 -2837092 -2830048 -2821192 -2810526 
3666.350 -2797490 -2781950 -2766608 -2757521 -2762460 -2788272 -2836533 
3669.725 -2899632 -2962065 -3006720 -3020968 -3002673 -2959729 -2906577 
3673.100 -2859674 -2833175 -2837290 -2874716 -2940246 -3020211 -3097891 
3676.476 -3160065 -3200227 -3218908 -3220980 -3212330 -3198977 -3185721 
3679.851 -3175920 -3170558 -3169078 -3169374 -3168617 -3164243 -3154999 
3683.226 -3140065 -3120492 -3097168 -3071210 -3044362 -3019059 -2998757 
3686.601 -2988062 -2992176 -3013005 -3048574 -3092233 -3134013 -3164999 
3689.977 -3181709 -3186018 -3184077 -3182268 -3183913 -3188254 -3191774 
3693.352 -3189997 -3180886 -3165920 -3149934 -3138749 -3136315 -3142203 
3696.727 -3151710 -3158519 -3157138 -3146052 -3129177 -3113551 -3106938 
3700.102 -3113814 -3134440 -3163585 -3194405 -3219369 -3235353 -3241535 
3703.478 -3239727 -3231932 -3218777 -3200161 -3176051 -3147236 -3117005 
3706.853 -3088680 -3065715 -3049857 -3041039 -3037387 -3038242 -3044461 
3710.228 -3059431 -3086311 -3126117 -3174670 -3223809 -3263372 -3285570 
3713.603 -3288332 -3274816 -3251895 -3226210 -3202167 -3180853 -3160690 
3716.979 -3139210 -3114604 -3087857 -3061701 -3039065 -3022218 -3011195 
3720.354 -3004713 -3000929 -2998757 -2998099 -3000139 -3005075 -3012116 
3723.729 -3019322 -3024916 -3028898 -3032945 -3040085 -3052489 -3069104 
3727.104 -3085390 -3094602 -3090851 -3072427 -3042454 -3009188 -2982468 
3730.479 -2969338 -2972332 -2986746 -3003495 -3013071 -3011425 -3001389 
3733.855 -2992867 -2996355 -3018665 -3058707 -3107596 -3153124 -3184274 
3737.230 -3197135 -3194208 -3181051 -3162795 -3141052 -3114176 -3079205 
3740.605 -3035412 -2986318 -2939950 -2908618 -2905524 -2939983 -3012248 
3743.980 -3109800 -3209765 -3285570 -3320557 -3312896 -3272054 -3211968 
3747.356 -3146447 -3087331 -3043441 -3020705 -3021692 -3044000 -3081738 
3750.731 -3125953 -3168256 -3202266 -3224631 -3234760 -3233478 -3222822 
3754.106 -3204338 -3179867 -3151282 -3121380 -3093088 -3070190 -3055384 
3757.481 -3050482 -3055384 -3068380 -3086574 -3107037 -3126710 -3142302 
3760.857 -3151118 -3150361 -3138749 -3117005 -3087956 -3057161 -3031003 
3764.232 -3015111 -3011985 -3019421 -3031760 -3041171 -3042355 -3034853 
3767.607 -3022679 -3012709 -3012445 -3024883 -3048672 -3076704 -3100655 
3770.982 -3114077 -3114998 -3105853 -3091246 -3075684 -3061603 -3048278 
3774.358 -3033998 -3017052 -2997539 -2977696 -2960880 -2950777 -2949823 
3777.733 -2957885 -2973583 -2994150 -3016921 -3039328 -3059234 -3074599 
3781.108 -3083547 -3084995 -3079007 -3067229 -3052884 -3039394 -3029523 
3784.483 -3024160 -3022481 -3021527 -3019322 -3015275 -3009813 -3005075 
3787.859 -3002146 -3000863 -2999283 -2995170 -2986746 -2974603 -2960880 
3791.234 -2948572 -2939851 -2934684 -2931031 -2926325 -2918821 -2909704 
3794.609 -2902759 -2902595 -2911547 -2928431 -2946104 -2956141 -2951402 
3797.984 -2929714 -2896078 -2860595 -2836269 -2833932 -2858423 -2906347 
3801.360 -2965455 -3019191 -3053114 -3061175 -3045086 -3012478 -2973122 
3804.735 -2937021 -2912337 -2904701 -2916550 -2944919 -2982007 -3016822 
3808.110 -3039163 -3043375 -3028930 -3000106 -2963645 -2925600 -2889594 
3811.485 -2856283 -2823102 -2788074 -2750871 -2715310 -2688704 -2679714 
3814.861 -2693973 -2729667 -2776090 -2816617 -2836928 -2830048 -2799728 
3818.236 -2757159 -2718043 -2695290 -2697924 -2727757 -2778955 -2839923 
3821.611 -2896999 -2939588 -2962526 -2965915 -2952752 -2927542 -2895452 
3824.986 -2861319 -2830146 -2806049 -2790642 -2782675 -2778494 -2773819 
3828.362 -2765588 -2753702 -2740796 -2731016 -2727625 -2731115 -2738326 
3831.737 -2744187 -2743462 -2733486 -2715574 -2693709 -2673688 -2659429 
3835.112 -2653172 -2654489 -2662228 -2674874 -2691536 -2711985 -2734869 
3838.487 -2757028 -2775037 -2785276 -2786724 -2781490 -2774576 -2771810 
3841.863 -2777309 -2792222 -2814773 -2840153 -2863558 -2881925 -2894070 
3845.238 -2901212 -2904043 -2902496 -2894794 -2878600 -2851346 -2812436 
3848.613 -2763678 -2708165 -2651262 -2597578 -2552750 -2523366 -2516152 
3851.988 -2539376 -2598369 -2690779 -2802263 -2909803 -2989971 -3028371 
3855.364 -3025344 -2990991 -2940345 -2886203 -2837948 -2799169 -2768913 
3858.739 -2743627 -2719788 -2695916 -2673490 -2655214 -2643852 -2640196 
3862.114 -2643061 -2650339 -2660483 -2673293 -2689330 -2708165 -2726110 
3865.489 -2736877 -2733486 -2711721 -2673952 -2628933 -2589410 -2569680 
3868.865 -2579167 -2617439 -2673227 -2727921 -2765061 -2776749 -2766543 
3872.240 -2745010 -2724925 -2715475 -2718768 -2730555 -2742376 -2745833 
3875.615 -2736219 -2713993 -2682744 -2647902 -2614277 -2585853 -2566189 
3878.990 -2558284 -2563982 -2583481 -2612861 -2644840 -2669407 -2679780 
3882.365 -2673128 -2653534 -2629855 -2614013 -2615430 -2637825 -2676158 
3885.741 -2718043 -2749323 -2759497 -2745998 -2714026 -2673425 -2634071 
3889.116 -2603606 -2586742 -2584865 -2596755 -2619053 -2647145 -2675137 
3892.491 -2697200 -2707704 -2703226 -2683106 -2649516 -2607525 -2563521 
3895.866 -2522246 -2487458 -2460014 -2439257 -2424232 -2414973 -2412370 
3899.242 -2417741 -2430756 -2449043 -2468251 -2484724 -2496650 -2505907 
3902.617 -2516613 -2533447 -2557954 -2587796 -2616846 -2637924 -2646585 
3905.992 -2643127 -2631798 -2618328 -2607986 -2602519 -2600213 -2597644 
3909.367 -2591419 -2580253 -2566156 -2551926 -2540661 -2532392 -2525079 
3912.743 -2515098 -2500010 -2479881 -2458367 -2441003 -2432569 -2435073 
3916.118 -2446572 -2462156 -2476125 -2484757 -2487293 -2485745 -2482747 
3919.493 -2479222 -2473786 -2464067 -2448318 -2426901 -2403638 -2383900 
3922.868 -2372993 -2373553 -2384526 -2401562 -2419389 -2433293 -2441201 
3926.244 -2443837 -2442914 -2440443 -2436951 -2432107 -2425550 -2418104 
3929.619 -2411349 -2407757 -2409075 -2415270 -2423771 -2431448 -2435139 
3932.994 -2433788 -2428713 -2422486 -2417906 -2416259 -2417214 -2419685 
3936.369 -2422222 -2424529 -2427362 -2431580 -2437774 -2444957 -2451316 
3939.745 -2454347 -2453524 -2449800 -2446044 -2445418 -2449768 -2458202 
3943.120 -2467790 -2474510 -2476026 -2471776 -2464034 -2456159 -2450789 
3946.495 -2448417 -2448153 -2447329 -2443903 -2437445 -2429537 -2422157 
3949.870 -2417016 -2414117 -2412074 -2408680 -2403177 -2396158 -2389897 
3953.246 -2387064 -2389107 -2395499 -2403770 -2411052 -2415468 -2416852 
3956.621 -2416555 -2416193 -2416291 -2415435 -2411250 -2400903 -2384230 
3959.996 -2363634 -2343762 -2329525 -2324351 -2328108 -2337731 -2348376 
3963.371 -2356153 -2359086 -2357768 -2354670 -2351770 -2349991 -2348211 
3966.747 -2344916 -2338687 -2329690 -2320198 -2312585 -2308663 -2308201 
3970.122 -2309849 -2311266 -2310904 -2308827 -2306784 -2306422 -2308531 
3973.497 -2312486 -2315782 -2315617 -2310475 -2300555 -2287734 -2274220 
3976.872 -2261925 -2250520 -2239445 -2227413 -2214886 -2203414 -2195930 
3980.248 -2194480 -2199755 -2209677 -2221380 -2231336 -2238159 -2242807 
3983.623 -2247652 -2255069 -2265782 -2278307 -2288689 -2294161 -2292875 
3986.998 -2285855 -2276494 -2268517 -2264035 -2262848 -2262848 -2261299 
3990.373 -2256421 -2249136 -2241983 -2237697 -2238027 -2242247 -2248378 
3993.749 -2253421 -2255926 -2256454 -2256783 -2259025 -2264134 -2270462 
3997.124 -2275604 -2276857 -2273099 -2265947 -2258827 -2255333 -2257377 
4000.499 -2264793 
##END=
