##TITLE=1731o_1_b
##JCAMP-DX=5.01  $$ Nicolet v. 1
##DATATYPE=INFRARED SPECTRUM
##ORIGIN=UniL
##OWNER=Nicolet
##LONGDATE=2011/09/29
##TIME=14:41:21
##SPECTROMETER/DATA SYSTEM=Nicolet iS5
##DATA PROCESSING=
Ratio against background
%Transmittance->Absorbance
Truncated
ElementMultiply or ElementDivide
##COMMENTS=
Number of sample scans: 32
Collection length: 51.22 sec
Sample gain: 2.0
Background collected on: Jeu Sep 29 14:37:42 2011 (GMT+02:00);
Number of background scans: 32
Background gain: 2.0
Sample spacing:  1.000
Number of scan points: 12415
Resolution points: 8192
Number of FFT points: 65536
Apodization: N-B fort;
Phase correction: Mertz;
Laser frequency: 15798.0 cm-1
Number of rejected sample scans: 0
Number of rejected background scans: 0
Bench serial number: ASB1000141;
##RESOLUTION=4.000
##XUNITS=1/CM
##YUNITS=ABSORBANCE
##FIRSTX=649.893372
##LASTX=4000.122314
##FIRSTY=0.108480
##MAXX=4000.122314
##MINX=649.893372
##MAXY=0.270739
##MINY=-0.003698
##XFACTOR=1.000000
##YFACTOR=1.000000E-009
##NPOINTS=6950
##DELTAX=0.482117
##ZPD=6100
##XYDATA=(X++(Y..Y))
649.893 108479888 107697760 106926752 106170856 105430296 104710656 
652.786 104034080 103435672 102955792 102629000 102463008 102436792 
655.679 102498632 102586784 102643648 102634704 102555352 102422784 
658.571 102264208 102100248 101938232 101771168 101584576 101365712 
661.464 101112336 100835320 100557480 100307288 100108096 99973560 99898776 
664.839 99860824 99815248 99701352 99444696 98976184 98273512 97400088 
668.214 96508032 95759672 95248208 94966376 94838904 94765616 94655472 
671.589 94449792 94122296 93685720 93177144 92644800 92123760 91624336 
674.963 91134352 90630264 90091984 89513400 88904880 88287032 87681688 
678.338 87102864 86556480 86043088 85563224 85121504 84724696 84377728 
681.713 84078928 83817472 83576776 83338224 83088160 82822288 82543552 
685.088 82258944 81974008 81689904 81403176 81110656 80812264 80513040 
688.463 80222312 79949136 79697152 79463584 79240288 79019240 78797832 
691.838 78582056 78383968 78218576 78096560 78019744 77980328 77964032 
695.212 77956104 77945160 77926760 77902304 77876576 77854056 77837016 
698.587 77826432 77822704 77827024 77841576 77867336 77902616 77941632 
701.962 77977352 78003528 78019344 78030248 78047104 78080296 78134992 
705.337 78205920 78278608 78334240 78354872 78331416 78265472 78168904 
708.712 78059200 77953648 77868960 77819656 77820320 77889184 78044168 
712.086 78298248 78651784 79085584 79558328 80010440 80380720 80617024 
715.461 80689392 80596160 80359392 80016656 79607960 79175544 78764024 
718.836 78422344 78215800 78219216 78500144 79101840 80011240 81144720 
722.211 82337640 83377200 84044672 84149312 83592040 82382064 80640600 
725.586 78559864 76364744 74264232 72397024 70832808 69573528 68579560 
728.961 67792752 67159528 66644056 66222624 65880096 65603160 65374576 
732.335 65176264 64993396 64816868 64645952 64485140 64340404 64215004 
735.710 64107916 64014412 63929760 63850916 63778000 63712612 63656860 
739.085 63610600 63572048 63538292 63507536 63479924 63457600 63443416 
742.460 63438236 63441804 63451736 63465692 63483224 63505464 63534840 
745.835 63572696 63616424 63659780 63692464 63704400 63688480 63643472 
749.209 63574768 63492536 63409524 63336404 63280976 63246824 63233832 
752.584 63239156 63258744 63288644 63325368 63367232 63414732 63470640 
755.959 63538752 63623136 63726304 63848308 63986428 64136260 64293644 
759.334 64456424 64624616 64800524 64987272 65188004 65404660 65638268 
762.709 65890664 66164656 66466936 66810616 67217040 67722072 68377688 
766.083 69245136 70391320 71864792 73670928 75744816 77938024 80031160 
769.458 81740016 82792296 82981048 82210976 80537088 78152248 75354536 
772.833 72453944 69729784 67381808 65499388 64084836 63075564 62383644 
776.208 61915420 61592156 61357856 61167924 60987004 60786528 60540508 
779.583 60230980 59850512 59400288 58888892 58327392 57728244 57103580 
782.958 56467016 55835532 55227352 54661168 54153448 53713764 53346044 
786.332 53049840 52822608 52663380 52572980 52553944 52609444 52740816 
789.707 52947980 53229996 53586448 54019544 54534436 55138976 55843068 
793.082 56658828 57600008 58683240 59931032 61369652 63031436 64955332 
796.457 67182384 69759432 72740424 76182944 80155272 84734392 89996296 
799.832 96012264 102823848 110418008 118682888 127373352 136109568 144332320 
803.206 151385376 156616608 159447280 159552576 156934608 151954720 
806.099 145239632 137553440 129658240 122102424 115187024 108943816 
808.992 103201168 97683464 92128352 86393208 80478936 74527280 68747576 
812.367 63371220 58579632 54467908 51056156 48297152 46108264 44389076 
815.742 43046072 42000264 41183940 40545612 40047320 39661584 39372928 
819.116 39173228 39057316 39019504 39050464 39138128 39271580 39443968 
822.491 39655048 39910072 40216276 40578640 40996876 41466000 41979024 
825.866 42531932 43125912 43768632 44471952 45250836 46120608 47096992 
829.241 48201176 49459236 50907556 52595344 54579180 56923960 59695496 
832.616 62943248 66684848 70876304 75396552 80011640 84375312 88082760 
835.990 90680352 91778536 91147920 88761736 84827192 79723592 73953928 
839.365 68012608 62309556 57154596 52710292 49024248 46059744 43731440 
842.740 41933804 40558928 39515636 38723852 38117412 37648384 37281484 
846.115 36995204 36779604 36629140 36538772 36500716 36503600 36536144 
849.490 36590536 36665192 36764240 36894116 37060296 37263328 37499428 
852.865 37762188 38047276 38354920 38690924 39063912 39483048 39955224 
856.239 40483920 41072260 41725300 42452388 43269200 44197620 45262712 
859.614 46495868 47934136 49618520 51596308 53909392 56580388 59593284 
862.989 62875540 66288380 69615144 72600312 74975912 76496504 77004704 
866.364 76448216 74898776 72529976 69598496 66400444 63202784 60237680 
869.739 57667656 55576184 53989000 52884016 52212840 51911356 51912440 
873.113 52152084 52562508 53078520 53638220 54181444 54662972 55055768 
876.488 55355908 55582508 55773176 55977228 56239120 56590992 57040168 
879.863 57564444 58109012 58592372 58926196 59022708 58819800 58297000 
883.238 57481224 56444600 55285152 54116852 53039844 52125932 51417840 
886.613 50925964 50638028 50529064 50571128 50738304 51007004 51358164 
889.987 51774820 52242844 52752640 53299856 53885796 54515652 55195708 
893.362 55930836 56723048 57573148 58481736 59450284 60480332 61569404 
896.737 62706576 63867228 65013984 66101224 67078620 67905088 68552480 
900.112 69009240 69280232 69382336 69341872 69188480 68955952 68680808 
903.487 68397776 68142216 67946392 67835904 67833000 67956000 68219320 
906.862 68637496 69222872 69985304 70931384 72063520 73381024 74882328 
910.236 76567440 78439216 80502984 82763672 85222936 87877216 90719432 
913.611 93741968 96943480 100333248 103934352 107781672 111913520 116365936 
916.986 121160832 126295816 131729784 137369424 143063872 148575696 
919.879 153596176 157775648 160733760 162159360 161876192 159901488 
922.771 156476496 152050592 147255120 142758992 139225712 137225104 
925.664 137110368 139003744 142735936 147882288 153751984 159486704 
928.557 164251200 167286384 168106688 166574000 162871136 157419296 
931.450 150722640 143291520 135522304 127680272 119938192 112396448 
934.342 105131696 98231208 91789832 85910704 80694224 76212600 72513848 
937.717 69618024 67519824 66194684 65596452 65657152 66271172 67292088 
941.092 68546344 69823984 70913552 71636408 71851888 71491144 70559952 
944.467 69134632 67342032 65333912 63272156 61291000 59490140 57931288 
947.841 56634816 55592792 54778692 54161176 53709040 53395652 53200860 
951.216 53105628 53091888 53142848 53241908 53376468 53539408 53728052 
954.591 53942892 54184940 54454008 54747944 55064572 55402316 55762100 
957.966 56146880 56559740 57001816 57470824 57961464 58467520 58983880 
961.341 59507924 60040364 60582748 61135736 61698052 62266032 62835680 
964.716 63404648 63973100 64544104 65121524 65708876 66308380 66920652 
968.090 67546912 68189776 68853896 69544976 70267192 71022104 71807784 
971.465 72620792 73458240 74320696 75212440 76140888 77113784 78136064 
974.840 79208944 80330928 81499344 82713240 83973512 85282208 86640160 
978.215 88045176 89490552 90966776 92464224 93975904 95497360 97026080 
981.590 98559032 100090112 101610656 103110704 104581888 106018992 107418816 
984.964 108776336 110080864 111311600 112438472 113428680 114249912 
987.857 114880088 115311328 115550472 115617920 115542304 115361544 
990.750 115117880 114855528 114622368 114460184 114402576 114471488 
993.643 114673664 115004208 115450184 115997704 116634920 117353216 
996.535 118146944 119008960 119928760 120893944 121891096 122909536 
999.428 123944480 124994360 126057688 127128664 128192872 129228800 
1002.321 130212296 131120904 131940752 132668960 133312984 133887336 
1005.213 134412192 134913376 135420096 135968320 136599936 137355152 
1008.106 138270896 139373568 140675024 142173216 143855600 145704304 
1010.999 147696720 149806656 152004464 154250560 156499840 158707984 
1013.891 160836208 162863264 164788560 166630016 168413424 170161840 
1016.784 171885664 173579312 175224896 176800000 178289888 179693952 
1019.677 181031120 182337280 183668000 185094864 186696352 188561568 
1022.570 190777504 193414736 196524592 200126240 204208416 208730656 
1025.462 213636208 218863056 224342304 230004080 235768832 241531264 
1028.355 247167808 252532512 257463216 261808816 265427264 268190528 
1031.249 269992640 270738688 270352832 268793056 266061488 262217728 
1034.142 257372560 251686304 245346272 238541536 231473424 224337360 
1037.035 217319168 210613456 204399440 198834608 194059184 190171536 
1039.928 187232768 185265280 184247072 184106864 184708432 185856864 
1042.821 187274896 188610320 189497168 189561104 188499072 186146496 
1045.714 182488160 177672912 171962368 165705040 159259920 152937968 
1048.607 147004288 141635552 136926576 132909176 129559368 126818400 
1051.500 124604784 122834840 121428560 120314472 119438040 118754008 
1054.393 118222408 117806432 117464848 117152520 116826496 116444864 
1057.286 115973464 115388856 114676080 113830104 112855000 111766528 
1060.179 110592192 109370432 108153384 106996144 105952632 105072096 
1063.072 104390504 103931576 103707448 103718256 103952784 104384344 
1065.965 104971960 105653376 106347664 106968760 107427600 107650216 
1068.858 107591968 107237624 106603824 105729064 104668064 103478144 
1071.751 102209192 100903576 99588528 98277624 96973680 95671696 94365128 
1075.127 93050856 91734536 90432680 89173208 87989304 86916440 85987144 
1078.502 85223544 84638520 84233008 83997512 83911688 83945088 84060472 
1081.877 84211776 84351416 84438296 84441512 84349720 84172920 83942032 
1085.252 83701384 83501392 83394504 83424656 83627472 84029640 84647096 
1088.628 85485888 86542040 87802056 89242872 90835608 92551800 94364016 
1092.003 96249248 98187304 100152112 102106824 104001456 105768336 107333704 
1095.378 108632112 109615544 110271480 110628360 110759528 110768208 
1098.271 110774832 110898856 111223368 111780072 112528928 113363680 
1101.164 114113640 114571720 114548472 113890744 112524848 110469456 
1104.057 107830344 104779056 101508296 98222568 95096192 92255976 89788448 
1107.433 87731528 86085944 84824328 83902880 83268896 82864792 82637680 
1110.808 82539144 82523672 82552928 82588744 82593360 82532416 82373720 
1114.183 82092800 81676744 81125072 80449104 79667584 78805176 77887472 
1117.558 76937648 75978168 75028368 74103632 73216312 72372832 71574240 
1120.934 70816584 70093776 69399600 68730768 68087016 67469728 66878408 
1124.309 66307992 65746540 65176108 64578592 63938932 63251728 62523708 
1127.684 61773984 61030932 60324588 59684316 59131892 58677852 58322124 
1131.059 58053976 57854812 57699484 57562024 57418632 57251172 57051732 
1134.435 56823112 56579100 56340020 56129836 55971540 55881728 55870012 
1137.810 55937352 56076900 56274196 56508904 56757404 56992940 57188876 
1141.185 57323308 57378588 57344932 57219384 57004844 56707868 56337188 
1144.560 55903436 55418240 54895044 54349756 53798480 53257640 52742836 
1147.936 52265828 51836192 51460880 51144788 50891500 50703188 50579912 
1151.311 50519352 50516000 50562976 50652252 50777112 50933228 51118360 
1154.686 51331428 51571272 51835372 52119580 52418816 52728320 53044488 
1158.061 53365268 53688908 54013352 54335224 54649596 54951068 55234160 
1161.437 55494060 55726312 55925632 56084968 56195936 56248212 56232144 
1164.812 56139640 55965356 55706272 55361588 54932076 54420056 53830320 
1168.187 53171872 52457436 51703676 50930360 50155884 49396676 48665884 
1171.562 47972248 47323132 46725788 46187928 45719204 45329388 45026616 
1174.938 44817316 44705140 44692436 44782160 44979576 45292024 45729624 
1178.313 46302556 47019964 47890108 48920248 50118136 51494568 53061748 
1181.688 54834436 56827796 59054104 61522672 64236404 67189496 70361512 
1185.063 73709840 77168520 80633936 83970328 87025816 89629416 91622784 
1188.438 92882168 93322456 92917664 91699384 89755696 87212944 84220584 
1191.814 80941072 77518288 74076592 70717144 67509136 64501704 61727496 
1195.189 59204944 56944168 54948396 53213592 51728944 50476212 49431908 
1198.564 48566048 47845788 47239080 46713280 46239636 45793684 45354512 
1201.939 44907184 44443324 43961184 43465956 42968516 42483004 42022896 
1205.315 41599184 41218624 40882844 40590648 40338896 40125120 39947560 
1208.690 39804892 39695964 39618856 39571560 39552832 39564120 39609568 
1212.065 39696324 39833292 40028936 40289052 40617060 41013080 41475296 
1215.440 42000228 42582916 43216380 43890468 44593028 45310044 46027728 
1218.816 46735568 47426636 48098412 48751284 49388436 50013764 50632408 
1222.191 51251856 51882116 52534800 53223332 53959060 54748812 55593544 
1225.566 56486788 57415984 58362224 59304104 60218228 61081076 61874344 
1228.941 62587388 63222332 63795952 64341292 64905660 65540732 66302360 
1232.317 67242064 68400608 69812576 71504200 73495240 75802536 78438936 
1235.692 81412888 84727112 88377904 92355768 96644032 101219744 106050888 
1239.067 111090008 116278488 121542864 126799864 131974056 137000704 
1241.960 141835040 146454352 150849328 155013968 158935536 162583328 
1244.853 165904384 168825024 171244448 173044768 174103216 174292784 
1247.746 173510576 171691088 168813536 164907792 160044496 154326656 
1250.639 147870256 140802928 133265016 125398832 117359128 109308296 
1253.532 101394376 93759368 86525056 79779528 73588848 67989984 62991404 
1256.908 58580276 54723852 51377260 48484052 45984188 43818736 41927168 
1260.283 40256332 38761236 37404652 36161500 35015812 33958756 32986160 
1263.658 32095428 31283252 30545850 29878622 29277132 28737540 28255790 
1267.033 27827704 27447792 27109788 26807400 26536494 26295222 26084694 
1270.409 25908452 25770954 25676526 25628688 25631640 25690412 25812516 
1273.784 26008104 26288040 26662220 27136242 27708846 28368326 29090664 
1277.159 29841070 30571304 31224146 31743206 32076166 32186802 32063286 
1280.534 31719216 31191998 30531986 29797490 29040144 28298510 27598778 
1283.910 26953616 26367358 25841070 25375132 24970158 24626574 24343394 
1287.285 24118258 23948064 23830648 23765336 23753088 23794842 23889806 
1290.660 24034308 24222472 24447278 24702292 24983214 25286690 25608618 
1294.035 25943026 26280720 26612298 26930486 27233704 27527954 27826256 
1297.411 28147068 28509512 28931366 29428508 30013164 30695144 31479430 
1300.786 32362934 33329126 34343192 35355424 36299520 37103964 37707072 
1304.161 38060332 38140780 37952528 37525328 36907680 36158188 35342772 
1307.536 34521632 33745700 33055126 32472756 32007214 31653348 31398036 
1310.912 31223896 31114072 31056234 31041464 31062960 31114606 31188472 
1314.287 31275596 31367972 31460122 31550616 31640664 31733010 31828764 
1317.662 31926610 32022800 32113698 32197508 32275840 32352760 32432516 
1321.037 32516818 32603424 32685798 32754998 32803450 32826070 32821852 
1324.413 32793838 32748032 32693296 32640464 32604280 32602496 32653324 
1327.788 32774650 32978508 33268630 33639672 34079876 34574804 35110784 
1331.163 35678144 36270736 36882648 37506504 38131048 38741348 39322396 
1334.538 39860932 40347768 40778812 41153340 41472668 41738684 41953912 
1337.914 42122444 42250828 42348856 42427944 42498608 42569176 42644320 
1341.289 42726972 42821344 42935268 43081892 43279780 43548916 43909056 
1344.664 44377776 44967340 45686736 46539752 47523440 48622560 49803168 
1348.039 51012924 52175212 53197636 53990316 54469936 54579592 54298012 
1351.415 53641708 52663604 51442380 50079504 48678632 47335216 46133136 
1354.790 45129316 44354436 43812720 43486392 43342416 43340512 43444060 
1358.165 43621520 43848460 44108268 44388236 44681088 44985600 45309456 
1361.540 45670024 46091168 46598732 47209456 47921740 48711436 49532464 
1364.916 50323684 51009536 51513408 51762128 51690948 51261660 50469140 
1368.291 49350348 47977316 46448812 44873196 43340952 41922676 40659156 
1371.666 39563032 38629424 37846120 37203504 36698288 36333384 36110836 
1375.041 36024828 36059280 36191536 36397832 36662488 36982068 37366484 
1378.417 37836072 38420396 39158252 40094344 41282240 42779332 44629236 
1381.792 46843728 49374400 52106204 54842936 57330152 59306916 60511216 
1385.167 60738624 59882084 57963660 55159328 51767540 48172080 44723140 
1388.542 41667160 39131960 37127096 35591676 34431920 33554720 32879320 
1391.917 32340270 31891272 31498026 31137992 30800842 30486454 30202376 
1395.293 29958348 29760870 29610194 29500386 29422624 29369902 29340266 
1398.668 29339096 29377382 29468366 29623424 29847708 30139154 30489616 
1402.043 30887462 31319040 31769942 32227840 32682226 33123672 33544734 
1405.418 33937940 34297112 34619440 34907140 35169416 35421100 35680768 
1408.794 35966004 36288244 36652000 37054232 37487868 37946452 38427348 
1412.169 38932732 39467408 40035480 40637980 41272804 41937928 42634668 
1415.544 43371156 44163356 45033896 46007576 47104340 48330332 49667924 
1418.919 51070096 52464464 53767952 54908164 55829880 56503128 56922828 
1422.295 57108188 57107508 56996304 56876136 56846148 56981912 57320660 
1425.670 57857124 58561656 59398920 60345488 61391744 62537180 63783480 
1429.045 65129144 66571632 68114688 69776464 71587840 73579552 75771760 
1432.420 78160776 80723864 83424944 86236704 89154616 92193328 95380056 
1435.796 98728608 102217968 105779408 109321640 112768824 116079720 
1438.689 119243872 122255936 125094664 127699304 129966784 131774888 
1441.582 132982344 133457168 133100408 131847944 129691776 126686784 
1444.475 122963008 118712680 114158112 109547992 105104136 101003992 
1447.368 97375176 94271912 91675936 89499840 87622656 85916432 84280440 
1450.743 82671272 81107816 79665784 78440848 77521096 76946232 76693808 
1454.118 76678712 76770392 76824808 76696936 76295424 75624480 74807096 
1457.494 74040128 73509016 73341080 73584376 74239392 75285336 76687688 
1460.869 78398096 80344128 82436016 84552800 86540744 88239160 89483752 
1464.244 90153144 90209744 89715976 88814584 87671072 86443864 85251280 
1467.619 84166520 83234624 82470232 81860336 81362976 80909368 80413696 
1470.995 79787496 78978064 77996984 76937448 75942736 75160328 74694608 
1474.370 74584592 74825520 75389736 76245376 77359080 78692048 80197392 
1477.745 81812008 83461680 85072864 86569544 87889784 88994224 89869944 
1481.120 90538176 91049352 91479848 91915520 92446432 93170744 94185224 
1484.496 95587208 97463496 99865832 102788168 106136880 109736384 113309568 
1487.871 116500408 118932792 120221424 120058144 118294144 114980456 
1490.764 110378880 104877712 98906616 92816856 86833232 81088248 75630400 
1494.139 70478600 65674036 61287376 57426460 54213544 51742384 50048604 
1497.514 49102260 48833884 49156612 49988748 51263040 52916840 54885456 
1500.890 57101156 59482620 61940448 64386404 66710928 68788024 70465080 
1504.265 71529120 71719056 70755664 68430704 64756400 60054480 54883764 
1507.640 49783508 45088956 40897696 37158748 33779864 30690272 27855576 
1511.015 25278824 22978112 20963066 19228010 17748856 16492523 15424860 
1514.391 14516527 13742284 13076661 12494335 11974264 11503771 11084295 
1517.766 10726894 10442653 10231799 10078997 9953270 9821004 9658963 9471009 
1521.623 9288956 9157401 9106982 9138450 9227489 9338482 9442427 9524280 
1525.481 9589043 9654762 9742212 9861575 10007584 10164701 10317668 10460676 
1529.338 10599655 10747714 10916618 11109347 11317431 11524220 11713270 
1532.713 11879143 12033873 12203448 12411784 12670162 12970340 13292865 
1536.089 13615287 13921115 14204870 14468188 14717441 14956343 15181411 
1539.464 15380883 15542703 15666727 15767112 15864911 15975550 16099149 
1542.839 16221061 16319511 16377725 16392142 16376108 16353641 16349442 
1546.214 16376900 16433777 16505532 16575130 16631864 16676726 16723244 
1549.590 16789640 16891248 17031302 17201600 17387448 17577378 17768494 
1552.965 17967674 18187294 18438416 18723616 19035418 19358668 19676022 
1556.340 19973800 20240432 20466416 20643448 20768904 20854728 20927530 
1559.715 21023922 21170046 21370096 21612164 21873568 22130176 22357668 
1563.091 22538790 22667204 22748340 22798446 22838118 22883766 22939582 
1566.466 22997676 23041698 23055080 23027374 22959282 22863088 22760422 
1569.841 22674394 22621092 22607512 22632470 22690244 22772294 22867558 
1573.216 22962112 23035896 23066820 23036212 22937172 22783852 22610688 
1576.592 22460450 22361366 22317064 22307752 22304368 22278140 22207482 
1579.967 22082516 21901722 21669908 21393348 21077658 20726746 20344798 
1583.342 19939004 19520834 19103068 18698330 18314046 17950926 17605430 
1586.717 17273034 16952744 16647700 16363824 16106026 15875014 15667036 
1590.093 15476121 15298261 15134439 14991017 14876374 14796044 14749799 
1593.468 14730912 14730158 14739550 14757100 14786445 14834853 14908332 
1596.843 15008681 15133307 15278836 15444978 15638491 15871817 16160702 
1600.218 16519748 16958048 17478056 18077814 18752676 19495814 20296084 
1603.594 21135712 21984564 22799984 23534170 24133704 24551608 24754868 
1606.969 24728176 24478196 24030982 23428964 22720408 21951106 21164204 
1610.344 20395148 19671690 19015824 18439244 17942914 17516898 17143276 
1613.719 16800074 16464647 16119299 15753025 15365058 14967489 14583545 
1617.094 14242496 13968913 13777408 13669275 13635322 13658743 13719200 
1620.470 13797759 13878316 13954097 14029105 14118091 14239620 14408894 
1623.845 14630731 14898903 15201245 15526013 15866904 16222198 16591035 
1627.220 16970280 17350962 17719758 18064518 18378714 18664258 18929568 
1630.595 19184338 19433784 19675398 19897966 20084452 20216304 20276084 
1633.971 20252618 20144074 19961588 19728100 19474154 19228044 19006478 
1637.346 18812254 18636518 18464516 18278656 18062788 17806398 17507412 
1640.721 17174610 16823426 16472597 16136218 15818620 15513102 15205053 
1644.096 14875311 14506420 14088416 13624210 13131948 12641746 12187943 
1647.472 11800284 11494176 11271250 11120802 11025767 10963033 10903231 
1650.847 10811844 10647260 10370976 9969883 9482251 8997873 8607677 8354845 
1654.704 8222558 8166103 8139026 8109486 8061754 7991752 7904452 7807553 
1658.562 7708417 7610181 7511629 7408718 7296767 7172584 7035571 6888301 
1662.419 6736134 6586947 6449077 6330380 6235816 6166208 6118320 6084011 
1666.277 6052696 6011639 5949492 5859712 5742049 5603944 5458634 5321357 
1670.134 5203537 5110660 5042339 4994138 4958712 4926774 4887834 4830471 
1673.991 4745176 4629088 4490063 4346565 4220044 4126974 4070781 4043222 
1677.849 4029544 4015131 3991221 3957314 3920434 3890745 3875367 3872592 
1681.706 3870753 3849492 3787218 3669948 3503472 3316025 3149017 3034421 
1685.564 2979103 2969662 2984174 3004359 3017905 3020041 3010899 2992949 
1689.421 2969429 2943274 2917988 2897841 2887534 2890436 2905913 2928463 
1693.279 2946577 2946176 2914653 2847543 2754401 2658445 2586809 2554845 
1697.136 2559478 2581509 2595275 2573809 2498555 2367773 2203227 2044070 
1700.993 1925872 1863873 1849332 1861810 1879048 1883806 1865704 1820516 
1704.851 1751014 1665258 1575162 1491269 1421421 1368635 1332273 1309308 
1708.708 1295749 1288770 1286510 1289002 1297477 1312997 1335497 1363250 
1712.566 1393033 1421022 1444625 1462910 1476142 1485584 1491170 1490837 
1716.423 1482292 1464938 1442963 1426208 1427172 1455064 1512981 1597011 
1720.281 1699252 1811000 1925140 2038577 2152011 2268638 2392394 2526382 
1724.138 2671080 2825198 2986043 3150785 3316993 3481160 3638940 3784310 
1727.995 3910537 4012021 4086334 4135572 4164741 4179261 4181937 4169726 
1731.853 4133564 4061584 3945042 3787519 3610774 3449564 3338863 3295725 
1735.710 3315390 3379233 3465261 3556552 3640978 3713691 3775352 3830036 
1739.568 3882554 3936282 3991655 4046634 4098175 4143165 4179729 4206962 
1743.425 4224995 4234297 4235602 4229245 4215226 4192475 4159423 4113962 
1747.282 4054427 3979115 3887602 3779196 3654243 3512691 3356259 3188568 
1751.140 3016370 2848877 2695185 2561777 2450502 2358278 2277432 2198565 
1754.997 2112654 2014609 1904939 1790072 1680891 1587367 1513812 1458156 
1758.855 1412246 1366175 1310072 1238857 1152770 1057234 961187 873163 
1762.712 799464 742074 699724 669127 646163 626618 605814 579669 545563 
1767.052 503564 456959 411819 374244 347284 329311 314025 292672 257627 
1771.391 206208 142201 76877 22299 -13452 -29620 -31476 -26440 -20807 -16666 
1776.213 -13253 -8018 530 11232 20046 22001 13419 -5268 -30184 -54270 -70867 
1781.517 -76930 -73352 -64540 -55297 -49698 -48604 -51089 -54369 -56257 
1785.857 -55396 -51354 -44066 -33132 -17958 1391 22829 41684 51924 47152 
1790.678 23492 -18322 -71795 -126520 -172627 -203362 -218099 -220550 -216212 
1795.018 -209886 -204090 -199652 -196539 -195049 -196208 -201308 -211078 
1798.875 -224690 -239592 -252507 -260223 -261216 -255785 -245950 -233267 
1802.733 -218927 -202997 -184947 -164711 -143811 -124036 -107672 -96011 
1806.590 -88790 -84284 -80640 -76764 -72723 -70139 -71066 -76566 -86239 
1810.930 -97734 -108334 -115953 -119729 -120856 -121187 -122181 -124301 
1814.787 -126619 -127547 -125626 -119994 -110587 -97999 -82297 -63413 -40156 
1819.127 -12325 20212 56430 94508 132987 170574 206507 240454 271717 299071 
1823.949 321684 339856 356104 374609 399515 433410 474805 518758 558004 
1828.288 585475 597618 596955 591547 592243 608999 645898 700819 766868 
1832.628 836312 903444 965571 1023190 1078592 1133735 1189217 1244440 
1836.485 1298573 1352348 1408357 1471088 1545068 1633361 1736776 1853092 
1840.343 1979125 2111289 2247255 2385264 2524383 2663546 2802020 2939037 
1844.200 3074863 3210832 3347544 3484433 3617957 3742331 3849993 3933373 
1848.058 3987174 4009044 3999647 3961360 3896763 3807306 3693473 3555817 
1851.915 3396898 3222615 3041528 2863252 2695151 2540747 2399390 2267339 
1855.772 2140490 2016040 1894422 1777197 1666023 1561162 1460915 1362785 
1859.630 1265408 1169382 1077197 992437 917090 850554 789472 729793 668629 
1863.969 606610 546823 493978 451420 419381 394507 371425 345261 314489 
1868.309 281631 252190 231635 223281 226298 237636 252720 268866 284250 
1872.649 298109 308919 313859 308852 290914 258555 214065 162155 108991 
1876.988 59115 14314 -27069 -67820 -110454 -154807 -198593 -238400 -271978 
1881.328 -299660 -324691 -351376 -382728 -418877 -456612 -491563 -519595 
1885.185 -539385 -552820 -563674 -575223 -588459 -602786 -615095 -623565 
1889.043 -627701 -629851 -632763 -638553 -646923 -655757 -662274 -664822 
1892.900 -664491 -664954 -669255 -679643 -694794 -710673 -722350 -726320 
1896.758 -722019 -712625 -702436 -694497 -689898 -687550 -685234 -681926 
1900.615 -678419 -677526 -681760 -691949 -705347 -717388 -723541 -721358 
1904.472 -712526 -701808 -694265 -693703 -699856 -709251 -717057 -720432 
1908.330 -719505 -717752 -719671 -727676 -741205 -756288 -767302 -770775 
1912.187 -766277 -756850 -746927 -740179 -737632 -738195 -740444 -743156 
1916.045 -748019 -757644 -774546 -797697 -822502 -842146 -850611 -846775 
1919.902 -834837 -822601 -818467 -827826 -850413 -880571 -910595 -933938 
1923.760 -947989 -954767 -958172 -961412 -964619 -964586 -957412 -941112 
1927.617 -917836 -893302 -874520 -865790 -867708 -876041 -884341 -887383 
1931.474 -883150 -873792 -863310 -854943 -849421 -845023 -839599 -831762 
1935.332 -824155 -820418 -824883 -838309 -857391 -876041 -887747 -890094 
1939.189 -885961 -882588 -888011 -907751 -941079 -981380 -1018802 -1045114 
1943.047 -1056319 -1054700 -1044420 -1030272 -1014207 -995001 -970272 
1946.422 -939889 -906858 -877165 -857225 -849983 -853720 -863111 -871213 
1950.279 -872966 -868005 -859441 -852529 -850248 -852298 -855572 -856564 
1954.137 -854943 -854679 -862814 -886192 -927292 -982868 -1043560 -1097667 
1957.994 -1136500 -1156691 -1161549 -1158608 -1155369 -1156757 -1163928 
1961.369 -1175957 -1192181 -1214220 -1244684 -1284725 -1333055 -1383261 
1964.745 -1427748 -1459121 -1475335 -1479100 -1477845 -1478175 -1482765 
1968.120 -1488940 -1490426 -1481973 -1462787 -1438184 -1416586 -1406645 
1971.495 -1411632 -1428112 -1447926 -1462325 -1466353 -1460013 -1446638 
1974.870 -1428574 -1404168 -1366845 -1308180 -1223968 -1118588 -1005811 
1978.246 -903552 -826669 -781789 -764160 -762771 -764425 -760786 -750830 
1982.103 -739815 -734126 -738426 -752583 -771436 -789594 -803783 -813936 
1985.960 -823891 -837648 -856200 -877727 -896939 -909834 -914992 -915389 
1989.818 -914364 -915290 -917770 -916282 -903684 -874685 -828653 -771635 
1993.675 -713386 -661977 -622407 -593786 -572112 -551960 -531542 -512182 
1997.533 -498745 -495733 -506026 -528795 -561722 -601794 -649239 -705082 
2001.390 -771337 -846841 -927292 -1004092 -1067987 -1112969 -1137954 
2004.765 -1147670 -1149355 -1148694 -1146414 -1138879 -1119976 -1086331 
2008.141 -1039990 -989116 -942898 -908942 -887912 -875115 -863111 -846643 
2011.998 -825147 -804114 -790091 -787048 -792637 -798160 -792736 -768030 
2015.855 -722085 -660984 -595275 -534851 -483785 -440393 -398816 -353661 
2019.713 -303633 -252043 -205448 -169315 -145036 -129302 -116251 -101709 
2023.570 -84582 -68283 -57086 -53839 -56423 -59073 -54203 -37439 -8117 29490 
2028.392 70581 112604 158144 213236 283255 368938 464555 559032 640621 
2032.732 702479 745990 779381 814004 858954 916526 983636 1052584 1116493 
2037.071 1172272 1220416 1263115 1302063 1335830 1360957 1375881 1381199 
2040.929 1382296 1386418 1400877 1427338 1462710 1499648 1530537 1552949 
2044.786 1570241 1589961 1622320 1673241 1743096 1826871 1916454 2004656 
2048.644 2087050 2161368 2226906 2281628 2322267 2344620 2348417 2337324 
2052.501 2320268 2309409 2315538 2344453 2394859 2459166 2526182 2586776 
2056.358 2635543 2672180 2699886 2721858 2739930 2754334 2764605 2770940 
2060.216 2776343 2783646 2795851 2813025 2831535 2845542 2849344 2840172 
2064.073 2819228 2791315 2761970 2735261 2712122 2691117 2669380 2646610 
2067.931 2624475 2606908 2597342 2597008 2603042 2610075 2612042 2605542 
2071.788 2591642 2574910 2561711 2557278 2564077 2581176 2606175 2636343 
2075.646 2671414 2712189 2760303 2816460 2878628 2943074 3005227 3061115 
2079.503 3108768 3148249 3179823 3203922 3221113 3231628 3236936 3240340 
2083.360 3246383 3259302 3281269 3310816 3342869 3371185 3389885 3396163 
2087.218 3391388 3379767 3365842 3353053 3342135 3331650 3319363 3304172 
2091.075 3286811 3269418 3254428 3242878 3234599 3228790 3224651 3223650 
2094.933 3228724 3242477 3266079 3297194 3330215 3358363 3376628 3383540 
2098.790 3382572 3380401 3383407 3396063 3418939 3449263 3483297 3518203 
2102.647 3553578 3591229 3633694 3681911 3735012 3790460 3845012 3896663 
2106.505 3945611 3993127 4041182 4090682 4141291 4192208 4243029 4294459 
2110.362 4347937 4404903 4464754 4524447 4579460 4624902 4658391 4681434 
2114.220 4698784 4716637 4739716 4769765 4804941 4840522 4872253 4898189 
2118.077 4919166 4937866 4956936 4976743 4995915 5011534 5021925 5028696 
2121.935 5036171 5050987 5078677 5121355 5176678 5239386 5304150 5367446 
2125.792 5429880 5495175 5567561 5649526 5739363 5831637 5919529 5997597 
2129.649 6063179 6117916 6165738 6211380 6258135 6307687 6359732 6414171 
2133.507 6471038 6529964 6590748 6651507 6709247 6761239 6806405 6845955 
2137.364 6883689 6924492 6970179 7019576 7067025 7104780 7126504 7128458 
2141.222 7112122 7082315 7044563 7001999 6954792 6900353 6835149 6758143 
2145.079 6671964 6581833 6494479 6413968 6340802 6271481 6200355 6121277 
2148.937 6030353 5926684 5810481 5683297 5546519 5400994 5248843 5093025 
2152.794 4936291 4781121 4627782 4472923 4311827 4142562 3968281 3800822 
2156.651 3658387 3563133 3530762 3566440 3658553 3784678 3918127 4036567 
2160.509 4127644 4189498 4226099 4242461 4241490 4223691 4189431 4140522 
2164.366 4081350 4018709 3958350 3903249 3852467 3801758 3746877 3685553 
2168.224 3618291 3548100 3477886 3408319 3337694 3261773 3177019 3082739 
2172.081 2981773 2879762 2783779 2698885 2626576 2566410 2515618 2471296 
2175.938 2431709 2394926 2357978 2317437 2268672 2208889 2138558 2062846 
2179.796 1990343 1930598 1890861 1872792 1872525 1882143 1892925 1899880 
2183.653 1900047 1894256 1884638 1872126 1855987 1835190 1809669 1780524 
2187.511 1752544 1729024 1712624 1702579 1696159 1689140 1679294 1667653 
2191.368 1657674 1653949 1659869 1674438 1694196 1714121 1730422 1742863 
2195.226 1754607 1770010 1793433 1825773 1864439 1904939 1943312 1977328 
2199.083 2007519 2035448 2061648 2084054 2098803 2100567 2086218 2056621 
2202.940 2017106 1975996 1941781 1920381 1914324 1921978 1939884 1964480 
2206.798 1992839 2022698 2051594 2076496 2093575 2099968 2095040 2080258 
2210.655 2060649 2041640 2028324 2022465 2023663 2029422 2037345 2046267 
2214.513 2057686 2073766 2096738 2127137 2163765 2203527 2243692 2282394 
2218.370 2318269 2351482 2381232 2405554 2422247 2428511 2423213 2407320 
2222.228 2383964 2357012 2330761 2308043 2290189 2277365 2269471 2266373 
2226.085 2268305 2275200 2285692 2298216 2310808 2321667 2330995 2339822 
2229.942 2349583 2361476 2375069 2387929 2397991 2403655 2405521 2407387 
2233.800 2413584 2427978 2452768 2486824 2526649 2567943 2607042 2642310 
2237.657 2673481 2701486 2726126 2747199 2763804 2775009 2781678 2786447 
2241.515 2791716 2800719 2814626 2832735 2853313 2874726 2896040 2918155 
2245.372 2942607 2970730 3002391 3035923 3068723 3098456 3124119 3146981 
2249.229 3168708 3191105 3214437 3237236 3256865 3271254 3279633 3283573 
2253.087 3285943 3289782 3296360 3305341 3314322 3320732 3322869 3320766 
2256.944 3315524 3309013 3301735 3292854 3280635 3262974 3238538 3208028 
2260.802 3173682 3138804 3106766 3079802 3059614 3047468 3043664 3048569 
2264.659 3062216 3083206 3108568 3134699 3157594 3174750 3185163 3190237 
2268.517 3192240 3193641 3195611 3197780 3199449 3199650 3198214 3196345 
2272.374 3196112 3198681 3204356 3212033 3219677 3226187 3231127 3235500 
2276.231 3241442 3251023 3264744 3281870 3300299 3317627 3332252 3343938 
2280.089 3353488 3362303 3371953 3383173 3396297 3411658 3428490 3446558 
2283.946 3464426 3480425 3491848 3496357 3492683 3481093 3464393 3445923 
2287.804 3429525 3417436 3409655 3404145 3397733 3388015 3374057 3357160 
2291.661 3339998 3326175 3317961 3316626 3321701 3331918 3345841 3362336 
2295.519 3380502 3399102 3416968 3432063 3442450 3446992 3445556 3439311 
2299.376 3430527 3421343 3413295 3406883 3402041 3398200 3395228 3393425 
2303.233 3393492 3395863 3400772 3407584 3415432 3423313 3430727 3438041 
2307.091 3445556 3453638 3462155 3470438 3477886 3484099 3489543 3495088 
2310.948 3502336 3511990 3524148 3538178 3552443 3565772 3577030 3585750 
2314.806 3591797 3594804 3594102 3589191 3579736 3566373 3550772 3535473 
2318.663 3523213 3515564 3513225 3515096 3519405 3523781 3525819 3523982 
2322.521 3516532 3501701 3477987 3444320 3400772 3349213 3293021 3236702 
2326.378 3184562 3139705 3103095 3073428 3048302 3025079 3002057 2979003 
2330.235 2957085 2938170 2923659 2914019 2909049 2908315 2911384 2918555 
2334.093 2929730 2944875 2963157 2983040 3002791 3021409 3038759 3055776 
2337.950 3074162 3095019 3118980 3145679 3174316 3204189 3235233 3267715 
2341.808 3301701 3336325 3369916 3400204 3425785 3447794 3470204 3499397 
2345.665 3541586 3601987 3681176 3776188 3879713 3983830 4079912 4160861 
2349.522 4221549 4258822 4271873 4261834 4231553 4185818 4129717 4068741 
2353.380 4007774 3950058 3897398 3850695 3810214 3776088 3749016 3729632 
2357.237 3718169 3714627 3717668 3725321 3735748 3746810 3757571 3767130 
2361.095 3775553 3782939 3789491 3795875 3803630 3814894 3832343 3858317 
2364.952 3893955 3938489 3989214 4042654 4094830 4143064 4186821 4227404 
2368.810 4267489 4310121 4358279 4413973 4478681 4552338 4634111 4722398 
2372.667 4814288 4906634 4996049 5080219 5157968 5229762 5297240 5362045 
2376.524 5425787 5488934 5551016 5610992 5668157 5722475 5774719 5825693 
2380.382 5876303 5926684 5976366 6024474 6070269 6113951 6155924 6197397 
2384.239 6239312 6281868 6324597 6366826 6407714 6447429 6486676 6526667 
2388.097 6568714 6613120 6659482 6706858 6754374 6801659 6849152 6897963 
2391.954 6948833 7002504 7058236 7114817 7170798 7225002 7277292 7328307 
2395.812 7379498 7432008 7486717 7543859 7603032 7663495 7724337 7784615 
2399.669 7843483 7899727 7952605 8001776 8047274 8090312 8132308 8174916 
2403.526 8219283 8265783 8314382 8364337 8415583 8467948 8522009 8578342 
2407.384 8637353 8699210 8763950 8831845 8904045 8981704 9066380 9158483 
2411.241 9257172 9359540 9461695 9559539 9649545 9730692 9803482 9869879 
2415.099 9932082 9991717 10049563 10105925 10160699 10214396 10268200 
2418.474 10323301 10380580 10440073 10500967 10562411 10623797 10685768 
2421.849 10749752 10817857 10891984 10972684 11059720 11151635 11247242 
2425.224 11345829 11447874 11554537 11667080 11786223 11911870 12043309 
2428.600 12179491 12319875 12464702 12614251 12769380 12930161 13096091 
2431.975 13266457 13440478 13617714 13798135 13982258 14170362 14361972 
2435.350 14556647 14753467 14952091 15152761 15355960 15562071 15771065 
2438.725 15981533 16191140 16397165 16597128 16789502 16973864 17150652 
2442.101 17320514 17484024 17640866 17790450 17932312 18066382 18193064 
2445.476 18313354 18428252 18538752 18645372 18748422 18847998 18944450 
2448.851 19037392 19126440 19210382 19287722 19356762 19416910 19468956 
2452.226 19515428 19560554 19609462 19666976 19736908 19821660 19922248 
2455.602 20038334 20169652 20315526 20475618 20649704 20837382 21038146 
2458.977 21251288 21475778 21710938 21955148 22207622 22467218 22733048 
2462.352 23004804 23283266 23569568 23865652 24173324 24493690 24827204 
2465.727 25173722 25532814 25904934 26291314 26694070 27115574 27557858 
2469.103 28021302 28505056 29006490 29522446 30049132 30583676 31123256 
2472.478 31665932 32209854 32753642 33295926 33835308 34370660 34899816 
2475.853 35420196 35928032 36418160 36885388 37324776 37732404 38105440 
2479.228 38442372 38742036 39003372 39224612 39404784 39542456 39637588 
2482.604 39691896 39707760 39689356 39640964 39567136 39472708 39361936 
2485.979 39238792 39106472 38967200 38821268 38667596 38504312 38328428 
2489.354 38137740 37930724 37707036 37466416 37209392 36935564 36643452 
2492.729 36331688 35997936 35640844 35259496 34853608 34423528 33969936 
2496.104 33493768 32996490 32480002 31946938 31400316 30843244 30278644 
2499.480 29708816 29135590 28560642 27985748 27413766 26847614 26290610 
2502.855 25745958 25215752 24700608 24200506 23714384 23241806 22782944 
2506.230 22338692 21910646 21500636 21110110 20739952 20390668 20062414 
2509.605 19755876 19471658 19210172 18971552 18755132 18559360 18382310 
2512.981 18221776 18076364 17945330 17828974 17727662 17642006 17572376 
2516.356 17518934 17481782 17460948 17456394 17467984 17494958 17535528 
2519.731 17587556 17648528 17716134 17789034 17866640 17948472 18034674 
2523.106 18124416 18216284 18308586 18399144 18486194 18568178 18643782 
2526.482 18711578 18770042 18817584 18852532 18873328 18879490 18870354 
2529.857 18845852 18805922 18750012 18678266 18590866 18488858 18374532 
2533.232 18250494 18120202 17986460 17851656 17717274 17584796 17455324 
2536.607 17329962 17209976 17095884 16987440 16883258 16781340 16679961 
2539.983 16578160 16476244 16375799 16278952 16187424 16102141 16022202 
2543.358 15945852 15870545 15794635 15717089 15637632 15556955 15475983 
2546.733 15395404 15316109 15238408 15163157 15090972 15022469 14957646 
2550.108 14895988 14836499 14778046 14720149 14662774 14606914 14553701 
2553.484 14503782 14457843 14415231 14375809 14338924 14305021 14274785 
2556.859 14249003 14228082 14211204 14196722 14182310 14165261 14144243 
2560.234 14118126 14087218 14051829 14012508 13969426 13922654 13872568 
2563.609 13820231 13767353 13716293 13669138 13627561 13592825 13564621 
2566.985 13542914 13527156 13516969 13511979 13511637 13515123 13521516 
2570.360 13529616 13538983 13549990 13563254 13579731 13600415 13625304 
2573.735 13653410 13683260 13713352 13742079 13768789 13793346 13815818 
2577.110 13836581 13855875 13874074 13892000 13910406 13930831 13954474 
2580.486 13982087 14014219 14050769 14091633 14136301 14185425 14239073 
2583.861 14297522 14360259 14426226 14493744 14561239 14627784 14693346 
2587.236 14759191 14827173 14898972 14975618 15057182 15142708 15231099 
2590.611 15320811 15410680 15499881 15587143 15671503 15751788 15827177 
2593.987 15897043 15961869 16022580 16080374 16136492 16191140 16244279 
2597.362 16295156 16343215 16388701 16432196 16474972 16518716 16564839 
2600.737 16613893 16666120 16721178 16778172 16836722 16896280 16956672 
2604.112 17017968 17081100 17146550 17215942 17290858 17372790 17462912 
2607.488 17561438 17667956 17781336 17900132 18023070 18149360 18278656 
2610.863 18411034 18546774 18686118 18829244 18976156 19126544 19280344 
2614.238 19436904 19595320 19754348 19912778 20069218 20222866 20373722 
2617.613 20521678 20667320 20810580 20951138 21087812 21219624 21345628 
2620.989 21465368 21579360 21688368 21793256 21894476 21992092 22085410 
2624.364 22173796 22256620 22333772 22405566 22472732 22535930 22595994 
2627.739 22653346 22708782 22762936 22816292 22869026 22920718 22970252 
2631.114 23016192 23056968 23091524 23119864 23142510 23160926 23176620 
2634.490 23190390 23202694 23213074 23220940 23225728 23227580 23227022 
2637.865 23225204 23223176 23222128 23222966 23226322 23233174 23243764 
2641.240 23258832 23278372 23302146 23329554 23359938 23392630 23427986 
2644.615 23466280 23508600 23556136 23609520 23668860 23733980 23804046 
2647.990 23878394 23956116 24036900 24120324 24205656 24292058 24378090 
2651.366 24462386 24543788 24621594 24695942 24767426 24837274 24906676 
2654.741 24977072 25049376 25124042 25201250 25280756 25361994 25444270 
2658.116 25526944 25609496 25691854 25774016 25856402 25939192 26022772 
2661.491 26106896 26191458 26276144 26360526 26444540 26527900 26610678 
2664.867 26692732 26773884 26853958 26933060 27010980 27088558 27165870 
2668.242 27243334 27321062 27399192 27477300 27555562 27634264 27714074 
2671.617 27795840 27880380 27968398 28060040 28155552 28254978 28358706 
2674.992 28467232 28581344 28701396 28827396 28958744 29094524 29233254 
2678.368 29374226 29516806 29661346 29808064 29957354 30109074 30262728 
2681.743 30417434 30572584 30727398 30881948 31036590 31191604 31347710 
2685.118 31505224 31664468 31825878 31989664 32156404 32326240 32499392 
2688.493 32675720 32855052 33037000 33221916 33409916 33601364 33796768 
2691.869 33995876 34198336 34403300 34610112 34818352 35028308 35241136 
2695.244 35457804 35679940 35908236 36142632 36382632 36626980 36874744 
2698.619 37124964 37377172 37631584 37888164 38147764 38410372 38676184 
2701.994 38945200 39216780 39490524 39765420 40040856 40316100 40590868 
2705.370 40865148 41139280 41413364 41688060 41963768 42240860 42519768 
2708.745 42801596 43087232 43377564 43673728 43975960 44284824 44600116 
2712.120 44921952 45250544 45586332 45929860 46281360 46640232 47004676 
2715.495 47372240 47739260 48102372 48458564 48805668 49142588 49469376 
2718.871 49787076 50097536 50402860 50705908 51009348 51316024 51628588 
2722.246 51949032 52279208 52620476 52973732 53339864 53719580 54113060 
2725.621 54519972 54939672 55370660 55811232 56259752 56714400 57173872 
2728.996 57637120 58102684 58569052 59034172 59495804 59951952 60400588 
2732.372 60840304 61269676 61687204 62090996 62478788 62848048 63196540 
2735.747 63522720 63825780 64105920 64364196 64602160 64821408 65024792 
2739.122 65215112 65396228 65572328 65748236 65928340 66116624 66316412 
2742.497 66530080 66759764 67007244 67274176 67562048 67871656 68203192 
2745.873 68555200 68925232 69309696 69703792 70101632 70496928 70882616 
2749.248 71251016 71594800 71907288 72182688 72417256 72608768 72756800 
2752.623 72861800 72925016 72947280 72929208 72870936 72771368 72628664 
2755.998 72440160 72202672 71913000 71568384 71167080 70708760 70194792 
2759.374 69627312 69009744 68346304 67641448 66900588 66130048 65336720 
2762.749 64529000 63715756 62905416 62106820 61327784 60575132 59855384 
2766.124 59174604 58537660 57949652 57414244 56933968 56509996 56141900 
2769.499 55828148 55566540 55354248 55188332 55065960 54983968 54939184 
2772.875 54927604 54944788 54985476 55044260 55115276 55192808 55270888 
2776.250 55344388 55408000 55457240 55488640 55499668 55488484 55454752 
2779.625 55398964 55322824 55228780 55120388 55001608 54876956 54750652 
2783.000 54626936 54508700 54398164 54296060 54201940 54114488 54031292 
2786.375 53949120 53864004 53771700 53667384 53546492 53405020 53239700 
2789.751 53048416 52830464 52586520 52319156 52032316 51731592 51423656 
2793.126 51115672 50815324 50528988 50262596 50020608 49806436 49623012 
2796.501 49472752 49358328 49282384 49247680 49256476 49310740 49411304 
2799.876 49558312 49751292 49988596 50268104 50586464 50940232 51325200 
2803.252 51736636 52170164 52621936 53088516 53566844 54053840 54545740 
2806.627 55038276 55525648 56001656 56459996 56894648 57299940 57671480 
2810.002 58004824 58295748 58540384 58734744 58875652 58960616 58989008 
2813.377 58961376 58879556 58747112 58568596 58349488 58097004 57818964 
2816.753 57524272 57222704 56923960 56637460 56372540 56137188 55938752 
2820.128 55783460 55675420 55617196 55608832 55648340 55731208 55851584 
2823.503 56002712 56177048 56366768 56564872 56763336 56954672 57132296 
2826.878 57289200 57420828 57523928 57596976 57640528 57656720 57648396 
2830.254 57619568 57574468 57518256 57455584 57391784 57331284 57277296 
2833.629 57232192 57197080 57172136 57157320 57152668 57158680 57176140 
2837.004 57206076 57249772 57309320 57387512 57488868 57620060 57788724 
2840.379 58004292 58276464 58613876 59024836 59516816 60096716 60772232 
2843.755 61551764 62443552 63454272 64586280 65834016 67180096 68592832 
2847.130 70026760 71419160 72698544 73790608 74621584 75134320 75293136 
2850.505 75089296 74542736 73699200 72625136 71391824 70073800 68738992 
2853.880 67439080 66214056 65088884 64075352 63175388 62383184 61687968 
2857.256 61075056 60529348 60036296 59582260 59156948 58752236 58361804 
2860.631 57980812 57604732 57228452 56847168 56455620 56048964 55624048 
2864.006 55179868 54717764 54242112 53760188 53282288 52819204 52383416 
2867.381 51986600 51638328 51346344 51115188 50946636 50839164 50788620 
2870.757 50788732 50829960 50901336 50990644 51084628 51171548 51241340 
2874.132 51286568 51303232 51290332 51248872 51181240 51090368 50978980 
2877.507 50849780 50705420 50548792 50382616 50209852 50033584 49856348 
2880.882 49680592 49508436 49341960 49182884 49032852 48893288 48765036 
2884.258 48648760 48544632 48452860 48373628 48307112 48253236 48212248 
2887.633 48183776 48167636 48163452 48171488 48191776 48225316 48273084 
2891.008 48336296 48416448 48515768 48637052 48784612 48963604 49180064 
2894.383 49440340 49750140 50113120 50530292 50998804 51511988 52058428 
2897.759 52621412 53181572 53716280 54202092 54619384 54953512 55198304 
2901.134 55356808 55441464 55471884 55469700 55458632 55459988 55490220 
2904.509 55563416 55690264 55879016 56137492 56472752 56891852 57402220 
2907.884 58012016 58730384 59567816 60534948 61640728 62889248 64276472 
2911.260 65785788 67385096 69030328 70662280 72212384 73614208 74802176 
2914.635 75723048 76342776 76645664 76637880 76342536 75798392 75050816 
2918.010 74146352 73131528 72045768 70922448 69789352 68667152 67572384 
2921.385 66517292 65509716 64554944 63655748 62813236 62027928 61300044 
2924.760 60630296 60018868 59465672 58969156 58525864 58130108 57774456 
2928.136 57449112 57143560 56847096 56549400 56241912 55919188 55578556 
2931.511 55220880 54850528 54474072 54098536 53730980 53377068 53040668 
2934.886 52723944 52428200 52154436 51903624 51677364 51477256 51305436 
2938.261 51163684 51054068 50978424 50938516 50936208 50972348 51046688 
2941.637 51157384 51299916 51467932 51652844 51844296 52031048 52201104 
2945.012 52341620 52440912 52488468 52476092 52400124 52261828 52068176 
2948.387 51830780 51565976 51292160 51026488 50785228 50580396 50419272 
2951.762 50304892 50236412 50210296 50220788 50262000 50327884 50412796 
2955.138 50511756 50620492 50734952 50852160 50969628 51086084 51201524 
2958.513 51316956 51434696 51556872 51685612 51821744 51966028 52117376 
2961.888 52275020 52437808 52605028 52775648 52948956 53123264 53296408 
2965.263 53465988 53628920 53783140 53927400 54061760 54187376 54306988 
2968.639 54424004 54542400 54666808 54802256 54952988 55122648 55313264 
2972.014 55524668 55754828 55999660 56253600 56510452 56763748 57007372 
2975.389 57235408 57442608 57624596 57778124 57901492 57995128 58061248 
2978.764 58103632 58126776 58135376 58133632 58125336 58113520 58101360 
2982.140 58091172 58084732 58081964 58080872 58076056 58060304 58023532 
2985.515 57955144 57845352 57685596 57470032 57196588 56866396 56483884 
2988.890 56056504 55594332 55107864 54608112 54105220 53606992 53119484 
2992.265 52646360 52189596 51749588 51325608 50915416 50515888 50122116 
2995.641 49728480 49328072 48914088 48481016 48024280 47542108 47034508 
2999.016 46504200 45955272 45393684 44826136 44259548 43700400 43153908 
3002.391 42623708 42111164 41616288 41137712 40673932 40223876 39787280 
3005.766 39364768 38957344 38565764 38190020 37828984 37481116 37144272 
3009.142 36816136 36495632 36181596 35873652 35571468 35274628 34982912 
3012.517 34695772 34413196 34134712 33860308 33589624 33322364 33058238 
3015.892 32797304 32540068 32287728 32042026 31804808 31577658 31361528 
3019.267 31156362 30961432 30775660 30598110 30428236 30266282 30112944 
3022.643 29969388 29836812 29716516 29610372 29519926 29447088 29394152 
3026.018 29362564 29353098 29364868 29395288 29439608 29490706 29540284 
3029.393 29578766 29596572 29585648 29539894 29456308 29335410 29180736 
3032.768 28998202 28794396 28575930 28348518 28115994 27881440 27646728 
3036.144 27413168 27182094 26954178 26729974 26509656 26292616 26078888 
3039.519 25868218 25660954 25457866 25259964 25068014 24882606 24703870 
3042.894 24531798 24366560 24208740 24058962 23917990 23786022 23662596 
3046.269 23546586 23436482 23331164 23229572 23131712 23037890 22948664 
3049.645 22864136 22784096 22708188 22635822 22566990 22502008 22441818 
3053.020 22386588 22336668 22291148 22248946 22208666 22169506 22131222 
3056.395 22094476 22060032 22028692 22001016 21976862 21956334 21939466 
3059.770 21926850 21919460 21918452 21924722 21939118 21961700 21992198 
3063.146 22030332 22076102 22129234 22189522 22256166 22327634 22401486 
3066.521 22475280 22546156 22611526 22669332 22717684 22754904 22779660 
3069.896 22790870 22787692 22770302 22739856 22698238 22648002 22591562 
3073.271 22531532 22469766 22407800 22346994 22288322 22232590 22180456 
3076.646 22131676 22085446 22040544 21995440 21948632 21899282 21847572 
3080.022 21794056 21739606 21685510 21632886 21582392 21534930 21490818 
3083.397 21450608 21414684 21383392 21356800 21334876 21317404 21303866 
3086.772 21293914 21287060 21282708 21280516 21279994 21281072 21283892 
3090.147 21289008 21296908 21308218 21323110 21341208 21361846 21384436 
3093.523 21408000 21432786 21458754 21486744 21517138 21550320 21586082 
3096.898 21623796 21662732 21701568 21739816 21776882 21812452 21846632 
3100.273 21879770 21912562 21946156 21981184 22018374 22058008 22099250 
3103.648 22141018 22182340 22222546 22262026 22302204 22345180 22393078 
3107.024 22447156 22507486 22572680 22640114 22706932 22770966 22830470 
3110.399 22885302 22935738 22983072 23028596 23073424 23118886 23165924 
3113.774 23215102 23266452 23319344 23372666 23425084 23475338 23522906 
3117.149 23568030 23611480 23654304 23696958 23739020 23779546 23816926 
3120.525 23849760 23877764 23901500 23922540 23942812 23964240 23988120 
3123.900 24015118 24045374 24078890 24115282 24154582 24196198 24239570 
3127.275 24283926 24328396 24372726 24417028 24461824 24508204 24556656 
3130.650 24607288 24659468 24712076 24763848 24814188 24862674 24909976 
3134.026 24957278 25005640 25056080 25109438 25166244 25226532 25290448 
3137.401 25357252 25425930 25495004 25562650 25627176 25687810 25744482 
3140.776 25798312 25850774 25903632 25957870 26014046 26071852 26130542 
3144.151 26190120 26250130 26311204 26373554 26437358 26502400 26568512 
3147.527 26635266 26702808 26771662 26842258 26915048 26990070 27066306 
3150.902 27142448 27216700 27287824 27354762 27417790 27477864 27536004 
3154.277 27593764 27652412 27712624 27775352 27840388 27907584 27976066 
3157.652 28044876 28113060 28180018 28246068 28312090 28379504 28449580 
3161.028 28523278 28600632 28680584 28762002 28843188 28923186 29001886 
3164.403 29079290 29155930 29232264 29308184 29383586 29458116 29532304 
3167.778 29606752 29682490 29760764 29841994 29926258 30012526 30099804 
3171.153 30186746 30272284 30355992 30437724 30517412 30595300 30671390 
3174.529 30745892 30819304 30892478 30966734 31043136 31122828 31206272 
3177.904 31293224 31383112 31474586 31566900 31659018 31750408 31840782 
3181.279 31930212 32018590 32106132 32192870 32278910 32364436 32449902 
3184.654 32536100 32623962 32714732 32808882 32907020 33008360 33112158 
3188.030 33216908 33321184 33424232 33525906 33626964 33728512 33831364 
3191.405 33936076 34042172 34148440 34253800 34357140 34458640 34558764 
3194.780 34658808 34760232 34863876 34970344 35079496 35191152 35304960 
3198.155 35420916 35538776 35658504 35779196 35899888 36019572 36137268 
3201.531 36252836 36366420 36479056 36591580 36704852 36819168 36934592 
3204.906 37050768 37168024 37286468 37406100 37527100 37649000 37771004 
3208.281 37892108 38011616 38129276 38245192 38360204 38474592 38588576 
3211.656 38701756 38813152 38922440 39029616 39135408 39241076 39348228 
3215.031 39458048 39571056 39687248 39806744 39928848 40053680 40180764 
3218.407 40309848 40440244 40571004 40701184 40829660 40956352 41081476 
3221.782 41205764 41329792 41454080 41578656 41702980 41827040 41950960 
3225.157 42075276 42200612 42327304 42454688 42581744 42706608 42827524 
3228.532 42943496 43054488 43161480 43266160 43369984 43474416 43579908 
3231.908 43685964 43792236 43897432 44000968 44102544 44202096 44300312 
3235.283 44398364 44498088 44600996 44708596 44821540 44938860 45058668 
3238.658 45178656 45295812 45408472 45516304 45620224 45722036 45823468 
3242.033 45925732 46028760 46132328 46235696 46338904 46443060 46550156 
3245.409 46662476 46781508 46907584 47039644 47175732 47313340 47450696 
3248.784 47586652 47721104 47854372 47987196 48120028 48253384 48387444 
3252.159 48522696 48659692 48799144 48941496 49086904 49235172 49385572 
3255.534 49537368 49689620 49841852 49993540 50144728 50295596 50446440 
3258.910 50597896 50750780 50905916 51064168 51225756 51390500 51557692 
3262.285 51726368 51895188 52063544 52230700 52396984 52562768 52729072 
3265.660 52896780 53066536 53239100 53414800 53593308 53773876 53955308 
3269.035 54135880 54314348 54489696 54661808 54831616 55000932 55171780 
3272.411 55345932 55525120 55709924 55900268 56096056 56296828 56502600 
3275.786 56713232 56929208 57150020 57375672 57605004 57837172 58070792 
3279.161 58304996 58539176 58772908 59006652 59240716 59476424 59714772 
3282.536 59957240 60204944 60458660 60719036 60986276 61260248 61540844 
3285.912 61827924 62121084 62420100 62724492 63033768 63347564 63665836 
3289.287 63989072 64317928 64653264 64995780 65345504 65702484 66066160 
3292.662 66436276 66812588 67195536 67585200 67982112 68385792 68795632 
3296.037 69211096 69631288 70056392 70487024 70923776 71367448 71818152 
3299.413 72275536 72738776 73207720 73682360 74163992 74653608 75152920 
3302.788 75662384 76181760 76710224 77247320 77792976 78348208 78914920 
3306.163 79494984 80089608 80698688 81321576 81956960 82603584 83260952 
3309.538 83928728 84607120 85295832 85993928 86700352 87414088 88135480 
3312.914 88865560 89606568 90360392 91128344 91909824 92703664 93507672 
3316.289 94320040 95140296 95968536 96805488 97651728 98507104 99370792 
3319.664 100241840 101119440 102003600 102894224 103791640 104694376 
3322.557 105599712 106504608 107405616 108300632 109189072 110071856 
3325.450 110949936 111823528 112691416 113551232 114400416 115236704 
3328.343 116058944 116867344 117661136 118439000 119197216 119930864 
3331.236 120634024 121302624 121933296 122525128 123077592 123590416 
3334.129 124062280 124491880 124877424 125219408 125519368 125780672 
3337.022 126006264 126197440 126352456 126467880 126538832 126560736 
3339.916 126531112 126449752 126317624 126135944 125904680 125622448 
3342.809 125287488 124897424 124450752 123947480 123388232 122773728 
3345.702 122104440 121380616 120603280 119774064 118896488 117975392 
3348.595 117015720 116022328 114998208 113945792 112866176 111760784 
3351.488 110631352 109480416 108310368 107124008 105923240 104710528 
3354.381 103488528 102261104 101033304 99810664 98598616 97400928 96219672 
3357.756 95055200 93907208 92775496 91661248 90566176 89492792 88443176 
3361.131 87418624 86418960 85443208 84490288 83559024 82649152 81760728 
3364.507 80894608 80050640 79229112 78429848 77652496 76897344 76164784 
3367.882 75455088 74768016 74102608 73457064 72828736 72215120 71613904 
3371.257 71023304 70442520 69871032 69308408 68754600 68209048 67671344 
3374.632 67140608 66615784 66095940 65580152 65067320 64557368 64050428 
3378.008 63547112 63048520 62555008 62066568 61582192 61100380 60619136 
3381.383 60137396 59654060 59169592 58684224 58198944 57714088 57229776 
3384.758 56745892 56262352 55779580 55298060 54818576 54341568 53867492 
3388.133 53396400 52928332 52463680 52002924 51547096 51096852 50652584 
3391.509 50214500 49782172 49355172 48933560 48517288 48106480 47700428 
3394.884 47298008 46896992 46495312 46091388 45685304 45278928 44875440 
3398.259 44478340 44090444 43712968 43345160 42985272 42630868 42279896 
3401.634 41931360 41584416 41238844 40894128 40549324 40203552 39856496 
3405.010 39508628 39161584 38817680 38478648 38145412 37817600 37493864 
3408.385 37172608 36852708 36534088 36218008 35906112 35599984 35300792 
3411.760 35008056 34721112 34438196 34157904 33879044 33600868 33323116 
3415.135 33045828 32769184 32493822 32220598 31949792 31681790 31416592 
3418.510 31153654 30892692 30633592 30377420 30126048 29881532 29645916 
3421.886 29420000 29202670 28991472 28783104 28574090 28362420 28147564 
3425.261 27930482 27712944 27497208 27284402 27075228 26869468 26666448 
3428.636 26465528 26265898 26066890 25868076 25669110 25469986 25271658 
3432.011 25075210 24882640 24695032 24512970 24335894 24162254 23990116 
3435.387 23817976 23645662 23474150 23305536 23141392 22982620 22828340 
3438.762 22676768 22524936 22370646 22213376 22053930 21893916 21735878 
3442.137 21581484 21431600 21285144 21139816 20993110 20842248 20685044 
3445.512 20520706 20349624 20174408 19998084 19825338 19659694 19503852 
3448.888 19358218 19220944 19088630 18957602 18824744 18688920 18550612 
3452.263 18412004 18275720 18143658 18016300 17892984 17772396 17652980 
3455.638 17533768 17414626 17295652 17176814 17057770 16937550 16815194 
3459.013 16690291 16563118 16434811 16306989 16180547 16056513 15934817 
3462.389 15815321 15697885 15582816 15471004 15363101 15259102 15158388 
3465.764 15059617 14961488 14862419 14762037 14660820 14559388 14458220 
3469.139 14357417 14256261 14154102 14050563 13946091 13841918 13739445 
3472.514 13639562 13542367 13446630 13350504 13252554 13151484 13048013 
3475.890 12943440 12839576 12738500 12641370 12548559 12459587 12373089 
3479.265 12288243 12203244 12117034 12028900 11938365 11845977 11753030 
3482.640 11661975 11574750 11493394 11417836 11347359 11279172 11210622 
3486.015 11139159 11063629 10984476 10903299 10822306 10743129 10666446 
3489.391 10591880 10518312 10444689 10370501 10295953 10222435 10151406 
3492.766 10084220 10021758 9964288 9911641 9862964 9817514 9774270 9732318 
3496.623 9691387 9651070 9611636 9573291 9536202 9500369 9465116 9429763 
3500.481 9393398 9355207 9315056 9273928 9233073 9194626 9160446 9131717 
3504.338 9109282 9092906 9081943 9074838 9070406 9066820 9062557 9056636 
3508.196 9048821 9040194 9032277 9027169 9026154 9029774 9036777 9044964 
3512.053 9051731 9055452 9055994 9054910 9054910 9058835 9068511 9083805 
3515.910 9103056 9123798 9143120 9159193 9171275 9179668 9185150 9187790 
3519.768 9187452 9182713 9172256 9154625 9128908 9095139 9054133 9006940 
3523.625 8955185 8900190 8843173 8784507 8723956 8660167 8591522 8516198 
3527.483 8433014 8342146 8245284 8145340 8045587 7948353 7854921 7764679 
3531.340 7675602 7586038 7494268 7399719 7302900 7204620 7105420 7005366 
3535.198 6904292 6801424 6697200 6592128 6487753 6385185 6285869 6189499 
3539.055 6095906 6004551 5914995 5827842 5743896 5663826 5588068 5516014 
3542.912 5445817 5375464 5302909 5226911 5147306 5064664 4980564 4896480 
3546.770 4813786 4733754 4657554 4586157 4519759 4458226 4400217 4344155 
3550.627 4287499 4228442 4166348 4101419 4035430 3970689 3909200 3851899 
3554.485 3798683 3748247 3698920 3648362 3595539 3539014 3478321 3413261 
3558.342 3344105 3271754 3197413 3123051 3050771 2982406 2919189 2861718 
3562.199 2809424 2761237 2715289 2669813 2622109 2569577 2509519 2440006 
3566.057 2359811 2270037 2174188 2077162 1983985 1899048 1823843 1757967 
3569.914 1699518 1645834 1595348 1546997 1500812 1457158 1415670 1375715 
3573.772 1335364 1292425 1244839 1191808 1132838 1069192 1002134 933593 
3577.629 865129 797804 732714 670487 611853 557141 506848 461039 420044 
3581.969 384425 354745 331599 313992 300265 286571 268336 239923 197258 
3586.308 138422 65212 -16964 -100119 -176204 -239062 -286117 -318169 -338762 
3590.648 -352469 -364321 -378192 -397989 -425861 -462967 -508508 -560431 
3594.505 -615393 -669553 -719307 -762903 -799649 -830769 -858349 -884605 
3598.363 -911620 -940352 -970636 -1001777 -1032256 -1060649 -1085538 
3601.738 -1106029 -1121430 -1131609 -1136863 -1138020 -1136301 -1133625 
3605.113 -1132171 -1134484 -1142878 -1159236 -1185110 -1220300 -1263582 
3608.489 -1312409 -1363344 -1413415 -1460475 -1504228 -1545534 -1586241 
3611.864 -1627538 -1669954 -1711838 -1750253 -1782427 -1805888 -1820308 
3615.239 -1827699 -1831955 -1837696 -1849376 -1870986 -1904636 -1950356 
3618.614 -2006329 -2068956 -2133388 -2194645 -2248542 -2291524 -2322208 
3621.990 -2340236 -2346629 -2343235 -2331865 -2314562 -2293139 -2269276 
3625.365 -2245114 -2223919 -2209546 -2207370 -2222171 -2256816 -2309388 
3628.740 -2372795 -2435501 -2485910 -2518260 -2532261 -2533249 -2528275 
3632.115 -2523432 -2523103 -2528308 -2537663 -2548237 -2557756 -2564443 
3635.490 -2569285 -2573567 -2579694 -2589147 -2602387 -2618888 -2637792 
3638.866 -2658243 -2679780 -2702106 -2725057 -2747216 -2766971 -2782214 
3642.241 -2790774 -2791728 -2785177 -2772930 -2757159 -2740433 -2725287 
3645.616 -2713532 -2706947 -2707144 -2715870 -2735132 -2766246 -2809308 
3648.991 -2862076 -2919972 -2976446 -3024160 -3057227 -3072493 -3070420 
3652.367 -3054233 -3029457 -3002409 -2979111 -2964994 -2963348 -2975097 
3655.742 -2998395 -3028898 -3061241 -3090884 -3115821 -3135855 -3152664 
3659.117 -3168025 -3183320 -3198681 -3213777 -3227295 -3238444 -3246501 
3662.492 -3251040 -3252224 -3249691 -3243377 -3232787 -3218053 -3199273 
3665.868 -3177433 -3154078 -3131381 -3112103 -3099306 -3095983 -3104208 
3669.243 -3124242 -3153289 -3184998 -3212034 -3227393 -3227558 -3212922 
3672.618 -3188386 -3161611 -3141480 -3136085 -3151085 -3186248 -3234530 
3675.993 -3284912 -3327199 -3355970 -3372080 -3380299 -3386053 -3393351 
3679.369 -3403575 -3415641 -3427771 -3437567 -3444241 -3448317 -3451144 
3682.744 -3453642 -3455647 -3455614 -3451538 -3441939 -3426752 -3408211 
3686.119 -3389538 -3375170 -3368529 -3371324 -3382140 -3397066 -3412090 
3689.494 -3422840 -3427771 -3427574 -3423859 -3418435 -3412912 -3407948 
3692.870 -3403477 -3399861 -3397198 -3396277 -3397099 -3399828 -3403740 
3696.245 -3407751 -3410512 -3411794 -3412057 -3412814 -3417021 -3427475 
3699.620 -3446213 -3474350 -3510769 -3552508 -3595394 -3634530 -3666072 
3702.995 -3687427 -3697974 -3697875 -3688282 -3670770 -3646621 -3617640 
3706.371 -3585536 -3552377 -3520695 -3493053 -3471162 -3456830 -3450157 
3709.746 -3451242 -3458836 -3471064 -3486052 -3501270 -3514253 -3522798 
3713.121 -3525395 -3521911 -3512610 -3499430 -3484540 -3470143 -3458836 
3716.496 -3452064 -3450618 -3454595 -3463372 -3475895 -3490982 -3507942 
3719.872 -3525362 -3542255 -3557405 -3569828 -3578306 -3582972 -3583991 
3723.247 -3582710 -3580442 -3578667 -3578667 -3580606 -3584287 -3588920 
3726.622 -3592765 -3594014 -3590826 -3581822 -3566837 -3546001 -3520925 
3729.997 -3493973 -3467514 -3443846 -3424056 -3408573 -3396737 -3388255 
3733.373 -3384047 -3386480 -3398381 -3422084 -3457061 -3498805 -3540085 
3736.748 -3572686 -3590991 -3593324 -3582282 -3561776 -3536602 -3509389 
3740.123 -3481549 -3453083 -3424320 -3397263 -3376716 -3369055 -3381088 
3743.498 -3416002 -3468697 -3526315 -3570025 -3586160 -3571306 -3531705 
3746.874 -3478985 -3425404 -3381844 -3355542 -3348966 -3360014 -3382370 
3750.249 -3407981 -3429941 -3443780 -3448317 -3443485 -3430039 -3408967 
3753.624 -3381549 -3349624 -3315822 -3282808 -3252849 -3228380 -3211048 
3756.999 -3201641 -3200786 -3208285 -3223907 -3245844 -3271528 -3297145 
3760.375 -3317368 -3327956 -3326575 -3313521 -3291949 -3266694 -3243377 
3763.750 -3225946 -3216968 -3216343 -3222164 -3230946 -3239431 -3245745 
3767.125 -3249757 -3252421 -3255414 -3260643 -3269193 -3281262 -3295994 
3770.500 -3311877 -3326871 -3338708 -3346138 -3348506 -3345875 -3339398 
3773.875 -3330323 -3319900 -3308950 -3297737 -3285932 -3273633 -3261202 
3777.251 -3249955 -3241897 -3238740 -3241634 -3249593 -3260445 -3270969 
3780.626 -3278532 -3281920 -3281920 -3280374 -3279716 -3281459 -3285734 
3784.001 -3291719 -3297638 -3301716 -3303228 -3303195 -3302735 -3303557 
3787.376 -3306944 -3312896 -3320919 -3330027 -3339300 -3348144 -3356101 
3790.752 -3362381 -3366195 -3366129 -3361263 -3350807 -3335551 -3317466 
3794.127 -3299578 -3284649 -3274784 -3270509 -3269884 -3269292 -3264918 
3797.502 -3253802 -3235517 -3212034 -3188024 -3169637 -3162894 -3171940 
3800.877 -3197036 -3233248 -3271857 -3302669 -3319308 -3319801 -3307339 
3804.253 -3287839 -3268239 -3254526 -3250119 -3255414 -3267187 -3280177 
3807.628 -3288595 -3289713 -3283104 -3270706 -3255414 -3239266 -3223447 
3811.003 -3207462 -3190721 -3173091 -3155296 -3139868 -3130262 -3129604 
3814.378 -3140230 -3161611 -3189636 -3216968 -3235583 -3239003 -3225289 
3817.754 -3196872 -3159309 -3120327 -3087495 -3067229 -3063939 -3078086 
3821.129 -3105195 -3137039 -3165789 -3184998 -3193056 -3191839 -3184998 
3824.504 -3176874 -3170657 -3167927 -3169012 -3172565 -3177137 -3181446 
3827.879 -3184899 -3187531 -3189570 -3191214 -3191675 -3189997 -3185162 
3831.255 -3176150 -3163618 -3148519 -3132433 -3117301 -3104570 -3094996 
3834.630 -3088844 -3086113 -3086508 -3090127 -3096082 -3104307 -3113814 
3838.005 -3123979 -3133914 -3142894 -3150789 -3156940 -3161611 -3164999 
3841.380 -3167565 -3170032 -3173584 -3178781 -3185886 -3193945 -3200983 
3844.756 -3204535 -3201773 -3191379 -3173321 -3149177 -3121380 -3092891 
3848.131 -3065748 -3040809 -3018039 -2996947 -2977696 -2961999 -2954035 
3851.506 -2959432 -2985035 -3035116 -3108419 -3195688 -3282281 -3353142 
3854.881 -3398644 -3416824 -3410578 -3385296 -3346303 -3298263 -3245317 
3858.257 -3190853 -3138388 -3090950 -3050482 -3018204 -2994380 -2978717 
3861.632 -2970490 -2969107 -2974702 -2986943 -3005305 -3027351 -3049298 
3865.007 -3066176 -3073973 -3070848 -3058543 -3041993 -3028009 -3023041 
3868.382 -3031662 -3054759 -3088318 -3123683 -3151118 -3163947 -3160887 
3871.758 -3145789 -3125426 -3106971 -3095983 -3094437 -3100589 -3110129 
3875.133 -3117400 -3117531 -3107958 -3088877 -3062623 -3032550 -3002771 
3878.508 -2977170 -2958544 -2949033 -2948638 -2955714 -2967133 -2978980 
3881.883 -2988523 -2994018 -2995993 -2996750 -2999481 -3007510 -3022416 
3885.259 -3042980 -3065090 -3083185 -3091871 -3088614 -3074401 -3053114 
3888.634 -3030181 -3011096 -3000369 -2999908 -3009254 -3024521 -3041138 
3892.009 -3053838 -3059333 -3056240 -3044987 -3026561 -3002475 -2974439 
3895.384 -2943800 -2912534 -2883406 -2858884 -2841569 -2833175 -2833735 
3898.760 -2841602 -2854308 -2868133 -2880805 -2891042 -2900028 -2909276 
3902.135 -2921487 -2937843 -2958346 -2980559 -3001225 -3016361 -3022975 
3905.510 -3019981 -3008168 -2990168 -2969140 -2948177 -2929747 -2914641 
3908.885 -2902562 -2892424 -2882846 -2872741 -2861616 -2850259 -2839133 
3912.260 -2829455 -2821555 -2815432 -2810428 -2806280 -2802889 -2800979 
3915.636 -2801276 -2804568 -2811119 -2819645 -2828533 -2835348 -2838047 
3919.011 -2835446 -2827513 -2815003 -2799268 -2781950 -2765127 -2750311 
3922.386 -2739413 -2733618 -2733848 -2739874 -2749949 -2761769 -2772173 
3925.761 -2778428 -2779613 -2776123 -2770065 -2764139 -2760550 -2760748 
3929.137 -2764600 -2771349 -2779481 -2787811 -2795778 -2803810 -2811711 
3932.512 -2819217 -2825406 -2828797 -2828171 -2823233 -2814806 -2804568 
3935.887 -2794889 -2787712 -2784058 -2783959 -2786296 -2789720 -2792683 
3939.262 -2794132 -2793473 -2790774 -2786263 -2780238 -2773358 -2766608 
3942.638 -2761143 -2757982 -2757851 -2760913 -2766510 -2773489 -2780436 
3946.013 -2786296 -2790840 -2793671 -2795218 -2795778 -2795679 -2794428 
3949.388 -2791827 -2787449 -2781588 -2774773 -2767728 -2761374 -2755875 
3952.763 -2751167 -2746755 -2742211 -2736877 -2730819 -2724168 -2717220 
3956.139 -2710569 -2704411 -2699307 -2695356 -2693150 -2692886 -2694796 
3959.514 -2698649 -2703983 -2709976 -2715837 -2720809 -2724793 -2727625 
3962.889 -2729732 -2731313 -2732103 -2732136 -2730918 -2728547 -2724925 
3966.264 -2720678 -2716298 -2712446 -2709252 -2706716 -2704247 -2701415 
3969.640 -2697661 -2692820 -2686827 -2680011 -2672700 -2665159 -2657881 
3973.015 -2651064 -2645498 -2641382 -2638978 -2638550 -2639834 -2642930 
3976.390 -2646881 -2651426 -2655214 -2657749 -2658243 -2656004 -2651525 
3979.765 -2645070 -2638253 -2632127 -2628044 -2626759 -2627846 -2630744 
3983.141 -2633972 -2636639 -2637924 -2637924 -2637166 -2635882 -2634367 
3986.516 -2632127 -2628933 -2623894 -2616846 -2608382 -2599456 -2591551 
3989.891 -2586215 -2584009 -2585095 -2589344 -2595668 -2603540 -2612004 
3993.266 -2620139 -2626825 -2630942 -2631601 -2628505 -2622082 -2613388 
3996.642 -2604331 -2596755 -2591617 -2589344 -2589509 -2590892 -2592737 
4000.017 -2594647 -2596755 
##END=
