
##TITLE=L1760A_3
##JCAMP-DX=5.01  $$ Nicolet v. 1
##DATATYPE=INFRARED SPECTRUM
##ORIGIN=UniL
##OWNER=Nicolet
##LONGDATE=2011/08/18
##TIME=14:48:16
##SPECTROMETER/DATA SYSTEM=Nicolet iS5
##DATA PROCESSING=
Ratio against background
%Transmittance->Absorbance
Truncated
ElementMultiply or ElementDivide
##COMMENTS=
Number of sample scans: 32
Collection length: 51.20 sec
Sample gain: 2.0
Background collected on: Jeu Aout 18 14:46:16 2011 (GMT+02:00);
Number of background scans: 32
Background gain: 2.0
Sample spacing:  1.000
Number of scan points: 12415
Resolution points: 8192
Number of FFT points: 65536
Apodization: N-B fort;
Phase correction: Mertz;
Laser frequency: 15798.0 cm-1
Number of rejected sample scans: 0
Number of rejected background scans: 0
Bench serial number: ASB1000141;
##RESOLUTION=4.000
##XUNITS=1/CM
##YUNITS=ABSORBANCE
##FIRSTX=649.893372
##LASTX=4000.122314
##FIRSTY=0.068027
##MAXX=4000.122314
##MINX=649.893372
##MAXY=0.152151
##MINY=-0.002439
##XFACTOR=1.000000
##YFACTOR=1.000000E-009
##NPOINTS=6950
##DELTAX=0.482117
##ZPD=6100
##XYDATA=(X++(Y..Y))
649.893 68027256 67302648 66660204 66105352 65635496 65243872 64922012 
653.268 64663104 64459928 64305900 64197332 64130232 64104812 64123048 
656.643 64187044 64297488 64452044 64643412 64862036 65097652 65342456 
660.018 65593140 65851448 66122524 66411412 66721128 67049356 67390168 
663.393 67734344 68071016 68388968 68677120 68919640 69100328 69204104 
666.767 69227336 69191400 69150752 69178032 69321160 69584184 69929016 
670.142 70301400 70647816 70928224 71123560 71231888 71268504 71255272 
673.517 71214752 71157520 71083952 70986000 70856336 70694480 70508616 
676.892 70310944 70111488 69913096 69709704 69490424 69244592 68968344 
680.267 68665640 68345648 68018072 67690240 67364512 67040420 66716956 
683.642 66394388 66073992 65756412 65440448 65123020 64801752 64478256 
687.016 64159616 63859208 63592336 63371560 63204700 63092156 63032120 
690.391 63023732 63071504 63187108 63388236 63692852 64117328 64673296 
693.766 65366492 66197036 67160064 68245144 69432680 70693664 71990576 
697.141 73275176 74496952 75611344 76583768 77399912 78066144 78607152 
700.516 79058384 79455752 79831536 80204736 80580600 80948776 81286736 
703.890 81561064 81734648 81776848 81669184 81414040 81035176 80575816 
707.265 80087776 79617352 79199760 78852808 78579232 78374400 78232744 
710.640 78151768 78131704 78172160 78268568 78409760 78581024 78768040 
714.015 78960376 79154240 79350128 79549016 79748320 79942008 80122920 
717.390 80288712 80446952 80615824 80819088 81081424 81418168 81832808 
720.765 82317616 82859456 83446576 84072184 84734272 85431952 86159888 
724.139 86906360 87655496 88391640 89106568 89801656 90486224 91169992 
727.514 91856928 92541016 93208768 93845520 94445224 95015528 95578208 
730.889 96163560 96799728 97511184 98315096 99225536 100260960 101445520 
734.264 102806216 104368504 106144504 108129792 110301640 112627256 
737.156 115070280 117595448 120174184 122779184 125383232 127965032 
740.049 130516392 133056384 135630912 138303344 141115328 144040736 
742.942 146933696 149511136 151396784 152150672 151408608 148982944 
745.835 144909744 139456288 133043872 126185344 119347224 112907904 
748.727 107137408 102170336 98044720 94726592 92141056 90193224 88784784 
752.102 87834616 87280344 87091856 87273256 87853928 88870040 90334440 
755.477 92207296 94375216 96656984 98804016 100558944 101702320 102078536 
758.852 101638168 100433584 98609464 96358224 93894704 91427000 89115152 
762.227 87075496 85374672 84030560 83024976 82310848 81827648 81506904 
765.601 81285296 81116088 80966896 80823000 80682808 80551400 80434872 
768.976 80336144 80254592 80186240 80126704 80072672 80023072 79979528 
772.351 79945152 79923680 79919024 79935312 79974352 80036176 80115344 
775.726 80200024 80268064 80287232 80218800 80016376 79632952 79028016 
779.101 78168080 77033504 75620376 73940336 72019680 69897256 67625112 
782.475 65261088 62865660 60499028 58209436 56032716 53991476 52095596 
785.850 50347160 48744020 47281416 45951404 44742200 43639216 42624728 
789.225 41682588 40800904 39972952 39197016 38473544 37802240 37180692 
792.600 36603872 36066156 35563516 35094472 34659524 34259968 33895272 
795.975 33563600 33261836 32986804 32736420 32508604 32298826 32098140 
799.350 31893410 31667714 31405550 31098410 30747242 30363454 29964170 
802.724 29568622 29190800 28837380 28507708 28197378 27902568 27621976 
806.099 27357090 27110566 26883180 26672400 26473276 26280156 26089478 
809.474 25900924 25716322 25537768 25365262 25195490 25024208 24847026 
812.849 24662940 24474374 24286204 24103022 23926706 23755608 23585312 
816.224 23411760 23232718 23050154 22867664 22689860 22518864 22354320 
819.598 22193848 22035524 21879874 21730166 21590854 21465578 21354468 
822.973 21254036 21158498 21062526 20963866 20864288 20768556 20681498 
826.348 20606202 20542452 20487498 20437656 20390392 20345076 20301430 
829.723 20258450 20212626 20158234 20089136 20001278 19894880 19774912 
833.098 19649848 19529084 19419334 19324372 19244876 19180148 19129454 
836.473 19093270 19072116 19065122 19069588 19080528 19092890 19103068 
839.847 19110824 19119376 19133606 19157328 19192060 19236150 19286302 
843.222 19339614 19396224 19458906 19532862 19622946 19731880 19859706 
846.597 20004296 20163024 20334624 20519698 20719934 20936952 21171160 
849.972 21420706 21682690 21953930 22232310 22516386 22805118 23096696 
853.347 23387910 23674738 23953140 24221212 24479002 24728596 24972300 
856.721 25211048 25443214 25664856 25870714 26056334 26220108 26362638 
860.096 26486692 26595424 26691250 26776352 26852690 26924776 26999590 
863.471 27087290 27199944 27348904 27543734 27792060 28099698 28472892 
866.846 28919928 29450564 30076686 30810980 31664648 32649036 33775244 
870.221 35053632 36494444 38103124 39876148 41792968 43810048 45860220 
873.596 47844272 49643592 51132260 52181488 52690536 52596880 51885700 
876.970 50593872 48803296 46633408 44213360 41677992 39151252 36726920 
880.345 34473960 32432944 30618376 29030224 27657922 26488032 25503720 
883.720 24687700 24022156 23487194 23064444 22738006 22495240 22328330 
887.095 22232626 22205808 22245982 22352156 22523190 22759550 23063256 
890.470 23438512 23890646 24426036 25051936 25776230 26609974 27567108 
893.844 28663558 29916922 31340338 32937080 34692540 36567644 38497220 
897.219 40380712 42096012 43510748 44490384 44930556 44771036 44006868 
900.594 42691476 40929188 38863808 36644032 34416208 32303934 30389822 
903.969 28724476 27326602 26191880 25303232 24637060 24169608 23876084 
907.344 23734400 23726072 23836598 24058192 24389550 24834820 25400530 
910.719 26091660 26907502 27837914 28859654 29932114 31002034 32000508 
914.093 32848190 33471040 33802892 33800028 33450532 32775402 31827912 
917.468 30680102 29419574 28130806 26882334 25728766 24703764 23823122 
920.843 23090652 22500370 22039708 21690562 21432542 21244364 21105484 
924.218 21000240 20917864 20851634 20798692 20756460 20722090 20691784 
927.593 20661206 20627118 20587684 20542902 20493890 20441548 20387058 
930.967 20331150 20275774 20224324 20181836 20153444 20143622 20154070 
934.342 20183608 20228732 20285842 20352296 20427724 20513376 20611102 
937.717 20721846 20844576 20976592 21114874 21256578 21400900 21548126 
941.092 21699234 21854542 22013634 22175330 22338134 22501834 22667448 
944.467 22836720 23011790 23193640 23382386 23577266 23777936 23985038 
947.841 24200438 24426562 24665466 24916816 25178182 25444550 25710344 
951.216 25969970 26218910 26454824 26676664 26885048 27081858 27270818 
954.591 27457392 27648776 27853422 28079410 28333168 28618822 28937672 
957.966 29289716 29674792 30094088 30550222 31046838 31587600 32174814 
961.341 32809384 33491012 34219348 34995016 35819856 36697424 37631760 
964.716 38626672 39685292 40810112 42002676 43263524 44591228 45981276 
968.090 47424084 48904224 50400668 51885516 53328328 54697732 55962532 
971.465 57097040 58081020 58900580 59549652 60028760 60345644 60513580 
974.840 60552584 60488364 60348232 60162816 59962720 59775756 59630452 
978.215 59554288 59572568 59711044 59991328 60429260 61034284 61808440 
981.590 62748492 63848844 65105700 66517876 68085736 69806472 71665600 
984.964 73626376 75627832 77574920 79343920 80804880 81822496 82285576 
988.339 82127136 81328568 79929504 78017560 75727384 73214584 70636432 
991.714 68147328 65869996 63893944 62277468 61044624 60195280 59711196 
995.089 59565272 59725452 60159504 60840880 61746788 62859184 64165608 
998.464 65654300 67312432 69124176 71063504 73091888 75158112 77190800 
1001.839 79106096 80815496 82227112 83266088 83882336 84058104 83814184 
1005.213 83207568 82331592 81294808 80217120 79217064 78390432 77814424 
1008.588 77542048 77601472 78004600 78751032 79834152 81244184 82971344 
1011.963 85008096 87347832 89985576 92917832 96138760 99637624 103393584 
1015.338 107363656 111478176 115632496 119675448 123432120 126707312 
1018.231 129308624 131090832 131970776 131954136 131134928 129696768 
1021.123 127889544 125975248 124222928 122858184 122032336 121830952 
1024.016 122263360 123281184 124789480 126670064 128798768 131043288 
1026.909 133281272 135399088 137287376 138856784 140038416 140790928 
1029.802 141107728 141015648 140571728 139848592 138931248 137905888 
1032.695 136845760 135811664 134840944 133941856 133091184 132235784 
1035.588 131303728 130208448 128870192 127229688 125252080 122934520 
1038.481 120300576 117396072 114277936 111009568 107658792 104288248 
1041.374 100955832 97713472 94601088 91652200 88896672 86361264 84076848 
1044.750 82076992 80393240 79055408 78084304 77489216 77268024 77408264 
1048.125 77890888 78691136 79782552 81138168 82728464 84524384 86496832 
1051.500 88616040 90855664 93191936 95601488 98061376 100541944 103000936 
1054.875 105384936 107623088 109631368 111326296 112623568 113453336 
1057.768 113770424 113556352 112828880 111640280 110083208 108279800 
1060.661 106366416 104494720 102802144 101405088 100398920 99845568 99778648 
1064.037 100205656 101108864 102447152 104154848 106151864 108338736 
1066.930 110604464 112843056 114949896 116833648 118425080 119669168 
1069.823 120527792 120978208 121007576 120614872 119808904 118608864 
1072.716 117042016 115141976 112952680 110526424 107927832 105240480 
1075.609 102556816 99979728 97616960 95562928 93901576 92698248 91991880 
1078.984 91796344 92093248 92832320 93922760 95237232 96628840 97927304 
1082.359 98971192 99634120 99832800 99550072 98832640 97788544 96562576 
1085.735 95316496 94219592 93413448 93008088 93073888 93631096 94655352 
1089.110 96077488 97800704 99700192 101636864 103480160 105102784 106395840 
1092.485 107279744 107696536 107618112 107044728 106003600 104544040 
1095.378 102728048 100626696 98307248 95827048 93237312 90578544 87886376 
1098.753 85195920 82539104 79946664 77447464 75064528 72818152 70726184 
1102.129 68803976 67066484 65528556 64202940 63101852 62235864 61613848 
1105.504 61243960 61132912 61285356 61703436 62385592 63326628 64516776 
1108.879 65942036 67584072 69417408 71410880 73523616 75701816 77883312 
1112.254 79993472 81947912 83665632 85068784 86093584 86700192 86870744 
1115.630 86613304 85956408 84948376 83649960 82125464 80443128 78663344 
1119.005 76832440 74985920 73144312 71318488 69515464 67742288 66009836 
1122.380 64334564 62736512 61239192 59868540 58649596 57607420 56765336 
1125.755 56141940 55750644 55598400 55684840 56003048 56540716 57282092 
1129.131 58206520 59289520 60502572 61808440 63163044 64516580 65811268 
1132.506 66992052 68011640 68836000 69454032 69879432 70150816 70322816 
1135.881 70462200 70636624 70898928 71284160 71799696 72425872 73115488 
1139.256 73801488 74410696 74865040 75096392 75054048 74701816 74023040 
1142.632 73016224 71693464 70078232 68203928 66115388 63862584 61499996 
1146.007 59084472 56666336 54291820 52001056 49824348 47786012 45902384 
1149.382 44181480 42624872 41228644 39986104 38889064 37930108 37102664 
1152.757 36400212 35816400 35344604 34977920 34710808 34539248 34461260 
1156.133 34476580 34585568 34789060 35087540 35481568 35972808 36563140 
1159.508 37255632 38052484 38953716 39955548 41048624 42218836 43444792 
1162.883 44699192 45950928 47162104 48291896 49299900 50143796 50786124 
1166.258 51197272 51355700 51252524 50891016 50286180 49461316 48445712 
1169.634 47272884 45975456 44586788 43139888 41664028 40186468 38730916 
1173.009 37315424 35955172 34662072 33445988 32315568 31277948 30337478 
1176.384 29495990 28751984 28102384 27542854 27069798 26680540 26372462 
1179.759 26142788 25987102 25899098 25871770 25897056 25966876 26073892 
1183.135 26210042 26366934 26536214 26709292 26878984 27040880 27193242 
1186.510 27337224 27475182 27609510 27741480 27870522 27995184 28113590 
1189.885 28224638 28328360 28425382 28517014 28605056 28691840 28781862 
1193.260 28882388 29003552 29158268 29361110 29624914 29960728 30375608 
1196.635 30872094 31447512 32093216 32794196 33526160 34255700 34944020 
1200.011 35544676 36012372 36309316 36407492 36296024 35981412 35488112 
1203.386 34852276 34117976 33334564 32547068 31797000 31119020 30537034 
1206.761 30065572 29709810 29466486 29326972 29279190 29310454 29407838 
1210.136 29558266 29749480 29968324 30202446 30441066 30675798 30901728 
1213.512 31117774 31326198 31530984 31736684 31948186 32169320 32402810 
1216.887 32650500 32912310 33186220 33467606 33749816 34024468 34282948 
1220.262 34518620 34726672 34905848 35057116 35183608 35289400 35379036 
1223.637 35457408 35530220 35602968 35681308 35769628 35870200 35982924 
1227.013 36106228 36237816 36376940 36525332 36688340 36874244 37092520 
1230.388 37353336 37665912 38037040 38472240 38973904 39542164 40173752 
1233.763 40861508 41595576 42361932 43144980 43928556 44695224 45428152 
1237.138 46109884 46720660 47239340 47642040 47903208 47999152 47909828 
1240.514 47621076 47127716 46433216 45549272 44494344 43293796 41979352 
1243.889 40584972 39149984 37713392 36309856 34970916 33721060 32577242 
1247.264 31552360 30653966 29885294 29245518 28729574 28328430 28030066 
1250.639 27821700 27691116 27626848 27620138 27662654 27746814 27866000 
1254.015 28013774 28185428 28378726 28593554 28831396 29093462 29378944 
1257.390 29683024 29996300 30302908 30582112 30809772 30958480 31002318 
1260.765 30920052 30697206 30330588 29828650 29212488 28511636 27761224 
1264.140 26998004 26252278 25548276 24902254 24322858 23814302 23377526 
1267.516 23011580 22713320 22477930 22298996 22169576 22083562 22037198 
1270.891 22028588 22057486 22123796 22226348 22362762 22529718 22724284 
1274.266 22945066 23192592 23469042 23777026 24119028 24496914 24911798 
1277.641 25364770 25856612 26387884 26956964 27559482 28187514 28828530 
1281.017 29467620 30089044 30676902 31217416 31699256 32112446 32448870 
1284.392 32701944 32865812 32936760 32913882 32799270 32598208 32318566 
1287.767 31970334 31564332 31113146 30631814 30136808 29647760 29185660 
1291.142 28768410 28410418 28118434 27889564 27711706 27564848 27424214 
1294.518 27261892 27053470 26780756 26434856 26018164 25544482 25037652 
1297.893 24525206 24035498 23593638 23216466 22913630 22687764 22536836 
1301.268 22455738 22437562 22474582 22556730 22672964 22811648 22960226 
1304.643 23107528 23243904 23360216 23447988 23498666 23503668 23456138 
1308.019 23352840 23195808 22992960 22757766 22507314 22258328 22026428 
1311.394 21824786 21663464 21551052 21494960 21500774 21572222 21710206 
1314.769 21912910 22176412 22496810 22871506 23299522 23782068 24320790 
1318.144 24916606 25568834 26274980 27030584 27830494 28668018 29533296 
1321.520 30412138 31284284 32120262 32887540 33549852 34074284 34440024 
1324.895 34640540 34688304 34610792 34449636 34251364 34058764 33909100 
1328.270 33826996 33822700 33894412 34030204 34212928 34424028 34648724 
1331.645 34878632 35112904 35357004 35621600 35919648 36262920 36661156 
1335.021 37119768 37639316 38214620 38834600 39482864 40136680 40768548 
1338.396 41349544 41849116 42240968 42506540 42636532 42631856 42501716 
1341.771 42260940 41926800 41517364 41053032 40554196 40041328 39533924 
1345.146 39045604 38584844 38154092 37752824 37380748 37041856 36745564 
1348.521 36507884 36348872 36289396 36350892 36553188 36912588 37443876 
1351.897 38157892 39061300 40154232 41429764 42872576 44455140 46140540 
1355.272 47879936 49611316 51268144 52778380 54068064 55073596 55740136 
1358.647 56029248 55924240 55430884 54578616 53413376 52001616 50422844 
1362.022 48762184 47113096 45561236 44171244 42981320 41994864 41186164 
1365.398 40507564 39904220 39323740 38722980 38077516 37382480 36652140 
1368.773 35913420 35200820 34549044 33984948 33527732 33186364 32960742 
1372.148 32844118 32826498 32898012 33050298 33277358 33574376 33935004 
1375.523 34349608 34805892 35289112 35785492 36283852 36775168 37253832 
1378.899 37716036 38158000 38575284 38962816 39315248 39629128 39903860 
1382.274 40142748 40352240 40540084 40713920 40878544 41038064 41197092 
1385.649 41363212 41549488 41773740 42053772 42404128 42829388 43323928 
1389.024 43872832 44456720 45053412 45638960 46190804 46685056 47096252 
1392.400 47400656 47575856 47606360 47489212 47238192 46882672 46456076 
1395.775 45987352 45490404 44963812 44398216 43787728 43139524 42481068 
1399.150 41853672 41300532 40854848 40528336 40313228 40188944 40131444 
1402.525 40118180 40130316 40154268 40179164 40196648 40201444 40190652 
1405.901 40164628 40125448 40075556 40016836 39950028 39876548 39800132 
1409.276 39728636 39674796 39653596 39678208 39756888 39889692 40069448 
1412.651 40283964 40521240 40771748 41030016 41294592 41566148 41846048 
1416.026 42135912 42438980 42762216 43118520 43527124 44010500 44584108 
1419.402 45251720 46000652 46807304 47645884 48494908 49340360 50171020 
1422.777 50978608 51755968 52495648 53193480 53848588 54463364 55038808 
1426.152 55571436 56049192 56453392 56760616 56947872 57001596 56919844 
1429.527 56713232 56399512 56000336 55537208 55030116 54500964 53970768 
1432.903 53455608 52963700 52489628 52015924 51517436 50974548 50386712 
1436.278 49784212 49220776 48751804 48408704 48187000 48054772 47968880 
1439.653 47891956 47798216 47677060 47531092 47371092 47209492 47054744 
1443.028 46910908 46778556 46656868 46546136 46446080 46355752 46271888 
1446.404 46191288 46113680 46046736 46006696 46016048 46098464 46270928 
1449.779 46541928 46912864 47380588 47938612 48575940 49276516 50013324 
1453.154 50747728 51433392 52008412 52398592 52524216 52307832 51710916 
1456.529 50768432 49607152 48397408 47277280 46311440 45495368 44794908 
1459.905 44176380 43620204 43119032 42669908 42265252 41891548 41532604 
1463.280 41178184 40832496 40519456 40275092 40137188 40129376 40254300 
1466.655 40498324 40837592 41246860 41698052 42162788 42611568 43009380 
1470.030 43321472 43516132 43570744 43481524 43269928 42982564 42673196 
1473.406 42386556 42145808 41953876 41804788 41694148 41623108 41597324 
1476.781 41620772 41690284 41794644 41916216 42038480 42147124 42234024 
1480.156 42296624 42335924 42354408 42355248 42341844 42317404 42284136 
1483.531 42241916 42186740 42109336 41996396 41833608 41609432 41317876 
1486.906 40959008 40535936 40049684 39496184 38868120 38161400 37385944 
1490.282 36569736 35754480 34980612 34274916 33639672 33055984 32490964 
1493.657 31909172 31281222 30590218 29834788 29027286 28188222 27336766 
1497.032 26484722 25636842 24796790 23971312 23172986 22416416 21715222 
1500.407 21077934 20506464 19999958 19556256 19172738 18845924 18567522 
1503.783 18321926 18083652 17821726 17508618 17135624 16727824 16341943 
1507.158 16039768 15852984 15772404 15763231 15789652 15826352 15862744 
1510.533 15899519 15942482 15996726 16063184 16138522 16217794 16298113 
1513.908 16379308 16463684 16553858 16650869 16754374 16864932 16986198 
1517.284 17125078 17288928 17481886 17701122 17936630 18173854 18400182 
1520.659 18612826 18822738 19050062 19314154 19620798 19958812 20306846 
1524.034 20643240 20955764 21244154 21521386 21807366 22122192 22476640 
1527.409 22870144 23295118 23743324 24211296 24699906 25213190 25753482 
1530.785 26318810 26905104 27508186 28129532 28778288 29470634 30222266 
1534.160 31036910 31905178 32807130 33723460 34637308 35539028 36428356 
1537.535 37307516 38182708 39060320 39944252 40831336 41710088 42568956 
1540.910 43397992 44194136 44962520 45708636 46435540 47139980 47814088 
1544.286 48446080 49025840 49548692 50014808 50424260 50771300 51037184 
1547.661 51190788 51197236 51026080 50669120 50146440 49502572 48782536 
1551.036 48009960 47175476 46243580 45173544 43944944 42578788 41140884 
1554.411 39724100 38404544 37216720 36139536 35106832 34022320 32781870 
1557.787 31312276 29614274 27806332 26093490 24661854 23582126 22815524 
1561.162 22271128 21860152 21516546 21193704 20864150 20516466 20155598 
1564.537 19799534 19472490 19195870 18977228 18808898 18670034 18536296 
1567.912 18385972 18207888 18005592 17795800 17601564 17441216 17323754 
1571.288 17246934 17202290 17178402 17163028 17143448 17104950 17032372 
1574.663 16915158 16753754 16566182 16386224 16252672 16190004 16200596 
1578.038 16269458 16375041 16498443 16628146 16760813 16898864 17046500 
1581.413 17206530 17379136 17562404 17754654 17955484 18166876 18391436 
1584.789 18631018 18885684 19154072 19435378 19730526 20043402 20379660 
1588.164 20745062 21142842 21574102 22038208 22534220 23062312 23623480 
1591.539 24217744 24841694 25488750 26148454 26809268 27461098 28095810 
1594.914 28706920 29288052 29830708 30324938 30760472 31128418 31423822 
1598.290 31644974 31792578 31867452 31869092 31795252 31643872 31414952 
1601.665 31113538 30750622 30343236 29912768 29479784 29062498 28674426 
1605.040 28323512 28015576 27755714 27549136 27401132 27314324 27286696 
1608.415 27311748 27380734 27486900 27627624 27805344 28024836 28289526 
1611.791 28597446 28940682 29306306 29681000 30053002 30412884 30754818 
1615.166 31075738 31376664 31663970 31952430 32262352 32611140 33009146 
1618.541 33454578 33935216 34431992 34924052 35395288 35834968 36243472 
1621.916 36631344 37016848 37418304 37847460 38306640 38788876 39284564 
1625.292 39785248 40286580 40786780 41285848 41784576 42286252 42799000 
1628.667 43335240 43912864 44549228 45254696 46030860 46868420 47752948 
1632.042 48665364 49591812 50527392 51476624 52454408 53481692 54581808 
1635.417 55768276 57042700 58398872 59822716 61303060 62831312 64398356 
1638.792 65992132 67595144 69192376 70768576 72315296 73831104 75314656 
1642.168 76759368 78150024 79457816 80647936 81688184 82554288 83241168 
1645.543 83763704 84159488 84475040 84759168 85056488 85397552 85800752 
1648.918 86271008 86799200 87357600 87894776 88340912 88602552 88591456 
1652.293 88277488 87754560 87234488 86917456 86879928 87053832 87315264 
1655.669 87547256 87676704 87673296 87535344 87279048 86923320 86480008 
1659.044 85947480 85313936 84563752 83684712 82672232 81531408 80276832 
1662.419 78933600 77537408 76130544 74754792 73439408 72191016 70990024 
1665.794 69790752 68529312 67132296 65533148 63689204 61595824 59293924 
1669.170 56861788 54397336 51991384 49710204 47588912 45631820 43819392 
1672.545 42111528 40455516 38796812 37099560 35369912 33671828 32113946 
1675.920 30800806 29792238 29081524 28617406 28333840 28180088 28133032 
1679.295 28193666 28374904 28685398 29118016 29653862 30274736 30979936 
1682.671 31801276 32803596 34063820 35617068 37429392 39410876 41469720 
1686.046 43560528 45686588 47876124 50153656 52519168 54945052 57369776 
1689.421 59719520 61931888 63964308 65804712 67462848 68957072 70303032 
1692.796 71506032 72557856 73442976 74145368 74663136 75019352 75267056 
1696.172 75468184 75654648 75808328 75856272 75691840 75184040 74219856 
1699.547 72765840 70931848 68966320 67129624 65565428 64251348 63068628 
1702.922 61872704 60549076 59030948 57304744 55406152 53406220 51387812 
1706.297 49413940 47517416 45702016 43953856 42249876 40563800 38869424 
1709.673 37145068 35379756 33577168 31757642 29951638 28185922 26480566 
1713.048 24840362 23257782 21723408 20234564 18800178 17440078 16173944 
1716.423 15012111 13949376 12974710 12081192 11275942 10579216 10009179 
1719.798 9569192 9241941 8993273 8782513 8576686 8358156 8131127 7915520 
1723.656 7736547 7608798 7528924 7477278 7428941 7366219 7283424 7186934 
1727.513 7085986 6984860 6877058 6748148 6583448 6377754 6138248 5880031 
1731.371 5614986 5342053 5043478 4692052 4267723 3780734 3279767 2832468 
1735.228 2486891 2249853 2092244 1970272 1845339 1692267 1506231 1300601 
1739.085 1099054 921905 775929 652833 537368 419082 298109 184496 91194 
1743.425 25083 -17129 -48207 -82661 -128673 -184119 -238665 -280521 -304097 
1747.765 -314758 -325684 -352270 -402491 -472102 -546070 -606823 -643416 
1751.622 -656915 -657610 -657974 -664954 -677327 -688476 -691652 -685499 
1755.479 -675144 -670347 -678816 -701047 -728172 -747092 -746927 -725923 
1759.337 -691552 -657874 -638255 -637825 -651423 -665020 -664657 -642953 
1763.194 -604010 -559306 -520985 -495270 -481303 -472069 -460319 -442478 
1767.052 -421227 -403848 -397691 -404775 -421062 -438804 -452342 -462503 
1770.909 -477629 -509038 -563840 -638718 -718811 -786386 -829215 -847602 
1774.767 -852364 -859143 -879579 -917869 -968752 -1022240 -1069078 -1106194 
1778.624 -1138582 -1175758 -1225818 -1289582 -1359315 -1422332 -1468830 
1781.999 -1496469 -1512681 -1529091 -1556924 -1600007 -1652923 -1704082 
1785.375 -1742101 -1761902 -1766885 -1765598 -1766588 -1773617 -1784077 
1788.750 -1791700 -1790908 -1781272 -1768964 -1764047 -1774772 -1802160 
1792.125 -1837960 -1868709 -1883060 -1878145 -1860329 -1840632 -1828391 
1795.500 -1826148 -1829810 -1831559 -1825158 -1809419 -1789687 -1774937 
1798.875 -1773353 -1786288 -1807835 -1827336 -1835815 -1829645 -1813610 
1802.251 -1796220 -1785496 -1783912 -1787608 -1789588 -1783351 -1767974 
1805.626 -1748009 -1731277 -1723785 -1726689 -1735336 -1742497 -1741309 
1809.001 -1731013 -1716327 -1705798 -1706095 -1718208 -1736722 -1753223 
1812.376 -1760978 -1758503 -1750451 -1744577 -1746788 -1757678 -1772264 
1815.752 -1782262 -1781734 -1769822 -1752200 -1737184 -1731838 -1736821 
1819.127 -1746788 -1752728 -1747778 -1731112 -1708208 -1688207 -1678140 
1822.502 -1680351 -1690682 -1701508 -1705732 -1701244 -1692167 -1685830 
1825.877 -1687910 -1699230 -1715237 -1729924 -1738999 -1743289 -1748438 
1829.253 -1761704 -1787014 -1821199 -1855116 -1878244 -1885271 -1877749 
1832.628 -1863727 -1852741 -1851652 -1860692 -1874384 -1884545 -1885469 
1836.003 -1877881 -1868445 -1865872 -1876000 -1898137 -1925023 -1945936 
1839.378 -1953193 -1945507 -1928783 -1913048 -1906879 -1914796 -1935051 
1842.754 -1961604 -1987002 -2007220 -2022193 -2034692 -2046004 -2053787 
1846.129 -2053292 -2040200 -2013915 -1979481 -1945177 -1919745 -1908001 
1849.504 -1908199 -1913345 -1914862 -1907803 -1893057 -1876561 -1865410 
1852.879 -1864189 -1871613 -1882005 -1888471 -1887679 -1881444 -1876132 
1856.255 -1878574 -1891308 -1910673 -1928915 -1937723 -1933368 -1919184 
1859.630 -1903943 -1897345 -1904042 -1921559 -1940823 -1952236 -1949334 
1863.005 -1933401 -1911860 -1894607 -1888108 -1892727 -1903349 -1912322 
1866.380 -1915126 -1912982 -1912289 -1920536 -1941516 -1971302 -2000360 
1869.756 -2017741 -2018796 -2006395 -1990366 -1980372 -1982516 -1995577 
1873.131 -2012793 -2025458 -2028195 -2021962 -2013651 -2011606 -2020511 
1876.506 -2039210 -2060613 -2076046 -2080432 -2074463 -2064471 -2058733 
1879.881 -2061932 -2073177 -2086367 -2094150 -2092237 -2082344 -2070440 
1883.257 -2063581 -2065197 -2072089 -2076475 -2069781 -2048214 -2015135 
1886.632 -1980009 -1953292 -1942802 -1948806 -1965826 -1984330 -1997259 
1890.007 -2002899 -2004746 -2008242 -2016322 -2027668 -2037100 -2039013 
1893.382 -2031163 -2016026 -2000162 -1989739 -1987332 -1989377 -1988519 
1896.758 -1978294 -1956590 -1927991 -1900941 -1884083 -1880784 -1887943 
1900.133 -1896751 -1898203 -1887844 -1867852 -1845417 -1829117 -1823607 
1903.508 -1827699 -1835155 -1838983 -1836145 -1829183 -1825059 -1830668 
1906.883 -1848980 -1876363 -1904636 -1925319 -1933665 -1931488 -1926144 
1910.259 -1925023 -1932115 -1945639 -1959130 -1966387 -1964903 -1958009 
1913.634 -1952797 -1956557 -1972687 -1999106 -2029283 -2056821 -2078948 
1917.009 -2097942 -2118550 -2145290 -2176578 -2206018 -2224512 -2225336 
1920.384 -2208919 -2182249 -2156896 -2142422 -2142916 -2154687 -2168897 
1923.760 -2176513 -2173776 -2163688 -2153863 -2151159 -2157390 -2168567 
1927.135 -2176018 -2173051 -2158380 -2137245 -2119276 -2112879 -2120364 
1930.510 -2136685 -2152082 -2157984 -2150763 -2135135 -2119177 -2111131 
1933.885 -2113505 -2121913 -2127618 -2123397 -2108164 -2087917 -2073276 
1937.260 -2072386 -2087588 -2113571 -2139520 -2155973 -2159830 -2155511 
1940.636 -2152610 -2159402 -2178326 -2203084 -2223490 -2229523 -2218347 
1944.011 -2195007 -2170018 -2151884 -2143378 -2139520 -2132431 -2115220 
1947.386 -2087851 -2057348 -2033076 -2021896 -2023182 -2028756 -2026216 
1950.761 -2007517 -1972885 -1932280 -1899951 -1887646 -1899226 -1928684 
1954.137 -1964804 -1996962 -2022886 -2047884 -2081322 -2129992 -2191645 
1957.512 -2253882 -2301313 -2320462 -2310640 -2281801 -2252498 -2238027 
1960.887 -2243928 -2263046 -2281175 -2285558 -2271451 -2244884 -2220029 
1964.262 -2210139 -2220721 -2247125 -2277582 -2301016 -2311662 -2313969 
1967.638 -2316441 -2327053 -2346464 -2368610 -2383703 -2385053 -2374443 
1971.013 -2361624 -2358526 -2371708 -2398498 -2426341 -2439356 -2426802 
1974.388 -2388349 -2334073 -2279790 -2235390 -2202062 -2170809 -2130189 
1977.763 -2072946 -2003823 -1935117 -1882071 -1853302 -1846340 -1848650 
1981.139 -1845779 -1827897 -1795098 -1757513 -1727053 -1713026 -1716096 
1984.514 -1727977 -1737151 -1735897 -1723983 -1708109 -1696722 -1694412 
1987.889 -1698504 -1700122 -1689593 -1662924 -1624931 -1587693 -1563857 
1991.264 -1560028 -1572012 -1587363 -1592216 -1577987 -1546722 -1509115 
1994.640 -1478836 -1464636 -1466948 -1477449 -1486199 -1487388 -1483458 
1998.015 -1483359 -1497756 -1532228 -1581487 -1633282 -1671803 -1688735 
2001.390 -1685302 -1672991 -1665861 -1674608 -1698405 -1727977 -1748966 
2004.765 -1750748 -1732696 -1704445 -1680219 -1671242 -1679955 -1699825 
2008.141 -1719396 -1729825 -1728901 -1721475 -1714874 -1712861 -1711937 
2011.516 -1704247 -1682893 -1646651 -1604860 -1571319 -1560721 -1578813 
2014.891 -1619550 -1667941 -1705963 -1723257 -1719825 -1705699 -1693356 
2018.266 -1692167 -1701211 -1712201 -1715072 -1705798 -1688372 -1674839 
2021.642 -1677018 -1699858 -1738174 -1778302 -1804700 -1808957 -1792162 
2025.017 -1765499 -1742134 -1730221 -1728736 -1729363 -1722300 -1702432 
2028.392 -1674278 -1647344 -1632622 -1634834 -1648037 -1660349 -1660514 
2031.767 -1643911 -1616777 -1592282 -1583567 -1596508 -1625888 -1658039 
2035.143 -1677843 -1677183 -1657940 -1630146 -1605586 -1591127 -1586274 
2038.518 -1583468 -1574389 -1556528 -1534044 -1516709 -1513441 -1526813 
2041.893 -1549562 -1568975 -1571120 -1547977 -1500959 -1438581 -1372593 
2045.268 -1310889 -1256379 -1206456 -1157319 -1109103 -1065905 -1034603 
2048.644 -1021149 -1025876 -1043660 -1064880 -1080778 -1087752 -1087818 
2052.019 -1085372 -1085802 -1089669 -1093635 -1092412 -1082199 -1064219 
2055.394 -1044420 -1031826 -1032619 -1046668 -1067789 -1086926 -1095618 
2058.769 -1090694 -1075920 -1058468 -1045610 -1038701 -1034470 -1025215 
2062.145 -1004918 -971661 -930268 -888937 -856762 -836854 -826801 -819558 
2066.002 -807553 -786882 -759099 -730157 -706108 -691321 -685598 -685598 
2069.859 -688079 -691387 -697077 -707861 -724732 -745273 -763234 -771602 
2073.717 -765549 -745869 -717521 -688476 -665087 -647916 -632928 -613540 
2077.574 -584323 -544878 -500036 -457737 -425398 -405636 -396036 -390243 
2081.432 -381867 -367996 -350085 -332869 -321082 -316943 -318632 -321943 
2085.289 -322771 -319990 -315685 -314659 -320387 -333432 -350714 -367102 
2089.146 -377928 -381768 -381404 -381867 -386932 -398055 -412025 -424173 
2093.004 -430264 -429502 -424802 -421591 -424008 -433110 -445258 -454592 
2096.861 -455883 -447542 -432117 -415070 -401365 -393454 -389779 -386502 
2100.719 -380212 -370313 -359620 -353131 -354753 -365976 -384482 -405636 
2104.576 -425166 -440823 -453335 -465118 -477761 -490471 -500234 -503411 
2108.434 -497388 -483289 -465085 -448535 -437414 -432912 -432846 -433640 
2112.291 -432448 -429800 -428509 -432349 -443769 -461609 -481899 -499142 
2116.148 -509501 -512546 -511321 -509898 -511619 -516881 -523136 -526710 
2120.006 -525419 -520091 -514631 -514035 -520621 -533693 -548949 -560961 
2123.863 -565925 -564468 -560630 -560895 -570094 -589220 -615029 -642391 
2127.721 -666410 -685532 -701510 -717487 -736210 -757115 -776596 -790355 
2131.578 -796408 -796507 -797267 -806263 -828818 -865525 -911157 -957180 
2135.436 -995629 -1022636 -1039429 -1049477 -1057278 -1063756 -1067425 
2138.811 -1065442 -1056451 -1043098 -1031297 -1026934 -1033842 -1050270 
2142.186 -1070664 -1087818 -1097172 -1098295 -1095717 -1094792 -1098857 
2145.561 -1106359 -1111813 -1109400 -1096544 -1077110 -1059096 -1051725 
2148.937 -1059525 -1080679 -1107120 -1128932 -1139771 -1140697 -1139573 
2152.312 -1146777 -1171430 -1214617 -1272138 -1334343 -1392179 -1441255 
2155.687 -1482501 -1518459 -1550090 -1574125 -1583699 -1572276 -1539756 
2159.062 -1493233 -1446539 -1412127 -1396671 -1396671 -1402715 -1404366 
2162.438 -1395614 -1378043 -1357960 -1341973 -1332856 -1326448 -1313796 
2165.813 -1287368 -1244320 -1190298 -1137194 -1095255 -1071821 -1065541 
2169.188 -1069474 -1074135 -1073672 -1068152 -1062699 -1063756 -1074531 
2172.563 -1091950 -1108309 -1115085 -1106921 -1085637 -1058468 -1035032 
2175.938 -1022108 -1020818 -1027595 -1036751 -1044684 -1052783 -1066070 
2179.314 -1089405 -1125264 -1169810 -1214848 -1251027 -1273030 -1280298 
2182.689 -1277160 -1269727 -1261104 -1250102 -1232558 -1203482 -1161913 
2186.064 -1112077 -1061376 -1018075 -986538 -965677 -950535 -934731 -913637 
2189.922 -887482 -859077 -831960 -807652 -784005 -757710 -725923 -689898 
2193.779 -655029 -628528 -616220 -618536 -629620 -639645 -639182 -623400 
2197.636 -594415 -559538 -528629 -509071 -502882 -507383 -516054 -523864 
2201.494 -527537 -527041 -523268 -516418 -505298 -486962 -459293 -423180 
2205.351 -382364 -342901 -310355 -287276 -273004 -264097 -257640 -252275 
2209.209 -249560 -252772 -264097 -283402 -306944 -329856 -347966 -360613 
2213.066 -371009 -383158 -400571 -422717 -445258 -461808 -467236 -461047 
2216.924 -447377 -433673 -426921 -430793 -444398 -462503 -479052 -489941 
2220.781 -494343 -494773 -493979 -493714 -493979 -492159 -486896 -478225 
2224.638 -468792 -461874 -460683 -464721 -471340 -476040 -475842 -470050 
2228.496 -461146 -453070 -449032 -449661 -452507 -453765 -450554 -443372 
2232.353 -434501 -428774 -428344 -432713 -437910 -438539 -429800 -411329 
2236.211 -385939 -358594 -333498 -312242 -291945 -268236 -236545 -195645 
2240.068 -147885 -98264 -52381 -13087 19483 47914 75552 104152 133683 161724 
2244.890 186021 205877 221922 236442 251162 265816 278249 285444 284681 
2249.229 275398 259583 240851 222949 208131 197059 189468 185059 184827 
2253.569 190496 203822 224740 250565 276558 297314 309250 311339 305437 
2257.909 294959 283189 270888 257859 242244 222784 200076 176242 154200 
2262.248 135671 120591 107069 93017 76844 59247 42314 28463 18986 13154 8515 
2267.552 2617 -5268 -13651 -19416 -18952 -11132 2485 17925 29954 35719 34493 
2272.856 28893 22332 17627 15507 14015 11199 5632 -1822 -7156 -6361 2948 
2278.160 21040 44567 68924 89669 104848 115686 125231 136401 151482 169977 
2282.982 189932 208794 224905 237470 247349 254908 260279 262733 261340 
2287.322 255903 247382 237868 229977 225535 225038 227392 231105 234917 
2291.661 238929 244366 252786 265385 282062 301558 321452 339988 356270 
2296.001 370364 382701 393412 401936 406877 407209 402400 393711 382966 
2300.340 372652 364229 357829 352623 346952 340121 332229 324569 318435 
2304.680 314124 311140 307261 300696 290517 277221 262931 249869 239757 
2309.020 232630 226762 220098 210982 199148 185855 173060 162320 153570 
2313.359 145880 137229 125894 111576 95171 78070 61534 45793 29821 12359 
2318.181 -7521 -29355 -51454 -71331 -86703 -97005 -102869 -106645 -110819 
2322.521 -117808 -129104 -145599 -167129 -193857 -225054 -259626 -295918 
2326.378 -331313 -363229 -390176 -411793 -429337 -445027 -460848 -477497 
2330.235 -494078 -508012 -516583 -518238 -513207 -503345 -491199 -479152 
2334.093 -468196 -458266 -448436 -437910 -426921 -415997 -406430 -398618 
2337.950 -392163 -385773 -378226 -369188 -358892 -348960 -340616 -334723 
2341.808 -330916 -327605 -323334 -316679 -306679 -292475 -272706 -245122 
2345.665 -207336 -157457 -96144 -26241 46091 114460 172430 214894 239625 
2350.005 246653 237404 214761 181148 138787 89371 34427 -23491 -81468 
2354.344 -136126 -184318 -224690 -257375 -284031 -306282 -325618 -342404 
2358.202 -356210 -366804 -374253 -379384 -383721 -388422 -394049 -400439 
2362.059 -406728 -412223 -416394 -419042 -419605 -417387 -411296 -399975 
2365.917 -382695 -360381 -334524 -307474 -281084 -256083 -231677 -206508 
2369.774 -178622 -147487 -113038 -76566 -39295 -1756 36084 74789 115023 
2374.114 157216 201037 245824 291511 338330 387045 438485 492684 548781 
2378.453 605183 660001 711871 760628 807066 852646 898563 944817 990710 
2382.793 1034350 1074207 1109285 1139814 1166425 1190745 1213837 1235834 
2386.650 1257034 1277006 1296181 1315024 1334201 1354010 1373621 1391869 
2390.508 1406695 1416800 1421820 1422618 1420889 1418795 1417365 1416800 
2394.365 1416368 1414739 1411216 1405565 1398551 1391337 1384955 1380102 
2398.222 1376945 1375515 1376014 1378108 1381897 1386717 1391636 1395094 
2402.080 1395825 1393764 1389476 1384789 1381930 1382296 1386518 1393598 
2405.937 1401675 1409287 1415537 1420623 1425510 1431560 1439173 1448249 
2409.795 1457856 1467065 1475244 1482758 1490272 1498684 1508492 1519431 
2413.652 1530870 1542109 1552384 1561827 1570773 1579452 1587965 1595980 
2417.510 1603030 1608983 1614238 1619326 1625013 1631698 1638849 1645601 
2421.367 1650889 1654215 1655745 1656344 1657508 1660069 1664426 1670380 
2425.224 1677598 1685947 1695793 1707535 1721473 1737075 1752744 1766617 
2429.082 1776897 1783085 1785747 1786612 1787777 1790505 1794963 1800353 
2432.939 1805577 1809736 1813362 1817655 1824209 1833759 1846470 1860546 
2436.797 1874023 1885370 1893823 1899714 1904340 1908732 1913458 1918184 
2440.654 1922378 1925739 1928701 1932096 1937687 1945775 1956292 1968308 
2444.511 1980357 1991541 2001727 2011580 2022165 2033983 2046800 2059384 
2448.369 2070470 2078993 2085152 2090046 2095174 2102066 2111222 2122276 
2452.226 2134030 2145784 2156806 2167362 2177818 2188108 2198198 2207157 
2456.084 2214450 2219879 2224075 2228338 2233833 2241327 2250353 2259545 
2459.941 2267572 2273568 2277365 2280263 2283427 2287757 2293187 2299016 
2463.799 2303946 2307576 2310241 2313273 2318636 2327563 2340522 2356712 
2467.656 2374603 2392527 2409052 2423713 2436408 2447170 2455767 2462032 
2471.513 2465697 2467030 2466897 2466930 2468197 2471462 2476827 2483392 
2475.371 2490590 2498122 2506286 2516151 2528349 2543046 2559211 2575743 
2479.228 2591309 2605575 2618975 2632843 2648244 2665613 2683682 2700486 
2483.086 2714056 2723325 2728793 2732928 2738563 2748532 2764138 2784913 
2486.943 2809657 2836070 2861985 2886433 2908682 2928429 2945776 2960354 
2490.801 2972464 2982873 2992815 3003959 3018005 3035389 3055776 3077733 
2494.658 3099190 3118780 3135900 3150986 3164870 3178221 3191205 3203121 
2498.515 3213135 3220178 3224351 3226387 3227522 3228991 3231861 3236635 
2502.373 3243646 3252926 3264877 3279533 3296994 3316626 3337260 3357194 
2506.230 3375025 3390052 3402642 3413929 3425351 3437941 3452069 3466965 
2510.088 3481861 3495622 3507547 3517735 3526620 3534671 3542655 3550906 
2513.945 3559959 3570415 3582776 3597042 3613313 3630553 3647594 3663231 
2517.802 3677099 3689730 3702964 3718302 3737619 3761114 3787786 3815797 
2521.660 3843040 3867811 3889675 3908966 3926385 3942802 3958618 3973498 
2525.517 3987141 3999547 4011084 4022522 4034795 4048206 4063055 4079243 
2529.375 4096703 4115602 4136642 4160125 4186052 4213820 4241959 4269028 
2533.232 4293957 4316278 4337060 4357543 4378996 4401890 4425823 4450092 
2537.090 4473291 4495018 4515608 4535462 4555418 4575977 4596738 4616965 
2540.947 4635819 4652966 4668405 4682740 4696205 4708933 4720489 4730505 
2544.804 4738678 4745779 4753082 4761825 4773282 4787219 4802663 4817371 
2548.662 4829466 4837574 4841561 4842164 4841058 4839517 4838914 4840120 
2552.519 4843337 4849100 4857611 4868936 4882707 4897888 4912934 4926237 
2556.377 4936459 4943363 4947887 4950903 4953786 4957338 4961561 4965984 
2560.234 4969739 4972386 4974129 4975402 4976643 4978117 4979458 4979994 
2564.092 4979022 4976006 4970811 4963806 4955193 4945239 4934381 4922920 
2567.949 4911459 4901037 4892928 4887901 4886025 4886829 4888873 4890616 
2571.806 4891219 4890247 4888002 4885121 4881837 4878117 4873024 4865619 
2575.664 4855232 4841963 4826685 4810536 4795024 4780552 4767520 4755896 
2579.521 4745377 4736266 4728662 4722867 4718446 4714795 4710909 4705818 
2583.379 4699555 4692956 4687764 4685554 4687564 4693760 4703172 4714024 
2587.236 4724877 4734725 4743803 4752915 4762596 4773718 4786046 4799078 
2591.094 4812278 4825680 4839517 4854562 4871214 4889510 4909013 4928684 
2594.951 4947585 4965013 4980832 4995345 5008652 5021322 5033523 5045557 
2598.808 5057759 5070900 5085382 5101776 5119913 5139225 5158907 5178120 
2602.666 5196563 5214637 5233082 5252499 5273024 5294054 5314614 5333499 
2606.523 5350204 5364897 5378617 5392506 5407469 5423874 5441388 5459440 
2610.381 5477592 5495645 5513967 5532961 5552727 5572965 5592733 5611194 
2614.238 5627574 5641873 5654763 5667183 5679974 5693603 5708106 5723147 
2618.095 5738524 5754103 5770287 5787210 5805175 5823913 5843122 5862164 
2621.953 5881005 5899578 5918388 5938038 5958562 5980162 6002233 6024238 
2625.810 6046446 6068588 6091336 6114489 6138012 6161167 6183113 6203414 
2629.668 6222035 6239883 6257900 6277263 6298442 6320765 6343391 6365078 
2633.525 6384916 6403208 6420627 6437878 6455904 6474838 6493773 6512171 
2637.383 6529459 6545840 6562121 6579310 6598755 6620521 6644307 6669037 
2641.240 6693499 6716751 6738187 6757739 6775609 6791933 6806809 6820575 
2645.097 6833466 6846257 6860025 6875206 6892510 6911867 6932672 6954254 
2648.955 6975869 6997285 7018633 7040118 7062311 7084942 7107844 7130613 
2652.812 7152440 7173190 7192493 7210819 7228068 7244239 7259232 7273181 
2656.670 7286255 7298890 7311695 7325140 7339630 7354761 7369960 7384519 
2660.527 7398102 7410505 7422335 7434165 7446536 7459480 7472592 7485402 
2664.385 7497099 7507584 7516518 7524170 7530609 7535599 7538869 7540016 
2668.242 7538768 7535397 7530441 7524777 7519484 7514697 7510550 7506471 
2672.099 7502021 7496493 7489582 7481390 7472323 7462884 7453547 7444985 
2675.957 7437469 7431334 7426515 7422840 7419672 7416403 7412324 7407033 
2679.814 7400326 7392473 7383947 7375352 7367298 7359782 7352672 7346134 
2683.672 7340001 7334239 7329251 7324971 7321366 7318030 7314626 7310954 
2687.529 7307247 7303675 7300878 7299092 7298554 7298722 7299429 7300002 
2691.386 7300305 7300609 7300979 7301755 7302968 7304349 7305697 7306708 
2695.244 7307618 7308999 7311526 7315671 7321298 7328072 7334946 7341416 
2699.101 7347246 7352874 7359277 7367500 7378386 7392001 7407673 7424357 
2702.959 7441210 7457693 7473637 7489649 7506269 7523800 7542477 7562605 
2706.816 7583745 7606101 7629570 7654457 7680829 7708553 7737424 7766871 
2710.674 7796725 7826783 7856742 7886602 7916194 7945181 7973360 8000427 
2714.531 8026684 8052438 8078363 8105233 8133287 8163064 8194701 8228299 
2718.388 8264196 8302561 8343868 8387949 8434162 8481699 8529443 8576551 
2722.246 8622515 8667503 8712293 8757290 8802935 8848989 8894542 8938611 
2726.103 8980352 9019625 9056501 9091857 9126742 9161799 9197875 9234969 
2729.961 9273183 9312517 9352499 9392856 9432980 9472058 9509277 9544196 
2733.818 9576103 9605370 9632200 9657168 9680748 9703246 9724931 9745906 
2737.676 9766171 9785961 9805414 9824664 9843407 9861473 9878285 9893403 
2741.533 9906963 9919573 9932285 9945948 9961712 9979748 9999787 10020504 
2745.390 10040781 10059431 10075199 10088018 10098057 10105823 10112233 
2748.766 10117930 10123527 10129462 10135702 10141808 10147607 10152627 
2752.141 10156934 10160801 10164634 10169247 10174878 10181695 10188920 
2755.516 10195807 10200894 10203472 10202964 10199877 10194755 10188784 
2758.891 10183256 10179253 10177388 10178167 10181390 10187021 10194382 
2762.267 10202590 10210868 10218296 10224403 10229017 10232850 10236649 
2765.642 10241365 10247776 10255987 10265791 10276818 10288252 10299583 
2769.017 10310950 10322317 10334193 10346917 10360491 10375456 10391711 
2772.392 10409324 10428364 10448694 10469398 10489901 10509181 10526460 
2775.768 10541838 10555689 10569269 10583902 10600640 10619925 10641283 
2779.143 10663729 10686141 10707366 10727337 10745948 10763882 10781714 
2782.518 10800159 10819418 10839937 10861815 10885325 10911181 10939587 
2785.893 10970713 11004628 11040517 11077531 11114853 11151363 11186414 
2789.269 11219530 11250846 11280227 11307976 11334775 11361134 11387461 
2792.644 11414196 11441479 11469170 11497068 11525002 11552836 11580534 
2796.019 11608304 11636380 11664459 11692472 11719465 11744860 11767975 
2799.394 11788777 11807025 11823505 11838793 11853605 11868860 11884967 
2802.770 11902743 11922563 11944462 11968405 11994054 12020793 12048044 
2806.145 12075605 12103712 12132639 12162829 12194247 12226247 12257772 
2809.520 12287357 12313978 12337396 12358259 12378168 12399135 12423138 
2812.895 12451063 12483151 12518718 12556711 12596071 12635981 12675961 
2816.271 12716152 12756379 12796611 12836948 12877665 12919067 12961840 
2819.646 13006700 13053920 13103672 13155309 13207839 13260273 13311860 
2823.021 13361984 13410849 13459035 13507125 13555836 13605577 13656829 
2826.396 13709591 13763865 13819239 13875202 13930934 13985920 14039543 
2829.771 14092078 14144175 14196928 14251364 14308240 14367726 14429104 
2833.147 14491449 14553941 14616167 14678642 14742121 14808008 14876683 
2836.522 14948798 15023738 15100749 15178871 15258038 15338558 15421838 
2839.897 15509359 15603251 15705477 15817624 15941177 16077761 16228801 
2843.272 16395995 16581327 16787022 17015624 17269758 17551054 17860322 
2846.648 18195622 18552860 18923546 19296106 19656228 19987122 20272406 
2850.023 20497710 20651510 20727684 20724834 20647270 20503060 20303964 
2853.398 20064464 19798702 19521320 19245638 18982350 18739910 18523814 
2856.773 18337064 18180072 18051288 17948092 17866536 17803154 17754066 
2860.149 17716930 17690422 17674030 17668440 17674444 17692666 17723452 
2863.524 17766252 17819998 17883662 17956416 18037748 18127698 18226614 
2866.899 18334852 18452798 18580110 18716212 18859834 19009490 19162868 
2870.274 19317236 19469302 19615286 19751160 19873928 19981188 20071960 
2873.650 20147164 20209468 20262058 20309206 20355144 20402718 20454326 
2877.025 20511152 20573510 20641086 20713540 20790350 20871866 20958302 
2880.400 21050632 21149278 21254522 21366338 21483368 21603876 21725674 
2883.775 21845586 21960864 22068154 22164834 22248318 22317482 22371936 
2887.151 22412684 22442410 22464708 22483968 22504626 22531288 22567584 
2890.526 22617706 22685880 22777008 22897630 23055778 23260474 23522170 
2893.901 23851756 24259084 24753538 25340954 26022174 26790024 27628118 
2897.276 28507778 29387380 30218360 30945990 31516268 31886958 32029364 
2900.652 31935204 31616110 31102290 30437334 29668264 28845136 28012254 
2904.027 27204108 26448272 25762658 25157536 24637586 24203660 23853050 
2907.402 23581918 23385148 23257712 23194234 23190494 23242332 23346372 
2910.777 23499296 23697412 23936264 24210456 24513566 24837556 25174282 
2914.153 25514612 25848736 26167878 26463134 26726944 26953510 27138958 
2917.528 27282038 27383982 27447828 27478112 27479382 27455980 27410344 
2920.903 27343434 27254590 27142944 27007840 26850610 26674444 26485356 
2924.278 26290998 26099648 25919918 25759072 25622538 25513978 25435206 
2927.654 25386198 25365614 25370812 25398002 25442548 25498730 25560962 
2931.029 25622466 25677230 25719028 25741774 25740298 25709956 25647034 
2934.404 25549294 25416058 25248374 25048602 24820784 24569910 24301202 
2937.779 24020580 23734014 23446976 23165296 22894558 22639348 22404484 
2941.155 22193148 22007814 21849316 21716998 21608822 21521350 21449876 
2944.530 21389030 21333134 21276724 21214754 21143572 21061204 20967760 
2947.905 20865470 20758094 20650606 20548010 20453494 20369276 20294798 
2951.280 20227760 20164656 20101872 20036876 19968040 19895712 19820690 
2954.656 19744500 19667772 19590848 19513070 19433784 19352260 19268014 
2958.031 19181394 19092370 19001320 18907798 18811458 18711820 18608746 
2961.406 18502548 18394374 18285534 18177586 18071632 17968676 17869022 
2964.781 17773086 17681348 17594354 17512654 17437078 17367860 17305444 
2968.156 17250106 17202496 17163302 17134384 17117770 17115496 17129454 
2971.532 17160750 17209252 17273964 17352616 17441734 17536598 17631584 
2974.907 17720172 17794936 17848582 17874754 17868436 17827248 17751894 
2978.282 17646180 17516346 17370584 17218250 17067798 16926560 16800764 
2981.657 16693596 16606629 16539091 16489081 16453153 16427033 16406594 
2985.033 16387427 16365854 16339052 16305406 16264437 16217209 16165862 
2988.408 16112937 16061360 16013641 15971700 15936090 15906805 15882781 
2991.783 15862813 15845630 15830167 15816284 15804498 15795562 15790891 
2995.158 15791371 15797522 15809273 15825734 15845597 15867522 15890308 
2998.534 15913336 15936468 15960151 15984831 16010821 16038153 16066106 
3001.909 16094128 16121637 16148390 16174562 16200941 16228318 16257556 
3005.284 16288962 16322574 16358010 16394963 16433055 16472252 16512554 
3008.659 16554201 16596921 16640402 16683955 16726894 16768666 16808790 
3012.035 16847296 16884462 16920428 16955570 16990402 17025480 17061146 
3015.410 17098506 17138278 17181056 17227282 17276654 17328340 17381344 
3018.785 17434490 17487404 17540254 17593732 17649114 17707472 17769634 
3022.160 17835396 17903930 17973580 18042584 18109526 18173092 18233354 
3025.536 18290580 18345776 18399664 18452900 18505246 18556180 18604560 
3028.911 18649558 18690302 18726938 18760114 18791252 18822012 18853466 
3032.286 18886514 18920880 18955768 18989724 19021536 19050582 19076858 
3035.661 19101026 19124466 19148634 19174918 19204182 19236912 19273280 
3039.037 19312768 19355030 19399170 19444492 19490164 19535460 19580346 
3042.412 19624818 19669472 19715028 19762324 19811464 19862414 19914616 
3045.787 19967416 20020222 20073174 20126374 20180796 20237100 20295526 
3049.162 20355596 20416646 20477390 20536962 20595084 20652066 20708502 
3052.538 20765532 20823510 20882888 20943420 21005038 21067780 21131956 
3055.913 21198088 21266736 21338006 21411378 21485734 21559688 21631456 
3059.288 21700348 21765454 21826736 21884404 21938698 21990140 22038836 
3062.663 22085480 22130874 22175818 22221396 22268268 22316192 22364924 
3066.039 22413278 22460380 22505812 22549680 22593062 22637392 22684100 
3069.414 22733920 22787238 22843358 22901752 22961380 23021782 23083208 
3072.789 23146214 23211606 23280154 23352420 23428476 23507936 23590244 
3076.164 23674212 23759072 23844194 23928352 24011476 24093180 24173428 
3079.540 24252744 24331654 24411036 24491832 24574782 24660520 24749328 
3082.915 24841098 24935136 25030666 25126710 25222178 25316754 25410050 
3086.290 25502242 25593716 25684612 25775176 25865300 25954456 26042332 
3089.665 26128852 26213984 26298142 26382074 26465950 26549948 26633752 
3093.041 26716796 26798448 26878598 26957774 27037072 27118254 27203050 
3096.416 27292834 27388568 27490394 27597788 27709694 27824596 27941578 
3099.791 28059544 28177754 28295788 28413816 28531804 28650180 28769614 
3103.166 28890852 29014426 29141366 29272100 29406704 29544752 29685046 
3106.542 29825526 29964348 30098738 30226742 30346896 30458444 30561528 
3109.917 30656490 30744220 30825456 30900484 30969260 31031678 31087092 
3113.292 31134896 31174696 31206022 31228988 31243658 31250958 31251490 
3116.667 31246648 31237498 31225070 31209300 31190182 31166898 31138350 
3120.042 31103748 31062996 31016056 30964100 30908416 30850714 30792840 
3123.418 30736182 30682272 30632064 30586342 30545672 30510482 30480518 
3126.793 30455532 30435274 30419280 30407198 30399452 30395756 30396574 
3130.168 30401726 30411036 30423758 30439430 30457414 30477246 30499142 
3133.543 30523598 30551396 30583176 30619584 30661184 30708194 30760652 
3136.919 30818202 30880312 30945600 31012602 31079404 31144364 31206096 
3140.294 31264450 31319790 31373742 31427920 31484206 31543702 31607058 
3143.669 31673950 31743564 31815004 31887312 31960134 32033324 32107130 
3147.044 32181882 32257534 32334380 32412056 32490396 32569066 32648072 
3150.420 32727096 32806310 32885394 32964318 33042218 33118702 33192944 
3153.795 33264372 33332810 33398646 33462308 33524654 33586332 33647408 
3157.170 33708204 33768368 33828000 33887352 33946896 34007524 34070412 
3160.545 34135892 34204004 34274128 34344984 34415492 34484504 34551484 
3163.921 34616464 34679836 34741784 34802700 34862512 34921072 34978244 
3167.296 35033948 35088692 35143116 35198088 35254432 35312688 35373288 
3170.671 35436124 35501236 35568012 35636092 35704832 35773548 35841268 
3174.046 35907124 35970436 36030372 36086680 36139608 36189556 36237924 
3177.422 36286152 36335828 36388036 36443164 36500608 36558884 36616164 
3180.797 36670096 36719420 36763448 36802972 36839580 36875000 36911108 
3184.172 36948880 36988132 37028216 37067764 37105948 37142000 37176256 
3187.547 37209032 37241124 37273216 37305568 37338100 37370564 37402236 
3190.923 37432752 37461716 37489132 37515212 37540572 37566076 37592704 
3194.298 37620924 37650952 37682244 37713868 37744296 37772560 37797972 
3197.673 37820416 37840588 37859424 37877576 37895472 37913112 37930036 
3201.048 37946200 37961856 37977372 37993644 38011400 38031036 38052628 
3204.424 38075344 38098636 38121752 38144216 38165708 38186072 38204888 
3207.799 38221892 38236984 38250404 38263108 38276208 38291080 38308160 
3211.174 38327232 38346812 38364472 38377976 38385940 38388180 38386552 
3214.549 38383984 38383512 38387820 38398244 38414536 38435168 38458156 
3217.925 38481364 38503520 38523832 38542152 38558736 38574124 38588648 
3221.300 38602844 38616860 38631416 38646628 38662924 38680096 38698060 
3224.675 38716532 38735188 38754280 38773628 38793444 38814240 38835728 
3228.050 38857720 38880220 38902872 38925776 38949368 38974052 39000404 
3231.426 39029040 39060032 39092952 39127356 39162060 39196252 39229180 
3234.801 39260624 39291056 39321452 39352616 39385844 39421220 39458736 
3238.176 39497344 39535884 39572976 39607932 39640892 39672836 39704496 
3241.551 39737316 39771664 39807504 39844332 39881412 39918388 39955588 
3244.927 39993660 40033552 40075520 40119488 40164664 40209660 40253496 
3248.302 40295776 40336932 40377876 40419588 40462572 40506472 40550196 
3251.677 40592176 40631324 40666908 40699436 40729860 40759852 40790348 
3255.052 40822088 40854628 40887392 40918888 40948084 40973936 40995928 
3258.427 41013848 41027760 41038428 41046768 41053944 41061480 41070332 
3261.803 41081404 41094152 41108064 41121724 41133888 41143324 41149516 
3265.178 41152428 41152576 41150536 41146784 41141756 41135892 41129116 
3268.553 41121688 41113784 41104932 41094844 41082276 41066252 41045564 
3271.928 41019416 40987776 40951288 40910948 40867880 40822960 40776736 
3275.304 40729352 40680808 40631212 40581080 40531024 40482176 40435044 
3278.679 40390204 40347404 40306032 40265168 40224020 40181676 40138060 
3282.054 40092852 40046488 39999872 39954024 39910036 39868848 39831040 
3285.429 39796176 39763496 39731292 39698176 39663288 39626700 39589780 
3288.805 39554648 39523220 39496840 39475752 39458592 39442988 39426696 
3292.180 39407868 39385920 39361572 39336072 39310968 39287284 39265160 
3295.555 39244160 39223196 39201944 39180296 39158976 39139396 39122752 
3298.930 39110388 39102776 39100564 39103792 39112600 39127176 39147696 
3302.306 39174100 39205680 39241296 39279232 39317392 39353664 39386096 
3305.681 39413420 39434532 39449268 39458228 39462364 39463384 39463560 
3309.056 39465376 39470600 39480868 39496840 39518684 39545724 39577080 
3312.431 39611704 39648300 39685980 39723664 39760916 39797448 39833324 
3315.807 39869428 39906440 39945488 39987160 40031552 40077588 40124032 
3319.182 40169280 40211912 40251172 40286980 40319844 40351116 40381512 
3322.557 40412056 40443512 40475884 40508728 40541428 40572532 40600180 
3325.932 40622448 40637760 40645112 40644820 40638200 40627792 40615640 
3329.308 40603744 40592976 40582644 40571512 40558088 40541248 40520840 
3332.683 40497344 40472028 40445404 40418424 40390640 40361328 40329480 
3336.058 40294360 40255208 40211588 40163100 40109496 40050300 39985156 
3339.433 39913740 39835908 39751912 39661836 39566120 39464940 39358564 
3342.809 39247568 39132504 39014392 38893920 38772248 38649740 38527052 
3346.184 38404436 38282648 38162124 38043620 37927468 37813444 37700676 
3349.559 37587356 37471976 37353520 37232496 37110204 36989212 36872040 
3352.934 36760204 36654592 36554344 36458044 36364508 36273076 36184116 
3356.310 36099064 36018884 35944372 35875200 35810176 35747644 35685912 
3359.685 35624084 35562152 35501060 35441664 35385152 35332060 35282712 
3363.060 35237468 35196612 35160504 35129500 35103704 35082800 35065736 
3366.435 35051044 35037000 35022132 35005288 34985928 34963988 34939888 
3369.811 34913856 34886532 34858096 34828584 34797816 34765512 34731196 
3373.186 34694048 34653496 34609104 34560276 34506996 34448704 34384968 
3376.561 34314968 34237664 34151844 34056508 33950732 33833980 33705840 
3379.936 33566108 33414212 33250100 33073646 32885112 32685262 32475396 
3383.312 32256856 32031502 31800814 31566114 31328406 31088802 30848544 
3386.687 30609024 30371804 30138194 29908758 29683236 29460350 29237438 
3390.062 29011876 28781120 28543340 28298616 28048304 27795240 27542818 
3393.437 27294670 27053400 26820722 26596868 26380982 26171784 25967508 
3396.813 25766490 25567394 25368810 25169754 24969036 24765814 24559320 
3400.188 24349246 24135596 23918830 23699722 23479430 23258832 23039216 
3403.563 22821530 22606360 22394402 22185930 21980766 21778762 21578768 
3406.938 21379946 21181354 20981946 20781660 20580908 20380564 20181664 
3410.313 19985630 19793084 19604610 19419958 19238434 19059166 18881670 
3413.689 18705178 18530176 18357112 18187192 18021412 17860840 17705608 
3417.064 17555538 17409140 17265172 17121836 16977896 16832794 16687021 
3420.439 16542155 16400158 16263060 16132573 16009275 15892508 15781166 
3423.814 15673082 15565884 15458334 15349096 15238477 15127028 15015814 
3427.190 14905727 14797757 14691529 14586458 14481823 14376425 14269546 
3430.565 14161187 14051795 13942464 13834393 13728981 13627117 13529309 
3433.940 13435112 13343943 13254842 13166716 13078573 12989868 12900499 
3437.315 12810807 12721099 12632092 12544057 12457473 12372237 12288447 
3440.691 12206413 12126540 12049067 11974638 11903492 11834911 11768010 
3444.066 11700981 11632160 11560118 11484480 11406032 11326579 11248331 
3447.441 11173529 11103126 11036540 10972276 10907851 10840923 10770165 
3450.816 10695481 10618126 10540038 10463458 10389607 10318924 10250965 
3454.192 10184782 10119592 10054683 9990022 9925811 9861744 9797552 9732556 
3458.049 9665773 9596833 9526245 9454686 9384222 9316207 9252264 9192427 
3461.906 9136454 9083432 9031871 8980825 8930223 8879763 8830154 8781565 
3465.764 8734571 8688933 8644653 8601391 8558843 8516772 8475077 8433554 
3469.621 8392002 8350184 8308099 8265479 8221985 8177481 8131667 8084540 
3473.479 8036507 7988175 7941098 7896151 7854988 7818046 7785222 7755268 
3477.336 7726968 7698300 7667845 7635471 7600975 7565032 7528890 7493155 
3481.194 7458839 7426177 7395641 7367365 7342023 7319344 7299294 7281268 
3485.051 7264151 7247002 7228809 7209236 7188315 7166824 7145704 7126302 
3488.908 7109630 7096932 7088950 7085919 7087603 7092823 7100065 7107373 
3492.766 7112964 7116164 7117477 7118623 7122092 7130378 7145063 7166318 
3496.623 7193167 7224126 7257413 7292185 7328577 7367197 7408583 7452671 
3500.481 7498751 7545376 7591366 7636280 7680593 7726496 7776485 7832991 
3504.338 7897467 7970626 8051966 8140241 8234006 8331945 8432001 8533127 
3508.196 8633634 8732914 8830763 8928262 9027474 9130600 9238963 9353379 
3512.053 9473108 9596495 9721644 9847034 9971951 10096191 10219688 10342235 
3515.910 10462542 10579047 10689775 10793534 10889572 10978393 11060162 
3519.286 11135113 11202394 11260265 11306888 11340455 11360114 11366032 
3522.661 11358923 11340081 11310085 11268971 11216402 11151363 11073078 
3526.036 10981180 10875506 10756511 10625120 10482535 10330460 10171146 
3529.411 10006669 9839306 9670584 9501521 9332152 9162070 8990499 8816764 
3533.269 8640361 8461190 8279325 8095106 7909142 7722448 7536476 7353481 
3537.126 7175616 7005433 6844372 6692691 6549372 6412456 6279515 6148161 
3540.984 6017049 5885640 5754707 5625157 5498061 5373652 5251728 5131245 
3544.841 5011501 4891621 4772512 4655042 4541188 4432518 4330133 4233795 
3548.698 4142997 4055597 3970120 3884594 3798281 3711285 3624506 3539682 
3552.556 3458615 3382939 3313654 3250489 3192640 3138604 3087077 3036490 
3556.413 2985642 2933800 2880763 2826098 2770007 2712622 2654511 2596208 
3560.271 2539113 2484392 2433475 2387363 2346718 2311041 2279430 2249820 
3564.128 2219412 2185411 2145118 2096705 2040108 1977095 1911828 1848799 
3567.986 1792767 1746257 1709498 1680359 1655379 1630834 1603629 1572003 
3571.843 1535957 1496855 1456360 1416800 1379371 1344571 1312365 1282024 
3575.700 1252614 1223705 1195363 1167355 1139914 1112872 1086331 1059858 
3579.558 1033287 1006651 980282 954314 929110 905104 882227 860381 839333 
3583.897 818253 796012 771681 743833 711705 675564 636805 597585 560956 
3588.237 529473 504825 487045 474937 467076 461703 457391 453510 449629 
3592.577 445218 439181 431022 419149 403229 383231 360283 335247 310046 
3596.916 285576 262235 240056 218573 197192 175977 155426 136169 119298 
3601.256 105909 96729 92122 92188 96397 104219 114029 123872 131230 133451 
3606.078 128479 115089 93812 66803 37443 9012 -15638 -35418 -50791 -63712 
3610.899 -76035 -89386 -104558 -120856 -137120 -151760 -163088 -170706 
3614.757 -174448 -175177 -174746 -175574 -180178 -191406 -211111 -239625 
3618.614 -274859 -312937 -348297 -375974 -392924 -399081 -397360 -391335 
3622.472 -384846 -379947 -376570 -372862 -365712 -352932 -334226 -312176 
3626.329 -291779 -279826 -282806 -304163 -342437 -390176 -436950 -472366 
3630.187 -492126 -497024 -492589 -485208 -479615 -478622 -482759 -490570 
3634.044 -499671 -508475 -515921 -522474 -529258 -537101 -546467 -556692 
3637.901 -566686 -575322 -581742 -585878 -588260 -589650 -590378 -590378 
3641.759 -589121 -585911 -580451 -573006 -564468 -556196 -549974 -547195 
3645.616 -549279 -556857 -570524 -590014 -614863 -644343 -676864 -709846 
3649.474 -740080 -763531 -776365 -775902 -762076 -736805 -703825 -668031 
3653.331 -634814 -608709 -592992 -589551 -597294 -613176 -631638 -647817 
3657.188 -658040 -661183 -658668 -653176 -647751 -644608 -644971 -649041 
3661.046 -656022 -664855 -673953 -682124 -688178 -690825 -689402 -683580 
3664.903 -673490 -659992 -644641 -629289 -616319 -607882 -606128 -612746 
3668.761 -627602 -649008 -673126 -693802 -705943 -706174 -695258 -676798 
3672.618 -657874 -645832 -647552 -667667 -706009 -756354 -806792 -844857 
3676.476 -862913 -861094 -845122 -822998 -801732 -785196 -774116 -767104 
3680.333 -761415 -754899 -746927 -737798 -728734 -720465 -712922 -704983 
3684.190 -695456 -684241 -672398 -662837 -658602 -662837 -676963 -700054 
3688.048 -728040 -755825 -779209 -795316 -804411 -808545 -809835 -809571 
3691.905 -807520 -803121 -795581 -785129 -772627 -759662 -747357 -736706 
3695.763 -727676 -719141 -709879 -698863 -685862 -671075 -656485 -644343 
3699.620 -636899 -636634 -644707 -661282 -684672 -711632 -737798 -759662 
3703.478 -773653 -778845 -775174 -764160 -748349 -730355 -712526 -696515 
3707.335 -683613 -674416 -669156 -668229 -671439 -679014 -690362 -704454 
3711.192 -719803 -734225 -745802 -753212 -755461 -752484 -745075 -734325 
3715.050 -721722 -708754 -697309 -688807 -684341 -684043 -687550 -693306 
3718.907 -699690 -705082 -708225 -708655 -706207 -701311 -695059 -688476 
3722.765 -683150 -680735 -682753 -690295 -703329 -720233 -737963 -752252 
3726.622 -758868 -754435 -738095 -711335 -677956 -642225 -608709 -581047 
3730.479 -561358 -550206 -547029 -549842 -556692 -566487 -578896 -594911 
3734.337 -615955 -642325 -673192 -705281 -734556 -756089 -767401 -767269 
3738.194 -756453 -736243 -708324 -674515 -637097 -598485 -562748 -534851 
3742.052 -520919 -527140 -557685 -611621 -679974 -746795 -793596 -809008 
3745.909 -792306 -752021 -699657 -646659 -603448 -576348 -569002 -580749 
3749.767 -607584 -642391 -677956 -707828 -728172 -736772 -733365 -719505 
3753.624 -697838 -671902 -645567 -622208 -603812 -591040 -583661 -580120 
3757.481 -579458 -580815 -584223 -590014 -597823 -606293 -612812 -614499 
3761.339 -609867 -599047 -584819 -570789 -560994 -557552 -560795 -567943 
3765.196 -575256 -578797 -576613 -569631 -560994 -555203 -555104 -562284 
3769.054 -575421 -591437 -605764 -614962 -617411 -612944 -603746 -591503 
3772.911 -578466 -566057 -555170 -546301 -539385 -533891 -529523 -525982 
3776.769 -523103 -521448 -521746 -524691 -530450 -538557 -547459 -555037 
3780.626 -559703 -560630 -558314 -554111 -549677 -546897 -546103 -547029 
3784.483 -548783 -550140 -550438 -549743 -548915 -548187 -548221 -548750 
3788.341 -549048 -548551 -546996 -544084 -540311 -535877 -530218 -523037 
3792.198 -513638 -502088 -489809 -478821 -471969 -471506 -478125 -490272 
3796.056 -504239 -514995 -518304 -512645 -499374 -482461 -467964 -461874 
3799.913 -469057 -491232 -525618 -565461 -601165 -624756 -631936 -624392 
3803.771 -607319 -587168 -571451 -564932 -570094 -585547 -605863 -623764 
3807.628 -631638 -626046 -607319 -579392 -547095 -515094 -486334 -461444 
3811.485 -440260 -421889 -406165 -394182 -388687 -392295 -407192 -432813 
3815.343 -465019 -495998 -517344 -523500 -513836 -492655 -467236 -446450 
3819.200 -437248 -444034 -467236 -501988 -539186 -568506 -582668 -580186 
3823.058 -564766 -542992 -521713 -506489 -499572 -500433 -505827 -511156 
3826.915 -512148 -505927 -493019 -475941 -458664 -444960 -437414 -436619 
3830.772 -441452 -449032 -456545 -460683 -459590 -452805 -441220 -426556 
3834.630 -411561 -399280 -393123 -395572 -408251 -430462 -460153 -492523 
3838.487 -522275 -545242 -558777 -562549 -557883 -547128 -532865 -517576 
3842.345 -503047 -490735 -481303 -474584 -469520 -464621 -458101 -448800 
3846.202 -436222 -420863 -403517 -385310 -367268 -349357 -331776 -314593 
3850.060 -299130 -288468 -287541 -302143 -337935 -396665 -472830 -553052 
3853.917 -620885 -662837 -674284 -659065 -625319 -581874 -535811 -491828 
3857.774 -452971 -420797 -395605 -377497 -365447 -358263 -353992 -351542 
3861.632 -349887 -349820 -352899 -361308 -375710 -394745 -414342 -428708 
3865.489 -432647 -424107 -404974 -381337 -361772 -354389 -364785 -393950 
3869.347 -436586 -482196 -518966 -539120 -540576 -527438 -506191 -483553 
3873.204 -463926 -448535 -435891 -423346 -408185 -389150 -367168 -344656 
3877.062 -325221 -312076 -307838 -313831 -329459 -351608 -374816 -393023 
3880.919 -400439 -393718 -374087 -345814 -315950 -291779 -280256 -284958 
3884.776 -305554 -336643 -369088 -394116 -404808 -400372 -384284 -363328 
3888.634 -344358 -333597 -334922 -349158 -373624 -403153 -431522 -452673 
3892.491 -462801 -460848 -447708 -425961 -398452 -368526 -338928 -312109 
3896.349 -290124 -274826 -266812 -266580 -273534 -286349 -303136 -321943 
3900.206 -341146 -359719 -377762 -395407 -412720 -429502 -444232 -454626 
3904.063 -458730 -454725 -442379 -422915 -398419 -371604 -344722 -319162 
3907.921 -296150 -276051 -259461 -246944 -238598 -234459 -233697 -234923 
3911.778 -235916 -234459 -229094 -219556 -206872 -193426 -182265 -175740 
3915.636 -175574 -182099 -193890 -209157 -225551 -240685 -253202 -261779 
3919.493 -265819 -264726 -258931 -248997 -236578 -223663 -212105 -203660 
3923.351 -199421 -198758 -200679 -203461 -206044 -207667 -208628 -209588 
3927.208 -211012 -213297 -215781 -217437 -217437 -215582 -212304 -209091 
3931.065 -207667 -209157 -213960 -221411 -229491 -236214 -240056 -239625 
3934.923 -235750 -229094 -221014 -212635 -204488 -196804 -189352 -181304 
3938.780 -172527 -163253 -154112 -145964 -140068 -137650 -138842 -143910 
3942.638 -151992 -161664 -171335 -179648 -185444 -188359 -188524 -186603 
3946.495 -183590 -180609 -178125 -176866 -177230 -179052 -181934 -185411 
3950.353 -188723 -191141 -192068 -191108 -188193 -183755 -178257 -172329 
3954.210 -166632 -161067 -155536 -149607 -142618 -134337 -124897 -114827 
3958.067 -104823 -95316 -87067 -80044 -74180 -69211 -64871 -60929 -57583 
3962.407 -54767 -52746 -51619 -51288 -52017 -53309 -55032 -56423 -57053 
3966.747 -55959 -52646 -47147 -40024 -32503 -26340 -22795 -22563 -25413 
3971.086 -30117 -34689 -37572 -37936 -35882 -32238 -28229 -25214 -23126 
3975.426 -22000 -20907 -18852 -15672 -11298 -6427 -1491 3247 7521 11630 
3980.248 15407 18257 18853 16169 9277 -1557 -15274 -30084 -43966 -55230 
3985.069 -63413 -68813 -71961 -73518 -73650 -71696 -67024 -59107 -48339 
3989.409 -36147 -24452 -14744 -8217 -4705 -3015 -1358 1491 5964 11431 16302 
3994.713 19118 18754 14877 8382 629 -7156 -13551 -18057 -20542 -21139 -19714 
4000.017 -16765 -12491 
##END=
