
##TITLE=L1760A_2
##JCAMP-DX=5.01  $$ Nicolet v. 1
##DATATYPE=INFRARED SPECTRUM
##ORIGIN=UniL
##OWNER=Nicolet
##LONGDATE=2011/08/18
##TIME=11:15:24
##SPECTROMETER/DATA SYSTEM=Nicolet iS5
##DATA PROCESSING=
Ratio against background
%Transmittance->Absorbance
Truncated
ElementMultiply or ElementDivide
##COMMENTS=
Number of sample scans: 32
Collection length: 51.20 sec
Sample gain: 2.0
Background collected on: Jeu Aout 18 11:13:14 2011 (GMT+02:00);
Number of background scans: 32
Background gain: 2.0
Sample spacing:  1.000
Number of scan points: 12415
Resolution points: 8192
Number of FFT points: 65536
Apodization: N-B fort;
Phase correction: Mertz;
Laser frequency: 15798.0 cm-1
Number of rejected sample scans: 0
Number of rejected background scans: 0
Bench serial number: ASB1000141;
##RESOLUTION=4.000
##XUNITS=1/CM
##YUNITS=ABSORBANCE
##FIRSTX=649.893372
##LASTX=4000.122314
##FIRSTY=0.082063
##MAXX=4000.122314
##MINX=649.893372
##MAXY=0.183480
##MINY=-0.000320
##XFACTOR=1.000000
##YFACTOR=1.000000E-009
##NPOINTS=6950
##DELTAX=0.482117
##ZPD=6100
##XYDATA=(X++(Y..Y))
649.893 82062976 81256208 80526992 79876928 79297352 78776456 78306696 
653.268 77886760 77519944 77213088 76972928 76805472 76716864 76711600 
656.643 76791984 76955048 77192824 77489048 77822112 78170696 78514240 
660.018 78840848 79147360 79437880 79719768 80001520 80289872 80590616 
663.393 80909576 81252616 81624000 82024352 82444752 82865632 83256576 
666.767 83580152 83807872 83938944 84010176 84075320 84180280 84341112 
670.142 84543752 84758440 84952160 85101512 85195080 85233856 85226600 
673.517 85182456 85104056 84987944 84828728 84626080 84388032 84131088 
676.892 83871896 83620480 83374912 83123384 82848264 82534288 82175504 
680.267 81773896 81337000 80873488 80388016 79883976 79365368 78840496 
683.642 78323048 77827544 77364784 76937448 76539816 76161896 75796496 
687.016 75445552 75121440 74842760 74627448 74486728 74421088 74422968 
690.391 74482512 74594392 74762736 75002344 75333576 75780360 76363912 
693.766 77098320 77991592 79042448 80240720 81564784 82980928 84446464 
697.141 85906816 87305296 88591504 89725384 90688240 91482672 92130480 
700.516 92664120 93117984 93523656 93901856 94261872 94599808 94901440 
703.890 95142808 95294792 95333128 95242312 95025216 94703520 94315512 
707.265 93906176 93514328 93166808 92874088 92635128 92444176 92299488 
710.640 92205536 92172512 92208856 92316208 92486360 92703464 92948984 
714.015 93206880 93467856 93728152 93986352 94239192 94481504 94707800 
717.390 94919048 95126096 95351368 95621192 95961432 96387304 96899448 
720.765 97486592 98132096 98821992 99548944 100312000 101112496 101946984 
724.139 102806088 103674424 104536320 105382912 106214400 107038448 
727.032 107863216 108691296 109515336 110322016 111098144 111839736 
729.925 112556792 113272624 114017088 114817544 115697232 116675232 
732.817 117771104 119013408 120438936 122085968 123987728 126157832 
735.710 128586960 131243440 134085088 137068080 140152384 143306128 
738.603 146498400 149695792 152870016 156009248 159136752 162313120 
741.496 165625552 169137936 172828208 176522496 179865888 182375856 
744.388 183480160 182697840 179774944 174750224 167964880 159961872 
747.281 151399040 142871232 134856640 127692088 121540976 116444216 
750.174 112351560 109163080 106754072 104998712 103794544 103065208 
753.066 102776408 102937728 103592568 104793600 106566088 108870624 
755.959 111574048 114454664 117199864 119478088 120999264 121550448 
758.852 121055080 119570976 117280504 114433360 111310880 108185848 
761.744 105266152 102699760 100566296 98881608 97616056 96705912 96075840 
765.119 95644808 95341968 95117728 94938792 94790224 94667336 94568744 
768.494 94490568 94425048 94361344 94291344 94211528 94125840 94044576 
771.869 93979568 93941552 93936824 93965376 94023552 94106000 94207088 
775.244 94319424 94432656 94527104 94570680 94521208 94322720 93914568 
778.619 93242032 92257824 90934216 89265656 87269040 84981376 82455928 
781.993 79761456 76971152 74158656 71394328 68730648 66204600 63836364 
785.368 61632404 59592368 57713520 55992348 54423476 52997540 51700540 
788.743 50514212 49419992 48403632 47456756 46576340 45762092 45012208 
792.118 44321592 43681860 43083576 42520204 41989352 41492540 41033256 
795.493 40613456 40232304 39886756 39571852 39283040 39016276 38765112 
798.867 38519052 38263396 37979468 37650084 37265780 36828760 36354312 
802.242 35865340 35388460 34944200 34542440 34183284 33859056 33560452 
805.617 33280186 33014152 32760788 32518354 32283086 32049946 31814684 
808.992 31576126 31338162 31107024 30889384 30688174 30500848 30320744 
812.367 30139330 29950504 29752814 29549434 29345406 29144944 28948932 
815.742 28755630 28561880 28365992 28169412 27976136 27791390 27618372 
819.116 27457108 27304654 27157158 27012038 26869044 26730326 26598596 
822.491 26475072 26358660 26246294 26134730 26022632 25911476 25804780 
825.866 25706548 25619550 25544340 25479686 25423892 25375624 25334176 
829.241 25298278 25264740 25228042 25180462 25115160 25028632 24922432 
832.616 24802928 24680230 24564018 24460984 24373848 24302078 24243530 
835.990 24196828 24161972 24140010 24131252 24134334 24146350 24163830 
839.365 24184708 24209196 24239780 24279722 24330742 24392038 24460738 
842.740 24533376 24607990 24685808 24770970 24868746 24983670 25117724 
846.115 25270464 25440686 25628126 25834706 26063900 26319372 26602152 
849.490 26909830 27236562 27575226 27920234 28268274 28618998 28973514 
852.865 29331686 29691148 30047358 30394476 30728430 31047798 31353906 
856.239 31648930 31934134 32207430 32464470 32698620 32904732 33080224 
859.614 33226744 33348552 33450998 33538866 33616656 33687688 33757872 
862.989 33835988 33933604 34064820 34242936 34478224 34778468 35148468 
866.364 35593260 36119768 36738384 37462584 38308776 39293012 40432132 
869.739 41742408 43238192 44931728 46828008 48920060 51179716 53551588 
873.113 55952356 58261004 60333876 62019940 63166188 63654712 63416348 
876.488 62441372 60783020 58548504 55888436 52962164 49932092 46944572 
879.863 44107168 41496768 39154952 37093784 35307156 33777860 32485000 
883.238 31404980 30514284 29790428 29210466 28753896 28405220 28152406 
886.613 27988364 27908750 27909986 27988682 28141446 28365568 28661046 
889.987 29030970 29481274 30019556 30654178 31393796 32247468 33227566 
893.362 34350616 35636092 37105804 38776488 40652100 42713556 44910492 
896.737 47159700 49335388 51286380 52853220 53877656 54243800 53891988 
900.112 52832712 51144488 48964344 46470824 43841788 41246240 38821812 
903.487 36655600 34796168 33255648 32021872 31069438 30367540 29886928 
906.862 29598310 29476484 29501272 29657514 29938290 30344090 30881344 
910.236 31558986 32383460 33353922 34457816 35666992 36933040 38191972 
913.611 39361900 40348496 41064032 41431224 41399808 40958168 40135080 
916.986 38998008 37636028 36155776 34658516 33224992 31917266 30771464 
920.361 29802068 29008900 28381342 27902284 27548926 27297032 27122310 
923.736 27001246 26916280 26854734 26808526 26773108 26744704 26719368 
927.110 26692414 26659754 26618674 26569182 26513566 26454716 26395242 
930.485 26336902 26280788 26228096 26181640 26145814 26125650 26125828 
933.860 26148488 26193076 26257028 26337186 26431228 26538642 26660070 
937.235 26795840 26944624 27103688 27268772 27436178 27603650 27771750 
940.610 27942284 28117374 28298014 28483226 28670884 28859158 29047796 
943.985 29238572 29435068 29640806 29857786 30086310 30324794 30571978 
947.359 30827806 31093712 31372604 31666714 31975932 32296650 32621854 
950.734 32943406 33253070 33544880 33815824 34066504 34300160 34521884 
954.109 34738876 34959676 35193272 35449428 35736024 36058560 36419524 
957.484 36818300 37252816 37721564 38225224 38766488 39351128 39984284 
960.859 40670800 41413692 42213796 43071172 43986264 44960612 45997448 
964.233 47101312 48277080 49530052 50864268 52282908 53786968 55374196 
967.608 57037716 58763576 60531136 62312500 64072124 65772176 67373952 
970.983 68839576 70138864 71248360 72153496 72848944 73337592 73630024 
974.358 73742904 73700264 73531824 73269616 72949784 72608808 72280392 
977.733 71999536 71799384 71710776 71764520 71986560 72396240 73006384 
981.108 73821440 74840280 76058928 77474712 79086336 80893168 82888568 
984.482 85051496 87333576 89658256 91908600 93934976 95581088 96686464 
987.857 97121584 96811952 95743648 93973848 91617008 88842640 85841768 
991.232 82802920 79907072 77293360 75059288 73263608 71925312 71035992 
994.607 70567432 70483704 70745056 71313760 72159872 73258984 74592856 
997.982 76148392 77912928 79871392 82003584 84276784 86643640 89041768 
1001.356 91385856 93576632 95510488 97080688 98201680 98818368 98915312 
1004.731 98522904 97716088 96611704 95343400 94056208 92890712 91958096 
1008.106 91345296 91108968 91275912 91853736 92835928 94210216 95961136 
1011.481 98075496 100543576 103358608 106517304 110018792 113860464 
1014.374 118034088 122518712 127265480 132192152 137171472 142018288 
1017.266 146516416 150424288 153504576 155579888 156552096 156435504 
1020.159 155354656 153544224 151316784 148994752 146903808 145311168 
1023.052 144390384 144233504 144841328 146147184 148031168 150348640 
1025.945 152950544 155679408 158389904 160946448 163216656 165090896 
1028.838 166482992 167340496 167654736 167459408 166827264 165851168 
1031.731 164639792 163302496 161930496 160598256 159349280 158190336 
1034.624 157089952 155979968 154771152 153357488 151642048 149554016 
1037.517 147052400 144136032 140836256 137212112 133336264 129290056 
1040.410 125159640 121023040 116951784 113008816 109241352 105689544 
1043.303 102388512 99370336 96671096 94329432 92380312 90854520 89772072 
1046.678 89138912 88948192 89182200 89816728 90821352 92164648 93814504 
1050.053 95736128 97895960 100260664 102796976 105476168 108271896 111158480 
1053.429 114109160 117088344 120044688 122912752 125606000 128021584 
1056.322 130057424 131610888 132596776 132960872 132682536 131785976 
1059.215 130338864 128458008 126295056 124017792 121809640 119835448 
1062.108 118232584 117112728 116546472 116570560 117189704 118378688 
1065.001 120083480 122220592 124690080 127370056 130125776 132830840 
1067.894 135361488 137611072 139499280 140962288 141956080 142454032 
1070.787 142441744 141918816 140896736 139400416 137464080 135130320 
1073.680 132453816 129499984 126349000 123103592 119876760 116792544 
1076.573 113979648 111549328 109598784 108202944 107405024 107219304 
1079.466 107621936 108552248 109901032 111515360 113218400 114804720 
1082.359 116078984 116888944 117134208 116796360 115934952 114684672 
1085.252 113224712 111754056 110478984 109570512 109158992 109324192 
1088.146 110085088 111404728 113192720 115326536 117650880 119994888 
1091.039 122199744 124112056 125602456 126577672 126972752 126759664 
1093.932 125945192 124569512 122698616 120411952 117799088 114941728 
1096.825 111909184 108761736 105547224 102307608 99084568 95915928 92838104 
1100.200 89884296 87080600 84449488 82010272 79779208 77772888 76007216 
1103.575 74496288 73253416 72290016 71615584 71238760 71166504 71402992 
1106.950 71949560 72803184 73956600 75397224 77108760 79069800 81251496 
1110.326 83618272 86123848 88705648 91291280 93792048 96106968 98138872 
1113.701 99793648 100994160 101692352 101867512 101530360 100716976 99487232 
1117.076 97915840 96080968 94064528 91937752 89755456 87558320 85370200 
1120.451 83203880 81068600 78974008 76934600 74971352 73108200 71372728 
1123.827 69794680 68401576 67221408 66279860 65596992 65187700 65058736 
1127.202 65209264 65630516 66307800 67222416 68350032 69661696 71123408 
1130.577 72690472 74310512 75924144 77462600 78861320 80065136 81035536 
1133.952 81761768 82262352 82586104 82800112 82984864 83221696 83572960 
1137.328 84079216 84747728 85552904 86436536 87316920 88105048 88706336 
1140.703 89038112 89038720 88664440 87894608 86727616 85178792 83277368 
1144.078 81064888 78596824 75934600 73144464 70295360 67447984 64657836 
1147.453 61973200 59430452 57058344 54875908 52891580 51105908 49512300 
1150.829 48101300 46861740 45783520 44858136 44077208 43432416 42915152 
1154.204 42516220 42228440 42046584 41968620 41995228 42128684 42371724 
1157.579 42726972 43196508 43782744 44487776 45313904 46262120 47331040 
1160.954 48515024 49803020 51178896 52618720 54092268 55564020 56990184 
1164.330 58322276 59511536 60505844 61259332 61735408 61908124 61767416 
1167.705 61318284 60580656 59583704 58363660 56961396 55416204 53767992 
1171.080 52056596 50316724 48581684 46879716 45232376 43657496 42168848 
1174.455 40777320 39492264 38320936 37267476 36332876 35514612 34808192 
1177.831 34207872 33709028 33307910 33000566 32782726 32648608 32589852 
1181.206 32597422 32661826 32773900 32925286 33107546 33311524 33527628 
1184.581 33745984 33958328 34159048 34346492 34522028 34688844 34850340 
1187.956 35008268 35162120 35310208 35450004 35579884 35699008 35807588 
1191.332 35906112 35995848 36078684 36159200 36246244 36352296 36494120 
1194.707 36690936 36959736 37315132 37766416 38316628 38962380 39692912 
1198.082 40490320 41326076 42161764 42952384 43644272 44184744 44529404 
1201.457 44644544 44516848 44153600 43582796 42847052 41998368 41095064 
1204.833 40189888 39331100 38558988 37900244 37370996 36976404 36712460 
1208.208 36568908 36532324 36588548 36722160 36917348 37158424 37427732 
1211.583 37708588 37986736 38251380 38497220 38724792 38939184 39148100 
1214.958 39359868 39582304 39821308 40080860 40362932 40667092 40990432 
1218.333 41326952 41668728 42005812 42328400 42628456 42900408 43141720 
1221.709 43352480 43534628 43691316 43826504 43945936 44056156 44165120 
1225.084 44281228 44411060 44558296 44722988 44902076 45091640 45289008 
1228.459 45495188 45715852 45961092 46242988 46574756 46968680 47434104 
1231.834 47977984 48603844 49311368 50095940 50948240 51855084 52798620 
1235.210 53759100 54716712 55650224 56539436 57363536 58098292 58717372 
1238.585 59191008 59485848 59571768 59422812 59021420 58361692 57449340 
1241.960 56301732 54943884 53410564 51743276 49986628 48189996 46401984 
1245.335 44664888 43016036 41483788 40087220 38840436 37751020 36821764 
1248.711 36050604 35430084 34948256 34589156 34336772 34175752 34092132 
1252.086 34075680 34116752 34206548 34336988 34500432 34691000 34905884 
1255.461 35145380 35411716 35707244 36031844 36380396 36741776 37096924 
1258.836 37420800 37684156 37853932 37899772 37796668 37528364 37092052 
1262.212 36498880 35775096 34955800 34082884 33199060 32339338 31531446 
1265.587 30793800 30136312 29564012 29078724 28679274 28362030 28120342 
1268.962 27945568 27827740 27758116 27731026 27743740 27796230 27889036 
1272.337 28021832 28193170 28400266 28641296 28915854 29225672 29573764 
1275.713 29963460 30396680 30874478 31396608 31962880 32573778 33229604 
1279.088 33929200 34667888 35436416 36220240 37000144 37756728 38469340 
1282.463 39120360 39695636 40183020 40573004 40858088 41031764 41090508 
1285.838 41034020 40865768 40592940 40225724 39776568 39258452 38686400 
1289.214 38078164 37453192 36835072 36248980 35716636 35255224 34872780 
1292.589 34565976 34319952 34110408 33907808 33678520 33393030 33029846 
1295.964 32578424 32042562 31440102 30801482 30161492 29555888 29015170 
1299.339 28558980 28196848 27929564 27752182 27656580 27633698 27674450 
1302.715 27767688 27901190 28061592 28234752 28407872 28570268 28712512 
1306.090 28826368 28903530 28935298 28913976 28834796 28698566 28512592 
1309.465 28290022 28049152 27807816 27583030 27389382 27237584 27137510 
1312.840 27097622 27125414 27225908 27401732 27651426 27971190 28356160 
1316.216 28802752 29309496 29877202 30508206 31204564 31966302 32791480 
1319.591 33675656 34613056 35595272 36610360 37641264 38662856 39640344 
1322.966 40534300 41301588 41903192 42314372 42528172 42559928 42443400 
1326.341 42228696 41971612 41722892 41526552 41411288 41389088 41457364 
1329.717 41601704 41801576 42034572 42283368 42538112 42798196 43070840 
1333.092 43369324 43709196 44104452 44565640 45098220 45701828 46369392 
1336.467 47086984 47835652 48588464 49313484 49977072 50544212 50985128 
1339.842 51280076 51419852 51407652 51255356 50980248 50601244 50138072 
1343.218 49612356 49046388 48463344 47885964 47331220 46809848 46325744 
1346.593 45878924 45469540 45102520 44789104 44547832 44402364 44376344 
1349.968 44494344 44778308 45246828 45917116 46802320 47910604 49243228 
1353.343 50791972 52537792 54446688 56471884 58552560 60612388 62570392 
1356.719 64340136 65833940 66977708 67708248 67982616 67784312 67123096 
1360.094 66036688 64581820 62838396 60901680 58873448 56866360 54983748 
1363.469 53304388 51874500 50697340 49740072 48942904 48236572 47555712 
1366.844 46846348 46078680 45247524 44371940 43486540 42634928 41859952 
1370.219 41193924 40659376 40265532 40010808 39885156 39874368 39965212 
1373.595 40146272 40410604 40753516 41169336 41648928 42179072 42742912 
1376.970 43323632 43906596 44479956 45036208 45570584 46078680 46555724 
1380.345 46995484 47390936 47737264 48033496 48284452 48499280 48689716 
1383.720 48866440 49036080 49201996 49366864 49536436 49723204 49947076 
1387.096 50230124 50592648 51043672 51579484 52184700 52837276 53511968 
1390.471 54181444 54819928 55400132 55892356 56267636 56497356 56560496 
1393.846 56450752 56183040 55792164 55319624 54801844 54256640 53682084 
1397.221 53065788 52398516 51686880 50961468 50271192 49667440 49190528 
1400.597 48854576 48650132 48551372 48527920 48551260 48596840 48647428 
1403.972 48689828 48715068 48718852 48700760 48664140 48614148 48555784 
1407.347 48491908 48423340 48350224 48275488 48206320 48156196 48142164 
1410.722 48179336 48278044 48439156 48654952 48911904 49196244 49497892 
1414.098 49811228 50135540 50472380 50822848 51187616 51567804 51968192 
1417.473 52400236 52884764 53447888 54111184 54883988 55756900 56705600 
1420.848 57700540 58715440 59731840 60734392 61711876 62655056 63555820 
1424.223 64410152 65218308 65983148 66705324 67378912 67986568 68503328 
1427.599 68897856 69141048 69215488 69119400 68867488 68483576 67996568 
1430.974 67434512 66823564 66191248 65564008 64960876 64390556 63844120 
1434.349 63296264 62711432 62060112 61338396 60583208 59865312 59260808 
1437.724 58816004 58529736 58364004 58264184 58181516 58081172 57947304 
1441.100 57781228 57595352 57404716 57220212 57047764 56888644 56742752 
1444.475 56610544 56492108 56385744 56286944 56190924 56096768 56013756 
1447.850 55962456 55971764 56072412 56285888 56622248 57081696 57657820 
1451.225 58340504 59114728 59960968 60848120 61732236 62560060 63258476 
1454.601 63737744 63898244 63641132 62913760 61755380 60323408 58831864 
1457.976 57455396 56275288 55284696 54439400 53696032 53029548 52430444 
1461.351 51894964 51414032 50971116 50546112 50126208 49716220 49345152 
1464.726 49057224 48898848 48898888 49060412 49366344 49787708 50294180 
1468.102 50852684 51429512 51989552 52490376 52888696 53144348 53227600 
1471.477 53132924 52887572 52552860 52199984 51888280 51647884 51480688 
1474.852 51375132 51319900 51311364 51351452 51442380 51579892 51751452 
1478.227 51938804 52123428 52289748 52428536 52536144 52612924 52661620 
1481.603 52686048 52690948 52680812 52658932 52625264 52574252 52494304 
1484.978 52368240 52178572 51911056 51558664 51121636 50603628 50005068 
1488.353 49319760 48537036 47651432 46675424 45646140 44618952 43647456 
1491.728 42767484 41983184 41271164 40589340 39891800 39139140 38306860 
1495.104 37390096 36402196 35368976 34317052 33266198 32226772 31206736 
1498.479 30215198 29265898 28373950 27552562 26808878 26143632 25555058 
1501.854 25041232 24600100 24229130 23919110 23651084 23392598 23101868 
1505.229 22739646 22288672 21776184 21274182 20867452 20603770 20477980 
1508.604 20448666 20469714 20506950 20543634 20577816 20614784 20660718 
1511.980 20718232 20786040 20860812 20940812 21026460 21119154 21219938 
1515.355 21326940 21437728 21551990 21675758 21820954 22000214 22221256 
1518.730 22481038 22765276 23051726 23320078 23561664 23788542 24027898 
1522.105 24309648 24647054 25030140 25433026 25826686 26192408 26525718 
1525.481 26839472 27156980 27503562 27894582 28331614 28807142 29312438 
1528.856 29843270 30401760 30992852 31619460 32278556 32963316 33666204 
1532.231 34385580 35130648 35921592 36781224 37719648 38730808 39793816 
1535.606 40885136 41982712 43071684 44148284 45211380 46265364 47316516 
1538.982 48370332 49426748 50477144 51513220 52525712 53511108 54473052 
1542.357 55414816 56335716 57227848 58078144 58870072 59590624 60235892 
1545.732 60809472 61315192 61748660 62087596 62292000 62315904 62117756 
1549.107 61684340 61040160 60242516 59351624 58400428 57380252 56247492 
1552.483 54950240 53460664 51802556 50056340 48337964 46743428 45317508 
1555.858 44035548 42815932 41537052 40065528 38303744 36247076 34044000 
1559.233 31958494 30230542 28949926 28063290 27453440 27007560 26642700 
1562.608 26301242 25949602 25574528 25182430 24795842 24444438 24154020 
1565.984 23933044 23770902 23640588 23510874 23353644 23154112 22916212 
1569.359 22661896 22422244 22223210 22079030 21988920 21943508 21928452 
1572.734 21928348 21926326 21901968 21834160 21706270 21515328 21281212 
1576.109 21046528 20862862 20765012 20760146 20831090 20951244 21095708 
1579.485 21248470 21403998 21564282 21734346 21918068 22116928 22329098 
1582.860 22552996 22788250 23037156 23302844 23587900 23892886 24216448 
1586.235 24557604 24917272 25298982 25708798 26152114 26632274 27150104 
1589.610 27704784 28295822 28924388 29592388 30300954 31046838 31822350 
1592.986 32614604 33408594 34190952 34950556 35678432 36366636 37005484 
1596.361 37583600 38089596 38513152 38847864 39091172 39242996 39303896 
1599.736 39273500 39150384 38933168 38623412 38228264 37761356 37243720 
1603.111 36701824 36161000 35644548 35169376 34745448 34378692 34073640 
1606.487 33834340 33665164 33567788 33540118 33574912 33663268 33798344 
1609.862 33977816 34204864 34485260 34822840 35215332 35653360 36121136 
1613.237 36601996 37079564 37538660 37967968 38358720 38709688 39029724 
1616.612 39343872 39686996 40088816 40567400 41120084 41728804 42364748 
1619.988 42997600 43603864 44166880 44684208 45167004 45637044 46117844 
1623.363 46626432 47169676 47743144 48337776 48944684 49558348 50174852 
1626.738 50791636 51407652 52025372 52654552 53311880 54020744 54803460 
1630.113 55673388 56631796 57666600 58758832 59884896 61027384 62179960 
1633.489 63347028 64544836 65797156 67130944 68563424 70100704 71741344 
1636.864 73473072 75285416 77167648 79106768 81084456 83076808 85064192 
1640.239 87029056 88963520 90869144 92746896 94589016 96375392 98066608 
1643.614 99614240 100973344 102108168 103007536 103686240 104190016 
1646.507 104578392 104917408 105270208 105682448 106183376 106783096 
1649.400 107471224 108212248 108939048 109558576 109943880 109969880 
1652.293 109583896 108900048 108199456 107757848 107688256 107907776 
1655.187 108254760 108575728 108773440 108806040 108668616 108380200 
1658.080 107963936 107434888 106792376 106022592 105106664 104029032 
1660.973 102782496 101371240 99812000 98136384 96392144 94637296 92929280 
1664.348 91308168 89782872 88327144 86880096 85358424 83665912 81715328 
1667.723 79450056 76861904 74000832 70966376 67884904 64875424 62026400 
1671.098 59386380 56963172 54732008 52640376 50617660 48590208 46507704 
1674.474 44374876 42272628 40341880 38719468 37483716 36626404 36080520 
1677.849 35760020 35598184 35564272 35658972 35899744 36299228 36850724 
1681.224 37530856 38315580 39200136 40220308 41454332 42999284 44904756 
1684.599 47134884 49582568 52134260 54732084 57377528 60103640 62939188 
1687.975 65883720 68902984 71920736 74845752 77599528 80129128 82419872 
1691.350 84485504 86351528 88040112 89559816 90900472 92040128 92953376 
1694.725 93630968 94095840 94414088 94669272 94909320 95118096 95204856 
1698.100 95030664 94419816 93216944 91369536 89018344 86494248 84147944 
1701.476 82173984 80543872 79099256 77647384 76035088 74170880 72033440 
1704.851 69668120 67169080 64648224 62191924 59845116 57611772 55471584 
1708.226 53391756 51335452 49268724 47164136 45009052 42809496 40591632 
1711.601 38393140 36246860 34176792 32188124 30271788 28416538 26619274 
1714.977 24891904 23257922 21739710 20348026 19073292 17900546 16821430 
1718.352 15846936 15004358 14318376 13793928 13409243 13121977 12881283 
1721.727 12645771 12393442 12129300 11877850 11670654 11526295 11440832 
1725.102 11390148 11343278 11278016 11186890 11077564 10961912 10845372 
1728.478 10720781 10571102 10379155 10139128 9860253 9561267 9256021 8942264 
1732.335 8595172 8177718 7660966 7056080 6425436 5858067 5419916 5122059 
1736.192 4929153 4785376 4640474 4460335 4236839 3985369 3736650 3519138 
1740.050 3344772 3205925 3084540 2965158 2844675 2731560 2638576 2573076 
1743.907 2530548 2496855 2455701 2398957 2329829 2262143 2210187 2181847 
1747.765 2171225 2162333 2135695 2080558 2000062 1911295 1834824 1784316 
1751.622 1760329 1752145 1746490 1735445 1720409 1708200 1705772 1714188 
1755.479 1726696 1732484 1723003 1698886 1671345 1655878 1664326 1697024 
1759.337 1743362 1785048 1805943 1800586 1777862 1757401 1758932 1792601 
1763.194 1852593 1923243 1987081 2033484 2061748 2078494 2092510 2108825 
1767.052 2126172 2138126 2138359 2126139 2107193 2090113 2080424 2075098 
1770.909 2062214 2026327 1957956 1862143 1758133 1669183 1611843 1585804 
1774.767 1578089 1569077 1544137 1498285 1437777 1374850 1320874 1279099 
1778.624 1243410 1201643 1143800 1069225 987754 915629 865328 839433 828677 
1782.964 817523 791265 744795 683828 623367 578043 554918 550274 553558 
1787.303 553989 546259 532956 522009 520383 528909 540984 543904 527748 
1791.643 491191 444919 406247 390162 400709 429629 461802 484358 492087 
1795.982 488836 483960 486746 500910 522174 541416 549378 543041 527681 
1800.322 513649 510630 521610 541150 560326 570312 569383 562881 560160 
1804.662 569118 591082 620712 648287 665908 670885 667500 663916 667069 
1809.001 677722 690332 695841 687910 666671 640190 619385 612516 620513 
1813.341 635843 647623 647159 632890 611256 594101 590551 603923 628643 
1817.680 654359 671184 675863 672711 671184 679713 700620 728764 754852 
1822.020 770154 770884 760130 745492 734904 731386 732946 733743 729826 
1826.360 721230 712668 709548 713896 721794 724715 713199 683761 641882 
1830.699 600936 574858 570644 585276 607805 625424 628775 617162 597486 
1835.039 580896 575057 580763 591115 596125 588826 570014 547918 534184 
1839.378 537468 557971 587598 613611 624959 616199 590120 555184 521743 
1843.718 496631 480643 470857 464655 462864 469630 488803 520582 559298 
1848.058 595661 620679 629837 626154 618323 616034 623931 639958 655654 
1852.397 662655 656384 640356 623665 616896 625590 646993 671582 687777 
1856.737 689038 676328 657545 642977 639526 646428 656550 661229 655587 
1861.076 641882 628609 624561 634582 655786 679215 694447 695775 684857 
1865.416 670023 660598 661394 669160 674303 665576 637768 595628 552331 
1869.756 522805 514545 524762 541781 553060 550307 533885 511393 493314 
1874.095 486348 489765 496399 496698 485685 465119 443725 431619 434903 
1878.435 451951 474174 490893 495470 488604 477823 472582 478719 495769 
1882.774 517099 534814 544733 549146 555416 571341 598879 632326 659934 
1887.114 669890 655720 620579 575555 535610 511194 504161 507877 512853 
1891.454 512587 506550 500380 501043 512090 530932 549876 560392 559231 
1895.793 549743 541250 542179 556843 580664 604089 616598 613213 596756 
1900.133 577081 565203 567492 582555 602761 618589 624130 619949 612417 
1904.472 609165 613611 623333 630866 628742 614308 591447 568554 554487 
1908.812 552662 559231 565137 562018 546392 522904 500944 489765 493049 
1913.152 507644 524563 534018 531032 516435 495603 473909 452482 427241 
1917.491 393048 347052 294727 247880 220231 220463 246852 287632 325597 
1921.831 347549 347748 332461 314986 309283 321419 347781 377328 399216 
1926.170 408668 409199 409132 416794 433211 451619 460641 451288 421968 
1930.510 382667 348942 335014 346952 379252 418684 451122 468337 471322 
1934.850 468071 467275 471554 476098 471753 451254 414605 371259 334650 
1939.189 316644 319463 334849 347383 344200 320159 282261 244896 222386 
1943.529 219767 232000 246620 252422 247217 238730 240089 262467 307427 
1947.868 365158 420210 457789 472980 472980 472715 485121 514511 553359 
1952.208 585840 597320 581228 542942 496300 456462 430491 415169 399548 
1956.548 372453 328946 274469 220132 177303 150189 132655 114393 87913 54608 
1961.369 26110 17196 37144 82412 138058 182341 197457 179358 136997 88344 
1966.191 49372 25911 10636 -8946 -44066 -94024 -146891 -185246 -197831 
1970.531 -185411 -163154 -151859 -166466 -208164 -262805 -306911 -319990 
1974.388 -294726 -239062 -170606 -105817 -51454 -2054 53117 122314 203059 
1978.728 281564 341248 371624 373946 361609 352424 358326 380810 410525 
1983.067 433709 440010 430425 414837 407673 419115 448667 485983 516933 
1987.407 531231 527781 514777 505090 506318 518359 532392 536572 526023 
1991.747 505190 487609 488604 516668 566895 624893 670753 691062 683430 
1996.086 657246 626983 604321 593206 587963 579138 560592 532790 505289 
2000.426 488703 488770 501939 516502 519156 502967 471521 437921 418585 
2004.765 423427 450259 485751 512620 519089 505090 480709 460376 453311 
2009.105 459149 467010 464389 445583 414472 385088 371558 381341 408502 
2013.445 439015 454339 444886 413079 371989 338529 322779 323110 328051 
2017.784 323972 303282 270922 240785 229381 244299 281564 326227 360714 
2022.124 375372 371591 360449 356536 368175 391091 413146 420409 406380 
2026.463 377328 349638 339491 356038 394872 440840 474904 486215 475966 
2030.803 455898 440773 438949 448070 456959 453543 431851 397724 366451 
2035.143 354082 368242 405318 451022 491191 516800 529672 539790 558833 
2039.482 591082 632989 672279 696240 700056 688640 674303 671217 687346 
2043.822 720898 763217 803879 838171 869511 908424 964143 1040561 1131509 
2048.161 1223639 1301199 1353910 1379836 1384590 1377077 1363350 1346798 
2052.019 1327155 1304755 1283054 1268964 1269761 1288903 1323200 1362419 
2055.876 1393731 1408889 1406861 1395226 1386085 1389310 1407293 1434452 
2059.734 1458821 1469991 1464905 1448382 1431693 1425344 1434220 1454432 
2063.591 1476807 1490970 1492333 1484154 1475843 1477139 1493497 1522823 
2067.448 1556873 1586835 1606988 1617896 1625280 1635822 1652319 1672675 
2071.306 1690404 1699385 1697556 1689439 1682754 1686246 1704375 1735012 
2075.163 1771607 1806375 1835423 1859148 1882542 1910496 1945242 1984251 
2079.021 2021666 2051061 2069105 2077861 2082189 2087716 2098137 2112620 
2082.878 2128836 2143953 2157605 2172490 2192537 2219579 2251918 2282827 
2086.736 2304412 2311008 2301847 2281162 2257047 2236398 2222377 2212652 
2090.593 2202161 2185744 2162900 2137726 2117215 2108125 2113353 2129834 
2094.450 2150646 2168361 2178850 2182347 2183213 2185577 2191838 2200163 
2098.308 2206657 2207523 2201628 2191238 2180915 2174355 2172090 2171258 
2102.165 2167961 2159203 2146017 2132931 2126105 2129502 2143120 2161668 
2106.023 2177785 2185477 2182813 2172723 2160868 2152843 2150346 2152044 
2109.880 2153476 2150612 2143287 2133697 2126005 2123342 2125006 2126971 
2113.738 2124207 2112754 2092776 2068406 2045568 2028590 2018470 2012046 
2117.595 2004356 1992207 1976429 1961218 1952831 1955693 1969805 1989843 
2121.452 2008784 2020335 2022532 2018371 2012911 2011214 2014642 2019769 
2125.310 2020668 2012046 1992207 1963615 1931763 1901844 1875853 1852460 
2129.167 1827404 1797159 1761394 1722870 1686645 1656876 1633627 1613373 
2133.025 1590692 1560996 1523388 1481528 1441068 1405897 1376679 1349523 
2136.882 1319611 1283552 1242911 1202440 1168119 1144398 1129017 1116626 
2140.740 1100582 1076732 1047170 1018906 998880 991673 995426 1002400 
2144.597 1003595 994031 974703 953417 940599 942094 957701 980183 998514 
2148.937 1003795 993433 970286 939869 907627 872367 829440 773307 701516 
2153.276 617626 530700 450193 381440 323409 270159 214927 158807 110350 
2157.616 83770 91857 136997 207369 282128 339823 369104 373315 367346 366816 
2162.438 383397 416827 457789 494110 518558 530866 539293 553890 579868 
2166.777 614242 647955 670719 676394 667169 650941 638796 636805 644736 
2171.117 655654 661793 660133 653928 653563 669525 707424 764246 828710 
2175.456 885581 924296 940732 938408 926122 911313 897268 883721 867553 
2179.796 847566 826552 809887 802186 804676 812975 818784 815996 802983 
2184.135 784626 769623 766934 778950 802186 828345 849592 863004 872997 
2188.475 887340 914932 958730 1014754 1073875 1126426 1167222 1197722 
2192.333 1225201 1256602 1296646 1343009 1388811 1426707 1453734 1472518 
2196.190 1491402 1518733 1558402 1607886 1659271 1701747 1727494 1734314 
2200.047 1725764 1707834 1685914 1662464 1637386 1610280 1583077 1560397 
2203.905 1549424 1555542 1579751 1618595 1664094 1709464 1751846 1792767 
2207.762 1836721 1887334 1944144 2000395 2046600 2073500 2076463 2058185 
2211.620 2026759 1991641 1960086 1934725 1913625 1893291 1871560 1849332 
2215.477 1830066 1817355 1811300 1808538 1803214 1790738 1770010 1744859 
2219.334 1722138 1708267 1706404 1713489 1723369 1729124 1727029 1717681 
2223.192 1706437 1699552 1701281 1712225 1730022 1750216 1770709 1790904 
2227.049 1812165 1835256 1859248 1879747 1891993 1892292 1880545 1860646 
2230.907 1840081 1824942 1819252 1823278 1834125 1849299 1867966 1890928 
2234.764 1920946 1958622 2001993 2045934 2083920 2111455 2127837 2136794 
2238.622 2144152 2155907 2174721 2199331 2226406 2252551 2276532 2300215 
2242.479 2326830 2358012 2393660 2430143 2462732 2488091 2506453 2521316 
2246.336 2537713 2559011 2584576 2609575 2627676 2633009 2624376 2605908 
2250.194 2585709 2572343 2571376 2583676 2605575 2631643 2656745 2677715 
2254.051 2694618 2707954 2718223 2725125 2727459 2724725 2717857 2709688 
2257.909 2703453 2701019 2702119 2703920 2702786 2696385 2684783 2671047 
2261.766 2659579 2653445 2653311 2656612 2659279 2657645 2650444 2639477 
2265.624 2628076 2619375 2614742 2612908 2611142 2607475 2601042 2593909 
2269.481 2588575 2587642 2591742 2599242 2607575 2614775 2620142 2625176 
2273.338 2631776 2641177 2652144 2662512 2669180 2670547 2667346 2663313 
2277.196 2661879 2666013 2675881 2688783 2701219 2710421 2715723 2719591 
2281.053 2725692 2737329 2755802 2779911 2806922 2833936 2859383 2883665 
2284.911 2907748 2932699 2958219 2982540 3003492 3019573 3031018 3040194 
2288.768 3049303 3060581 3074463 3089513 3103729 3115509 3124687 3133030 
2292.625 3142875 3155959 3172246 3190370 3207293 3220879 3230927 3238638 
2296.483 3246616 3257399 3272289 3290517 3310382 3329714 3347177 3362670 
2300.340 3376661 3389785 3402074 3412627 3420575 3425217 3427488 3429024 
2304.198 3432063 3438275 3447827 3459617 3471607 3482228 3491414 3500065 
2308.055 3510152 3523246 3539882 3558990 3578567 3596407 3610974 3621866 
2311.913 3629551 3634730 3637637 3638338 3636467 3632324 3626978 3621833 
2315.770 3618592 3618291 3620897 3624907 3629384 3633794 3638472 3645188 
2319.627 3655647 3671051 3690666 3712287 3732639 3748213 3756435 3755834 
2323.485 3746242 3728462 3703799 3674158 3642147 3610573 3583010 3562565 
2327.342 3550873 3548100 3552075 3559391 3566407 3570583 3571150 3569046 
2331.200 3566540 3565672 3567977 3574324 3584848 3599848 3619895 3644486 
2335.057 3673223 3704033 3734210 3760713 3782004 3798047 3810716 3822849 
2338.915 3836755 3852968 3870385 3885931 3896796 3901544 3900574 3895660 
2342.772 3888672 3880716 3871087 3858785 3842806 3824354 3806872 3795775 
2346.629 3795942 3810849 3841068 3884594 3937553 3995434 4054527 4111654 
2350.487 4164708 4212114 4252833 4285993 4311559 4330434 4344524 4356003 
2354.344 4367014 4378059 4388702 4397003 4401087 4400116 4394761 4387129 
2358.202 4379197 4372469 4366546 4360019 4350514 4336759 4318554 4297036 
2362.059 4274348 4252030 4230884 4210877 4192007 4174343 4158653 4145908 
2365.917 4136307 4128647 4120652 4109948 4094796 4075798 4055263 4036935 
2369.774 4024327 4019311 4021619 4029243 4039076 4048975 4057470 4064761 
2373.631 4071317 4077470 4082488 4085732 4086502 4084729 4081752 4079377 
2377.489 4079110 4081885 4087739 4095499 4104095 4113427 4123429 4135304 
2381.346 4149889 4167050 4185651 4203884 4220010 4233259 4244100 4254373 
2385.204 4266351 4281844 4301387 4324343 4349075 4373574 4396401 4416651 
2389.061 4433756 4447648 4458059 4465022 4468336 4469039 4468135 4467098 
2392.918 4467098 4469106 4472688 4477174 4481493 4485042 4487251 4488155 
2396.776 4487619 4485711 4481761 4475835 4468403 4460837 4454879 4452469 
2400.633 4454611 4461340 4471383 4482866 4493947 4503421 4510954 4516947 
2404.491 4521735 4525284 4527427 4527694 4526322 4523878 4521802 4521400 
2408.348 4523509 4527929 4533654 4539614 4545005 4550128 4556121 4564425 
2412.206 4575743 4589874 4605680 4621586 4636790 4650856 4664855 4679927 
2416.063 4697042 4715833 4735328 4753651 4769396 4781925 4791775 4800050 
2419.920 4807554 4814657 4821324 4826919 4831208 4834860 4839316 4845582 
2423.778 4854427 4865485 4877581 4888907 4898892 4907136 4914877 4923288 
2427.635 4933242 4944603 4956466 4967225 4975972 4982776 4988407 4994272 
2431.493 5001110 5008886 5016797 5023701 5028998 5033054 5037143 5042339 
2435.350 5049378 5058094 5066810 5074252 5079616 5082968 5085952 5090176 
2439.208 5096948 5106603 5118371 5130977 5143349 5155520 5167893 5181473 
2443.065 5196730 5212961 5228956 5243478 5255652 5265847 5275070 5284495 
2446.922 5294658 5305055 5314246 5321155 5325080 5327025 5328535 5331654 
2450.780 5337356 5345608 5354732 5363253 5369996 5375263 5380496 5387675 
2454.637 5397874 5411125 5425653 5439073 5449642 5456386 5459540 5460748 
2458.495 5461453 5462728 5464841 5467861 5471854 5477089 5484370 5494001 
2462.352 5505712 5518161 5529202 5537122 5541149 5541887 5541015 5541082 
2466.209 5543364 5548835 5556620 5565883 5575549 5585618 5596325 5608240 
2470.067 5621263 5634791 5646841 5656576 5663289 5667989 5672454 5678429 
2473.924 5686956 5697867 5709785 5721301 5731776 5741948 5753599 5768809 
2477.782 5788486 5811958 5836942 5860350 5879594 5893835 5903743 5911267 
2481.639 5918522 5927053 5937366 5949055 5961249 5973712 5986880 6001494 
2485.497 6018460 6038081 6060088 6083911 6108608 6134148 6159957 6186205 
2489.354 6212253 6237295 6260388 6281095 6299854 6318008 6337239 6359160 
2493.211 6383974 6410639 6436970 6460612 6479849 6494143 6504099 6510725 
2497.069 6515332 6518561 6520613 6521791 6522631 6524414 6528484 6535379 
2500.926 6545268 6556873 6568613 6579109 6588090 6596434 6605517 6616652 
2504.784 6630009 6644644 6658977 6671359 6681554 6690605 6700902 6714059 
2508.641 6731187 6751379 6772648 6792404 6809165 6822662 6834173 6845584 
2512.499 6858106 6872311 6887123 6901700 6915132 6927892 6941258 6956880 
2516.356 6975836 6997789 7021630 7045237 7067093 7086592 7104443 7121586 
2520.213 7139270 7157257 7174942 7191145 7205193 7217220 7228742 7241375 
2524.071 7256840 7276011 7298216 7322309 7346943 7370668 7393181 7414212 
2527.928 7433727 7451659 7467637 7481121 7492312 7501617 7510247 7519248 
2531.786 7529429 7541263 7554884 7570393 7588466 7609641 7634830 7664169 
2535.643 7696951 7731488 7765218 7796219 7823342 7846587 7867336 7887041 
2539.500 7907185 7928207 7950007 7971504 7992022 8011193 8028845 8045350 
2543.358 8061012 8076033 8090548 8105064 8120425 8137507 8156751 8177954 
2547.215 8199394 8219216 8234850 8245149 8250215 8251397 8251160 8252005 
2551.073 8254774 8259704 8265648 8271321 8276015 8279865 8283783 8289254 
2554.930 8296516 8305364 8314922 8323670 8330965 8336336 8340085 8342888 
2558.788 8344814 8345793 8344881 8341808 8336538 8329750 8322690 8316544 
2562.645 8311714 8307999 8304486 8300096 8294455 8287532 8280270 8273720 
2566.502 8268316 8263959 8260211 8256260 8251836 8247412 8243326 8240794 
2570.360 8240253 8241030 8242448 8243022 8241266 8235998 8226847 8213408 
2574.217 8196187 8176064 8154827 8134773 8118230 8107664 8104220 8107629 
2578.075 8115630 8124982 8132342 8134638 8130822 8121235 8107494 8091528 
2581.932 8075493 8060540 8047376 8036541 8028440 8024018 8023917 8028035 
2585.790 8036203 8046801 8058346 8069214 8078531 8085822 8091595 8096422 
2589.647 8100878 8105470 8110567 8117149 8125590 8136730 8150606 8166644 
2593.504 8183761 8200374 8215332 8228367 8240050 8251903 8265479 8281554 
2597.362 8300129 8320427 8341605 8362884 8384368 8406528 8430108 8455008 
2601.219 8480449 8505013 8527315 8546812 8563709 8579627 8596254 8614944 
2605.077 8635764 8657970 8680145 8700731 8719020 8735315 8750663 8766080 
2608.934 8782377 8799654 8817576 8835599 8853285 8870835 8888455 8906379 
2612.792 8924305 8941893 8958500 8973924 8988537 9002812 9017765 9034003 
2616.649 9051561 9070068 9088811 9107218 9125118 9142409 9159499 9176724 
2620.506 9194084 9211514 9229316 9247594 9267259 9288720 9312653 9338517 
2624.364 9365669 9392382 9417471 9440294 9461154 9480795 9500369 9520623 
2628.221 9541824 9563706 9586095 9608655 9631759 9655914 9681392 9707989 
2632.079 9734758 9760376 9783589 9804194 9822495 9840153 9858930 9880217 
2635.936 9904454 9931132 9959034 9986767 10013180 10037933 10060754 10082016 
2639.793 10101685 10120271 10137567 10154255 10171078 10188683 10207442 
2643.169 10227422 10247675 10267182 10284859 10300228 10313766 10326795 
2646.544 10340639 10356487 10374641 10394833 10416281 10438207 10460268 
2649.919 10482467 10505142 10528564 10552396 10575957 10598671 10619688 
2653.294 10638940 10657107 10674663 10692560 10711374 10730732 10750669 
2656.670 10770811 10791123 10811605 10832565 10853968 10875846 10897455 
2660.045 10918350 10938159 10956713 10974383 10991273 11007653 11023082 
2663.420 11037152 11049320 11059143 11066620 11072092 11075899 11078415 
2666.795 11079468 11078822 11076103 11071344 11065158 11058292 11051529 
2670.171 11045513 11040075 11034603 11028248 11020465 11011221 11001093 
2673.546 10990966 10981723 10973738 10967009 10960825 10954741 10948048 
2676.921 10940674 10932791 10924636 10916414 10908191 10899595 10890592 
2680.296 10881078 10871090 10860660 10850197 10839835 10830119 10821389 
2683.672 10814255 10809364 10806816 10806578 10808107 10810145 10811572 
2687.047 10811572 10810111 10807428 10804879 10803283 10803250 10804642 
2690.422 10807054 10809669 10812013 10813983 10815920 10818094 10820676 
2693.797 10823529 10826212 10828285 10829814 10831105 10832939 10835996 
2697.173 10840651 10846494 10853254 10859743 10866028 10872143 10879040 
2700.548 10887805 10899290 10913491 10929971 10947912 10965990 10983762 
2703.923 11000617 11017100 11033822 11051427 11070665 11092011 11115771 
2707.298 11142083 11171048 11202258 11234933 11268256 11301004 11332327 
2710.674 11361713 11389433 11415897 11442159 11468864 11496899 11526363 
2714.049 11557633 11590539 11625422 11662111 11700233 11739549 11779414 
2717.424 11819555 11859700 11900291 11941771 11984958 12030024 12076866 
2720.799 12124632 12172268 12219022 12264657 12309547 12354475 12400500 
2724.175 12448335 12497711 12547878 12598015 12647306 12695306 12741912 
2727.550 12787840 12833194 12878279 12923095 12967064 13009910 13051154 
2730.925 13091072 13129763 13167297 13204047 13240051 13275305 13309742 
2734.300 13343088 13375105 13405347 13433403 13458352 13480294 13499264 
2737.676 13516115 13532043 13548349 13565988 13585372 13605953 13627253 
2741.051 13647973 13667565 13685824 13702751 13718824 13734521 13750115 
2744.426 13765882 13781957 13798238 13815066 13832238 13849204 13865488 
2747.801 13879958 13892069 13901100 13907224 13910987 13913416 13914990 
2751.177 13916564 13918206 13920328 13922893 13926520 13931618 13938393 
2754.552 13946502 13955226 13963302 13969461 13972986 13974217 13973806 
2757.927 13973327 13973669 13975141 13977707 13980445 13982908 13984585 
2761.302 13985920 13987322 13989478 13992763 13996562 14000428 14003816 
2764.677 14006690 14009873 14014425 14021713 14032254 14045566 14060727 
2768.053 14076129 14090538 14103133 14114121 14124149 14134076 14144653 
2771.428 14156361 14169198 14183199 14197988 14213257 14228801 14243969 
2774.803 14258281 14271463 14283996 14296426 14310295 14327040 14347828 
2778.178 14372624 14400605 14430131 14459248 14485967 14509846 14531088 
2781.554 14550480 14569565 14589542 14611267 14635324 14661781 14690398 
2784.929 14720972 14753262 14786891 14821447 14856590 14892422 14928908 
2788.304 14966186 15004325 15043049 15081538 15118898 15153721 15185597 
2791.679 15214249 15240502 15265794 15291363 15318478 15347654 15379028 
2795.055 15411710 15445287 15478936 15511968 15543767 15573508 15600915 
2798.430 15625130 15646597 15665662 15683662 15701801 15721556 15743164 
2801.805 15767010 15791750 15816696 15840922 15864085 15886424 15908558 
2805.180 15931072 15954858 15980363 16007796 16037362 16069062 16102828 
2808.556 16138108 16174011 16209437 16243454 16275512 16305510 16334167 
2811.931 16362827 16392348 16423283 16455803 16489597 16524015 16559055 
2815.306 16594959 16632482 16672421 16715083 16760470 16808202 16857354 
2818.681 16907372 16958084 17009836 17062560 17116632 17171436 17226386 
2822.057 17280378 17332824 17383552 17433250 17482886 17533424 17585866 
2825.432 17640280 17696462 17753894 17812024 17870542 17929274 17988326 
2828.807 18047558 18106902 18166150 18225026 18283392 18341660 18400076 
2832.182 18459194 18519490 18581354 18645234 18711474 18780698 18853432 
2835.558 18929982 19010632 19094966 19182262 19271200 19360990 19450728 
2838.933 19540348 19630470 19722380 19817776 19919056 20028446 20148516 
2842.308 20281918 20430884 20597864 20785450 20995476 21230864 21493186 
2845.683 21784094 22103538 22449528 22817164 23197556 23578664 23945542 
2849.059 24280424 24566648 24788896 24935310 24999604 24981108 24885238 
2852.434 24721792 24504664 24250326 23974638 23693142 23419138 23162256 
2855.809 22929312 22724320 22548598 22401310 22281208 22185756 22112012 
2859.184 22057068 22018200 21993068 21980034 21978256 21987562 22008266 
2862.560 22040648 22084852 22141018 22208702 22287556 22377134 22477058 
2865.935 22587268 22707562 22837558 22976716 23124162 23279036 23440014 
2869.310 23605638 23773946 23942182 24107364 24265708 24413032 24545894 
2872.685 24661818 24759640 24840082 24905238 24958716 25004798 25048076 
2876.061 25092658 25141982 25198334 25263194 25336458 25417568 25505616 
2879.436 25599586 25698672 25802706 25911864 26026432 26146554 26271778 
2882.811 26400806 26531600 26661516 26787098 26904718 27010628 27101784 
2886.186 27175852 27232258 27272054 27298022 27314960 27328190 27343434 
2889.562 27366302 27400780 27451322 27522272 27619080 27748934 27921436 
2892.937 28147458 28440028 28812100 29276178 29843306 30520398 31307928 
2896.312 32196902 33166944 34183352 35195572 36145332 36966988 37596428 
2899.687 37984312 38098744 37932496 37502320 36847260 36021872 35083448 
2903.063 34092312 33100784 32148660 31266872 30474688 29781450 29190764 
2906.438 28700582 28306502 28001970 27780582 27636028 27562764 27556516 
2909.813 27613570 27730602 27904262 28130772 28405114 28721186 29071462 
2913.188 29446310 29835392 30226458 30606784 30964636 31288772 31570212 
2916.563 31803846 31987454 32122080 32211784 32261782 32277912 32264992 
2919.939 32226734 32164932 32079734 31970550 31836610 31678226 31498064 
2923.314 31300594 31093108 30884866 30685400 30504402 30350058 30228020 
2926.689 30141994 30092596 30078356 30096076 30141106 30208058 30290830 
2930.064 30382928 30477888 30568636 30648348 30710648 30749162 30758872 
2933.440 30735222 30674910 30575996 30437334 30259638 30044338 29794970 
2936.815 29516416 29214896 28898290 28575506 28254624 27944228 27651142 
2940.190 27380628 27136524 26921462 26736388 26582180 26458026 26362500 
2943.565 26291984 26241824 26205148 26173720 26139340 26094404 26033150 
2946.941 25952664 25853096 25737660 25611534 25481160 25352898 25231870 
2950.316 25121444 25022664 24934574 24854816 24780020 24707376 24634148 
2953.691 24558760 24480054 24397612 24311294 24221072 24126628 24028006 
2957.066 23925482 23819378 23710394 23599200 23486284 23371896 23256140 
2960.442 23138736 23019790 22899518 22778578 22657778 22538094 22420500 
2963.817 22305866 22194892 22088024 21985610 21888272 21796286 21710068 
2967.192 21630378 21557562 21492488 21436336 21390180 21355442 21333830 
2970.567 21326870 21335954 21362370 21406644 21468814 21547812 21641210 
2973.943 21744762 21852242 21956194 22047342 22116264 22154478 22155246 
2977.318 22114836 22033188 21914512 21765734 21597154 21420010 21245580 
2980.693 21083744 20942514 20826396 20737206 20673610 20632086 20607000 
2984.068 20591992 20580736 20567186 20546100 20514486 20470964 20416228 
2987.444 20352332 20283064 20212280 20143968 20081502 20027022 19981606 
2990.819 19945386 19917322 19896474 19881004 19869836 19861858 19856552 
2994.194 19854262 19855510 19861026 19871604 19887144 19907332 19930642 
2997.569 19955724 19981050 20005892 20030076 20054260 20079732 20107286 
3000.945 20137722 20170798 20205962 20242584 20279696 20317020 20354486 
3004.320 20392058 20429982 20468012 20505802 20543112 20579728 20615756 
3007.695 20651822 20688310 20725912 20764594 20804496 20845342 20886748 
3011.070 20928782 20971376 21014464 21057970 21101552 21144546 21186434 
3014.446 21227072 21266806 21306616 21347508 21390980 21437484 21487162 
3017.821 21539386 21593360 21648138 21703380 21759116 21816214 21875308 
3021.196 21937794 22004154 22074706 22148936 22225964 22304402 22382784 
3024.571 22459438 22533206 22603498 22669998 22733256 22793804 22852332 
3027.947 22909124 22963616 23015354 23063500 23107598 23147856 23185392 
3031.322 23221778 23258796 23297530 23338436 23380604 23422494 23461872 
3034.697 23497372 23527908 23553864 23576356 23597486 23619142 23643422 
3038.072 23671798 23704900 23743010 23785742 23832468 23882140 23933744 
3041.448 23986194 24038440 24090028 24140184 24189122 24236978 24284418 
3044.823 24331934 24380614 24430980 24483910 24539616 24598452 24660030 
3048.198 24723862 24788650 24853694 24918360 24982230 25045584 25109086 
3051.573 25173406 25239140 25306358 25374850 25443706 25512292 25579906 
3054.948 25646578 25712770 25779218 25846838 25916260 25987522 26060276 
3058.324 26133956 26207578 26280332 26351338 26420136 26486272 26549422 
3061.699 26609552 26666940 26722294 26776562 26830730 26885718 26942120 
3065.074 26999626 27057524 27114374 27169010 27220616 27269090 27315134 
3068.449 27360124 27405932 27454146 27506280 27563118 27624660 27690622 
3071.825 27760270 27832686 27907232 27983204 28060640 28139502 28220254 
3075.200 28303532 28390080 28480040 28573666 28670424 28769614 28870278 
3078.575 28971672 29072878 29173578 29273768 29373520 29472940 29572418 
3081.950 29672060 29771870 29871912 29972230 30072852 30173854 30275234 
3085.326 30377456 30480658 30585168 30691198 30798530 30906532 31014274 
3088.701 31120088 31222864 31321392 31415452 31505506 31593018 31679760 
3092.076 31767376 31857182 31949576 32044168 32140062 32236512 32333416 
3095.451 32431480 32532174 32637250 32748424 32866418 32991022 33120882 
3098.827 33254110 33388484 33522792 33656500 33790288 33925616 34064464 
3102.202 34207944 34356640 34510048 34666920 34825676 34985104 35144228 
3105.577 35303088 35461796 35620344 35778044 35933036 36083076 36225104 
3108.952 36356260 36474840 36580192 36672944 36754432 36826524 36890728 
3112.328 36947940 36998340 37041460 37076860 37103600 37121392 37130380 
3115.703 37130488 37122256 37106088 37082380 37051888 37015300 36973448 
3119.078 36927124 36876984 36823132 36765612 36704132 36638372 36568652 
3122.453 36495672 36420788 36345592 36271888 36201260 36134852 36073572 
3125.829 36017984 35968776 35926452 35891756 35864800 35845980 35834828 
3129.204 35830760 35832952 35840404 35852244 35867860 35886680 35908744 
3132.579 35934008 35962584 35994660 36030764 36071124 36115984 36165428 
3135.954 36219124 36276788 36337596 36401040 36466552 36533836 36602756 
3139.330 36673232 36745308 36818700 36893000 36967888 37043084 37118288 
3142.705 37193508 37268812 37344380 37420256 37496500 37572904 37649324 
3146.080 37725756 37802488 37879996 37959036 38039864 38122728 38207164 
3149.455 38292564 38377904 38462172 38544612 38624828 38703056 38779820 
3152.831 38855908 38932008 39008848 39086460 39164740 39243324 39321996 
3156.206 39400428 39478440 39556208 39633848 39711392 39788736 39865504 
3159.581 39941312 40015604 40088492 40160196 40231360 40302796 40374856 
3162.956 40447988 40522040 40596212 40669892 40742416 40813500 40883136 
3166.332 40951872 41020364 41089344 41159280 41230356 41302536 41375860 
3169.707 41449816 41524148 41598132 41671172 41742368 41811208 41877644 
3173.082 41941980 42005008 42067828 42131348 42196272 42262004 42328000 
3176.457 42392728 42455092 42514576 42571476 42626592 42681128 42736296 
3179.833 42793044 42851512 42911272 42971732 43031948 43091040 43148380 
3183.208 43203240 43255176 43304084 43349700 43392320 43432596 43471196 
3186.583 43509028 43547340 43586532 43627052 43669036 43712204 43756176 
3189.958 43800408 43844208 43886804 43927824 43966608 44003060 44037124 
3193.333 44069176 44099208 44127228 44153088 44176748 44197912 44217432 
3196.709 44236032 44255144 44276060 44299392 44325112 44352012 44378692 
3200.084 44403208 44424532 44442660 44458408 44473128 44488032 44504108 
3203.459 44521548 44539756 44558516 44577168 44595820 44614620 44633568 
3206.834 44652296 44670144 44685752 44698748 44708704 44716600 44723948 
3210.210 44732580 44744000 44758508 44775328 44792740 44808792 44821800 
3213.585 44831092 44836936 44840316 44842704 44845384 44849356 44854716 
3216.960 44861808 44870076 44879148 44888776 44899028 44909312 44919824 
3220.335 44930404 44941428 44953004 44965428 44978656 44992916 45007872 
3223.711 45023344 45039260 45055580 45072524 45090720 45110056 45130752 
3227.086 45152588 45175532 45199284 45224432 45251276 45280512 45312616 
3230.461 45347556 45384672 45422820 45460488 45496436 45530028 45560828 
3233.836 45589460 45616692 45643340 45670320 45698072 45726788 45756384 
3237.212 45786760 45817576 45848400 45879112 45909640 45940504 45971924 
3240.587 46004924 46039736 46076688 46115376 46155320 46195708 46236208 
3243.962 46277012 46318884 46362976 46410280 46461128 46514820 46570032 
3247.337 46624476 46676312 46724056 46767372 46806712 46843068 46877944 
3250.713 46912752 46948192 46984888 47023284 47063200 47104784 47147736 
3254.088 47191468 47235204 47277652 47318032 47355460 47389608 47420612 
3257.463 47448884 47475164 47499336 47521848 47542368 47560884 47577596 
3260.838 47593200 47608136 47623184 47638604 47653948 47668256 47680720 
3264.214 47690000 47695660 47697768 47697064 47694696 47691592 47688892 
3267.589 47686524 47684048 47680572 47674764 47665336 47651208 47631576 
3270.964 47606212 47575600 47540516 47502220 47461896 47420208 47377748 
3274.339 47334180 47288772 47240816 47190248 47136952 47082184 47027236 
3277.715 46973184 46920948 46870376 46820812 46770696 46719112 46665024 
3281.090 46608544 46550376 46491920 46434396 46378828 46325596 46274504 
3284.465 46225152 46176728 46128604 46080668 46033288 45986912 45942824 
3287.840 45902016 45865632 45834184 45807452 45784296 45763124 45741552 
3291.216 45717952 45691116 45660860 45628068 45594284 45561600 45531096 
3294.591 45503464 45478700 45455744 45433744 45412224 45390928 45370656 
3297.966 45352264 45336596 45324460 45316296 45312252 45312508 45317876 
3301.341 45329020 45346748 45371908 45404428 45443200 45486352 45530988 
3304.717 45573968 45612204 45643816 45667816 45684712 45696012 45704036 
3308.092 45711104 45719428 45729992 45743536 45760108 45779284 45801488 
3311.467 45827224 45857568 45893584 45936232 45985732 46041172 46101040 
3314.842 46163276 46226072 46287956 46348380 46407108 46464560 46521020 
3318.218 46576676 46631264 46685092 46737596 46789148 46839780 46889680 
3321.593 46938668 46986476 47032372 47075904 47116120 47152756 47185740 
3324.968 47214740 47239416 47259508 47274548 47284448 47289508 47290952 
3328.343 47289840 47287700 47285408 47283452 47281456 47278608 47273732 
3331.719 47265680 47253528 47236312 47213556 47184892 47150096 47109660 
3335.094 47064384 47015348 46963552 46909728 46853508 46793984 46729220 
3338.469 46657200 46577076 46488008 46390520 46285524 46174332 46057460 
3341.844 45935492 45808596 45676724 45540628 45401520 45260616 45119172 
3345.219 44977772 44836532 44694712 44551760 44407208 44261200 44114320 
3348.595 43967532 43821592 43676916 43533568 43391624 43251080 43112592 
3351.970 42976600 42843940 42714796 42588872 42465504 42344180 42224824 
3355.345 42108388 41996544 41891296 41794388 41706664 41627480 41555140 
3358.720 41487072 41421092 41355412 41289380 41223472 41158588 41096192 
3362.096 41037480 40983076 40933812 40889904 40851464 40818704 40791624 
3365.471 40769564 40752024 40737760 40725676 40714760 40704168 40693216 
3368.846 40681860 40669564 40656320 40641584 40624664 40604944 40581844 
3372.221 40555180 40525132 40492108 40456680 40418968 40378676 40334608 
3375.597 40284468 40226200 40157392 40076356 39982108 39874948 39755472 
3378.972 39624520 39482576 39329400 39164232 38986012 38793588 38586512 
3382.347 38364548 38128624 37879704 37619188 37349076 37070904 36787212 
3385.722 36500176 36212316 35926124 35642892 35363728 35088584 34816268 
3389.098 34545704 34275064 34003008 33729008 33453182 33176348 32899692 
3392.473 32624890 32352868 32084692 31820278 31559664 31302232 31048334 
3395.848 30798174 30552960 30313994 30082296 29857716 29639034 29423688 
3399.223 29208412 28989984 28765968 28535130 28297838 28055762 27810852 
3402.599 27565236 27320250 27076956 26835454 26595742 26357746 26121254 
3405.974 25886260 25652412 25419712 25187802 24956718 24726912 24499264 
3409.349 24274852 24054654 23839118 23628204 23420606 23215206 23010534 
3412.724 22806094 22602208 22400056 22201588 22008858 21823394 21645946 
3416.100 21476056 21312670 21153732 20996972 20840648 20683584 20525360 
3419.475 20366290 20207384 20050202 19896128 19746444 19601732 19462198 
3422.850 19327178 19195594 19066540 18938912 18812220 18686360 18561540 
3426.225 18438450 18317364 18198766 18082892 17969124 17857180 17746198 
3429.601 17635622 17525006 17414108 17303064 17191948 17081134 16971278 
3432.976 16862590 16755683 16650626 16547523 16446097 16346071 16246893 
3436.351 16148426 16050324 15952794 15856180 15760688 15666556 15573680 
3439.726 15481615 15390255 15299051 15208244 15118177 15029741 14943448 
3443.102 14859744 14777875 14697013 14615310 14531499 14444655 14354883 
3446.477 14263554 14172895 14084788 14000976 13921867 13847220 13775254 
3449.852 13704324 13633236 13561271 13488326 13414984 13341995 13269634 
3453.227 13197865 13126143 13053715 12980207 12905654 12830327 12755253 
3456.603 12681557 12609953 12541022 12474488 12409738 12346259 12282687 
3459.978 12218545 12153151 12086064 12017420 11947425 11876794 11806481 
3463.353 11737813 11671947 11610379 11553721 11502648 11456720 11415285 
3466.728 11376576 11338551 11299542 11257648 11212220 11162752 11109890 
3470.104 11054962 10999768 10945499 10893513 10844218 10797373 10752265 
3473.479 10707876 10662948 10616904 10569201 10519976 10469568 10418963 
3476.854 10368703 10320010 10273526 10230000 10189769 10152796 10118507 
3480.229 10086187 10054954 10024267 9993684 9963916 9935472 9909166 9885606 
3484.087 9864794 9846051 9828765 9811853 9795180 9778438 9762375 9747668 
3487.944 9735300 9725236 9718053 9713207 9710632 9709954 9711141 9713952 
3491.802 9718290 9723508 9728930 9734047 9738282 9741772 9745296 9750278 
3495.659 9757902 9769661 9786368 9808464 9835985 9868591 9906386 9948728 
3499.516 9995379 10045256 10097276 10149710 10201844 10253137 10304809 
3502.892 10358963 10418929 10487761 10567673 10659416 10761946 10872619 
3506.267 10987908 11104281 11218748 11329538 11436580 11540893 11644651 
3509.642 11750715 11861403 11978385 12102281 12232313 12367020 12504566 
3513.017 12643212 12781596 12919409 13056276 13191888 13325493 13456096 
3516.393 13582637 13704119 13820094 13930797 14036703 14138218 14234930 
3519.768 14325259 14406702 14475930 14529786 14565865 14582928 14581284 
3523.143 14561821 14526428 14476718 14413142 14336081 14244688 14137979 
3526.518 14015177 13876434 13723133 13557613 13383340 13203330 13020800 
3529.894 12837699 12655357 12473841 12292844 12111583 11928864 11743328 
3533.269 11553822 11359434 11159692 10954980 10747103 10539054 10334023 
3536.644 10135736 9946151 9766340 9596020 9433725 9277211 9124746 8974364 
3540.501 8825420 8677238 8529849 8383422 8238530 8095274 7953584 7813086 
3544.359 7672634 7531115 7387755 7242757 7098549 6959035 6828552 6711367 
3548.216 6609655 6522362 6445882 6374290 6301501 6222505 6134887 6039458 
3552.074 5939616 5840267 5746313 5660940 5585618 5519504 5460513 5406227 
3555.931 5353927 5301601 5247838 5191901 5133928 5074520 5015288 4957639 
3559.789 4903416 4853288 4807722 4766415 4728696 4693760 4660970 4629054 
3563.646 4596136 4559135 4513968 4456452 4383280 4294527 4194081 4089879 
3567.503 3992257 3909969 3848589 3808309 3785614 3774182 3767966 3762284 
3571.361 3753995 3742298 3726758 3707408 3684183 3656783 3625107 3589625 
3575.218 3551708 3513392 3476283 3441548 3409421 3379166 3349848 3320999 
3579.076 3292153 3264243 3238304 3215271 3195611 3179623 3166873 3157093 
3582.933 3149918 3144845 3140306 3134332 3123585 3103896 3071893 3025446 
3586.791 2965926 2897541 2827599 2764205 2713455 2679015 2660579 2655945 
3590.648 2660712 2670680 2681182 2688783 2689683 2681715 2663946 2637243 
3594.505 2603908 2568677 2536381 2510819 2494356 2486524 2484392 2483925 
3598.363 2480459 2470929 2454434 2432143 2407220 2383831 2364975 2352681 
3602.220 2347018 2346718 2349816 2354780 2360044 2364441 2366607 2365108 
3606.078 2357545 2341854 2316970 2283827 2246289 2209488 2180049 2161601 
3609.935 2155341 2157772 2163399 2165497 2158904 2141256 2114418 2083621 
3613.792 2055322 2035914 2028324 2032419 2044403 2058485 2068473 2068473 
3617.650 2054723 2026626 1987047 1941614 1898516 1865271 1846969 1845472 
3621.507 1858815 1883008 1913325 1945875 1978759 2011580 2045402 2080891 
3625.365 2116183 2146317 2163000 2155374 2113752 2034516 1924774 1803614 
3629.222 1696425 1625812 1600902 1616599 1657907 1708034 1753043 1784150 
3633.080 1799056 1800420 1794764 1787743 1783618 1783119 1784483 1785048 
3636.937 1783185 1778860 1774202 1771607 1772339 1776132 1781355 1785082 
3640.794 1785514 1782786 1778960 1778028 1783950 1798889 1822779 1852460 
3644.652 1883074 1908300 1922843 1922111 1903408 1866436 1812131 1742830 
3648.509 1662431 1576193 1492101 1419360 1368203 1346831 1358298 1400113 
3652.367 1463807 1538085 1609216 1664992 1696192 1697955 1672276 1627674 
3656.224 1578288 1537886 1516040 1515608 1532865 1560265 1589628 1615036 
3660.082 1632763 1642109 1644403 1641776 1636587 1631066 1626843 1625911 
3663.939 1629869 1640712 1659437 1686313 1719444 1755605 1788941 1811898 
3667.796 1816390 1795762 1746822 1674105 1590227 1515574 1469592 1465071 
3671.654 1502474 1571105 1651588 1721107 1758533 1748153 1685248 1581547 
3675.511 1464971 1368336 1314260 1307779 1337425 1385354 1434253 1473981 
3679.369 1501344 1519764 1534959 1552350 1574165 1599339 1624847 1648195 
3683.226 1669149 1690371 1715252 1746190 1781821 1817122 1843608 1852260 
3687.083 1836488 1795263 1734913 1666821 1604028 1556108 1526048 1511850 
3690.941 1508891 1513679 1523920 1539648 1560630 1586003 1612575 1636787 
3694.798 1654947 1665258 1668384 1667520 1667054 1670813 1680192 1693531 
3698.656 1706936 1715020 1713623 1700317 1676434 1646000 1615136 1590526 
3702.513 1577024 1576758 1589362 1612575 1643007 1677398 1713124 1748419 
3706.371 1782054 1813263 1841312 1864772 1881344 1888033 1880811 1857052 
3710.228 1815226 1757701 1690338 1623051 1566749 1530105 1518234 1529872 
3714.085 1560165 1601002 1644503 1683818 1714321 1734513 1745126 1749051 
3717.943 1749650 1750149 1752112 1755405 1758732 1760129 1758400 1753875 
3721.800 1748086 1744294 1744527 1749650 1758533 1767548 1772705 1770776 
3725.658 1761128 1746955 1734513 1731952 1745358 1776664 1822812 1876186 
3729.515 1926704 1963981 1981023 1975597 1951999 1918217 1885038 1859315 
3733.373 1841645 1826505 1805044 1770543 1721839 1665391 1613041 1576758 
3737.230 1563856 1574397 1603596 1645235 1694728 1750415 1812597 1880778 
3741.087 1950934 2013910 2054690 2055222 2001460 1890329 1740102 1587633 
3744.945 1477605 1438176 1470157 1552483 1655712 1752611 1822113 1852759 
3748.802 1842743 1799521 1735312 1664360 1597643 1541610 1500546 1477970 
3752.660 1477638 1501510 1547928 1611278 1682122 1750216 1807274 1847468 
3756.517 1869065 1874056 1866236 1849731 1827337 1801385 1774635 1751047 
3760.375 1736642 1736875 1753942 1785847 1825906 1864539 1892226 1903175 
3764.232 1896752 1878116 1855987 1840015 1835356 1841911 1853658 1862609 
3768.089 1861943 1848134 1822579 1790671 1759996 1737308 1725997 1726463 
3771.947 1736243 1752245 1771707 1792634 1814594 1837453 1861744 1887500 
3775.804 1913824 1938819 1959155 1971370 1971736 1958922 1934259 1902809 
3779.662 1872292 1850729 1842843 1848966 1864838 1883806 1898449 1903874 
3783.519 1898982 1886269 1870961 1858582 1852792 1854390 1861311 1870529 
3787.376 1879247 1885703 1889430 1891294 1891394 1890329 1888299 1886369 
3791.234 1886801 1891993 1904206 1923442 1947272 1970205 1985915 1988845 
3795.091 1977428 1955061 1930631 1915455 1918717 1943811 1986248 2035182 
3798.949 2075397 2090846 2070337 2010082 1918983 1816690 1729856 1680924 
3802.806 1678829 1718346 1783152 1853525 1909298 1935524 1925273 1882209 
3806.664 1819951 1758699 1718113 1708234 1728592 1769944 1820882 1871693 
3810.521 1917219 1957590 1996334 2036646 2079193 2119779 2150080 2160202 
3814.378 2141522 2092077 2019702 1942513 1882475 1856386 1870196 1916953 
3818.236 1980723 2041407 2080358 2083221 2044702 1970937 1880811 1799621 
3822.093 1748319 1736975 1762292 1811998 1870096 1922045 1958522 1975930 
3825.951 1977162 1969839 1963382 1965046 1977295 1997599 2020168 2038511 
3829.808 2047865 2047000 2038044 2026160 2017505 2016873 2026826 2046933 
3833.666 2074332 2104063 2131066 2149247 2152877 2138092 2103597 2051960 
3837.523 1990210 1928701 1878482 1847235 1837586 1846969 1868798 1895321 
3841.380 1919083 1935823 1943179 1942147 1935823 1928568 1924774 1928235 
3845.238 1941248 1964247 1996168 2034516 2077062 2121610 2167362 2214517 
3849.095 2263209 2312673 2359244 2395226 2408719 2385564 2313273 2188041 
3852.953 2021100 1842743 1689706 1590692 1555044 1574165 1629869 1703843 
3856.810 1783285 1860479 1931696 1996201 2053525 2102732 2142854 2172490 
3860.667 2190939 2198964 2197799 2188607 2171225 2145518 2111921 2073400 
3864.525 2037013 2012512 2009283 2031952 2077328 2134896 2188541 2222310 
3868.382 2223143 2187508 2122376 2047066 1984418 1950601 1949868 1973999 
3872.240 2009117 2039875 2057153 2059051 2051094 2043737 2046833 2066342 
3876.097 2101899 2147715 2194335 2232634 2254982 2257014 2238563 2204726 
3879.955 2164898 2130334 2111555 2114751 2139357 2178551 2220578 2253117 
3883.812 2264208 2246889 2202261 2140956 2080624 2039343 2029889 2054157 
3887.669 2103564 2163366 2217814 2253084 2260245 2237297 2189440 2128736 
3891.527 2068872 2022698 1998065 1996234 2014609 2047499 2089547 2135528 
3895.384 2181115 2223475 2259545 2286891 2303813 2309375 2304246 2290355 
3899.242 2271103 2249887 2229104 2209455 2189706 2167395 2139990 2106927 
3903.099 2070170 2034383 2005422 1988978 1988046 2002759 2029656 2063512 
3906.957 2099435 2133197 2162500 2186709 2206291 2221877 2234466 2244524 
3910.814 2252518 2259112 2265741 2273867 2284560 2298283 2313839 2328429 
3914.671 2338690 2341022 2333460 2315938 2290689 2261844 2234333 2212152 
3918.529 2197899 2192670 2196433 2208189 2226406 2249420 2274600 2299116 
3922.386 2319669 2333127 2337690 2333060 2321567 2306577 2292954 2284360 
3926.244 2283294 2289323 2300848 2315005 2328896 2340189 2347851 2351216 
3930.101 2350083 2344620 2334959 2321334 2304878 2287591 2271902 2260311 
3933.958 2255016 2256414 2263809 2275233 2288423 2301447 2313239 2323999 
3937.816 2334459 2345652 2357778 2370205 2381332 2389229 2392127 2389395 
3941.673 2381865 2371771 2362009 2355580 2354280 2358711 2367840 2379467 
3945.531 2391227 2400490 2405687 2406220 2402089 2394426 2384631 2374269 
3949.388 2364908 2357778 2353148 2351582 2352881 2356846 2362909 2370705 
3953.246 2379333 2387996 2395625 2401389 2404788 2406087 2405954 2405954 
3957.103 2407387 2411784 2419548 2430543 2443638 2457167 2469396 2479127 
3960.960 2485591 2489257 2491057 2492223 2493589 2496189 2500021 2504720 
3964.818 2509385 2513618 2516784 2518684 2519617 2520017 2520616 2522016 
3968.675 2524882 2529482 2535381 2542246 2549179 2555478 2560144 2563044 
3972.533 2563910 2563544 2562577 2562244 2563310 2566510 2571776 2578443 
3976.390 2585442 2591275 2594709 2595109 2592342 2587009 2580443 2573643 
3980.248 2567843 2563510 2560477 2558811 2558178 2558577 2559977 2563044 
3984.105 2567543 2573443 2580109 2586376 2591075 2593509 2593309 2590742 
3987.962 2586509 2581342 2575609 2569876 2564010 2558311 2553111 2549012 
3991.820 2546879 2547046 2549712 2554245 2559777 2565210 2569777 2573176 
3995.677 2575676 2577843 2580109 2582842 2585709 2588209 2590009 2590675 
3999.535 2590275 2589075 2587609 
##END=
