
##TITLE=L1760A_5
##JCAMP-DX=5.01  $$ Nicolet v. 1
##DATATYPE=INFRARED SPECTRUM
##ORIGIN=UniL
##OWNER=Nicolet
##LONGDATE=2011/08/18
##TIME=15:00:19
##SPECTROMETER/DATA SYSTEM=Nicolet iS5
##DATA PROCESSING=
Ratio against background
%Transmittance->Absorbance
Truncated
ElementMultiply or ElementDivide
##COMMENTS=
Number of sample scans: 32
Collection length: 51.20 sec
Sample gain: 2.0
Background collected on: Jeu Aout 18 14:58:43 2011 (GMT+02:00);
Number of background scans: 32
Background gain: 2.0
Sample spacing:  1.000
Number of scan points: 12415
Resolution points: 8192
Number of FFT points: 65536
Apodization: N-B fort;
Phase correction: Mertz;
Laser frequency: 15798.0 cm-1
Number of rejected sample scans: 0
Number of rejected background scans: 0
Bench serial number: ASB1000141;
##RESOLUTION=4.000
##XUNITS=1/CM
##YUNITS=ABSORBANCE
##FIRSTX=649.893372
##LASTX=4000.122314
##FIRSTY=0.080025
##MAXX=4000.122314
##MINX=649.893372
##MAXY=0.179034
##MINY=0.001266
##XFACTOR=1.000000
##YFACTOR=1.000000E-009
##NPOINTS=6950
##DELTAX=0.482117
##ZPD=6100
##XYDATA=(X++(Y..Y))
649.893 80025024 79203576 78454216 77787632 77210712 76730112 76349256 
653.268 76065800 75870360 75747376 75678744 75650152 75652520 75683880 
656.643 75748048 75850392 75993088 76175240 76391328 76635192 76900432 
660.018 77184192 77485568 77805384 78144672 78502528 78876808 79264344 
663.393 79660416 80059640 80453648 80830536 81170720 81450936 81645072 
666.767 81738176 81741888 81707576 81713976 81820808 82043808 82350456 
670.142 82688904 83006440 83264808 83447952 83557504 83611112 83630920 
673.517 83635504 83630480 83609432 83558424 83465696 83327624 83149624 
676.892 82942272 82714880 82471632 82210976 81929232 81625560 81303480 
680.267 80970768 80634976 80298392 79958096 79607360 79240952 78860600 
683.642 78475176 78097432 77739832 77408704 77102032 76812984 76535552 
687.016 76268992 76020520 75802808 75628544 75506696 75440432 75428640 
690.391 75471216 75573368 75748560 76018120 76406144 76936064 77625512 
693.766 78482520 79505408 80681128 81987936 83392976 84854992 86329096 
697.141 87763528 89108152 90320976 91369536 92239584 92935848 93480384 
700.516 93905728 94249104 94545760 94820768 95086256 95338576 95559256 
703.890 95717672 95777352 95708904 95495960 95144544 94681848 94153624 
707.265 93611192 93096752 92639888 92252248 91933240 91679088 91488760 
710.640 91366888 91321664 91358136 91473176 91653552 91879320 92129136 
714.015 92385432 92638696 92885744 93126192 93359176 93581680 93790856 
717.390 93989272 94188024 94407992 94673640 95008312 95426568 95930520 
720.765 96512256 97159376 97861296 98611664 99407784 100247184 101122328 
724.139 102020320 102925128 103822024 104704368 105574184 106439488 
727.032 107306760 108175480 109034864 109868896 110662808 111413208 
729.925 112131456 112843576 113582736 114378992 115258488 116241992 
732.817 117350136 118611264 120060720 121735296 123665344 125862304 
735.710 128313912 130984424 133827000 136791392 139831488 142911280 
738.603 145998256 149061152 152075136 155030592 157948752 160882272 
741.496 163904656 167064848 170333856 173544384 176368400 178368784 
744.388 179033728 177939264 174868656 169868768 163255344 155524560 
747.281 147275648 139051936 131293776 124317408 118281880 113236928 
750.174 109148936 105936232 103492856 101708472 100490576 99768352 99507648 
753.548 99713152 100420296 101672376 103486128 105815768 108525360 111395440 
756.923 114118416 116370704 117869848 118410064 117917832 116449720 
759.816 114181896 111354288 108237464 105095232 102131816 99498064 97283512 
763.191 95517840 94185760 93234560 92592720 92174688 91899424 91704664 
766.566 91546360 91403928 91274152 91161984 91072640 91006120 90955904 
769.940 90912192 90866808 90815968 90762432 90712856 90675984 90657944 
773.315 90661776 90687216 90732616 90794688 90868208 90943568 91002200 
776.690 91013888 90938872 90726576 90323504 89682568 88765280 87550424 
780.065 86035616 84236912 82186360 79928424 77520696 75024832 72503904 
783.440 70018712 67616944 65332828 63186572 61186124 59332780 57624904 
786.815 56059596 54631784 53332484 52149320 51066440 50068164 49143332 
790.189 48284596 47489172 46755268 46079008 45453388 44869964 44320384 
793.564 43800700 43311512 42857108 42441832 42067828 41733068 41433048 
796.939 41162156 40915972 40690960 40482464 40281052 40072140 39836124 
800.314 39553200 39211340 38809964 38361940 37889576 37420216 36976584 
803.689 36571680 36209004 35884344 35590384 35320380 35069688 34835260 
807.063 34613232 34398812 34186256 33971188 33752756 33534318 33321400 
810.438 33119130 32928608 32746460 32566066 32380536 32186628 31985454 
813.813 31782348 31583644 31393188 31211292 31035592 30862240 30689774 
817.188 30519012 30353044 30195022 30045368 29902014 29760514 29617642 
820.563 29472514 29328106 29188742 29058354 28937920 28825060 28715132 
823.938 28605056 28494652 28387744 28290660 28208338 28142650 28091250 
827.312 28048940 28009708 27969988 27928326 27885148 27839856 27789624 
830.687 27729118 27652908 27558492 27447966 27328930 27211692 27106122 
834.062 27018384 26949632 26897138 26857166 26827524 26808174 26800456 
837.437 26805354 26820934 26843454 26867704 26890336 26911734 26936058 
840.812 26969092 27016128 27078472 27154264 27238574 27327238 27419166 
844.186 27517330 27627590 27755890 27906488 28080398 28276478 28492882 
847.561 28729114 28986408 29266430 29570218 29896120 30240312 30597684 
850.936 30964100 31337380 31717076 32103814 32496322 32890934 33281292 
854.311 33659760 34020672 34361476 34683284 34989376 35282748 35564020 
857.686 35830720 36077896 36299876 36493508 36657980 36795540 36909844 
861.060 37005016 37085484 37155716 37222492 37294808 37384068 37503544 
864.435 37665188 37878912 38152684 38492476 38905048 39399704 39987336 
867.810 40681424 41495748 42442264 43532104 44775440 46181336 47757788 
871.185 49508324 51426340 53487084 55641864 57816200 59901896 61770164 
874.560 63285380 64310052 64738132 64506008 63602812 62073376 60011260 
877.935 57549276 54830604 52002364 49199064 46521684 44042952 41804568 
881.309 39820580 38088292 36594608 35323148 34254624 33369198 32647464 
884.684 32068674 31614076 31268544 31020254 30861420 30786864 30792022 
888.059 30872628 31024204 31244084 31532158 31892482 32332092 32859486 
891.434 33483532 34212680 35054316 36017912 37115944 38363028 39775948 
894.809 41367660 43139744 45074436 47126980 49223668 51252972 53080168 
898.183 54561560 55552344 55943384 55674404 54747080 53225880 51230156 
901.558 48920580 46461204 44010828 41702028 39621652 37821284 36318428 
904.933 35106400 34165644 33469896 32993060 32707982 32590174 32619246 
908.308 32779724 33064026 33472114 34010280 34686440 35506340 36467668 
911.683 37556324 38743232 39979888 41204160 42337788 43292040 43985092 
915.058 44345040 44325520 43915872 43142600 42068524 40776408 39365384 
918.432 37930940 36549548 35281744 34164392 33214762 32436512 31822454 
921.807 31357504 31019542 30783272 30622038 30510658 30430334 30368820 
925.182 30319998 30282090 30254166 30233846 30217294 30199142 30174848 
928.557 30142100 30100656 30051688 29997046 29938504 29877522 29816936 
931.932 29761508 29718148 29694234 29696044 29726558 29784326 29864282 
935.306 29960336 30067632 30183620 30308594 30444088 30591212 30749270 
938.681 30915996 31088196 31263846 31442844 31626798 31817998 32018378 
942.056 32227840 32444760 32666720 32891542 33118736 33348444 33582072 
945.431 33820120 34062960 34310416 34563000 34822588 35092424 35376092 
948.806 35676128 35992428 36321708 36657872 36994156 37324128 37643324 
952.181 37949672 38243096 38524920 38797392 39064236 39330992 39604808 
955.555 39895396 40212132 40563548 40955476 41390436 41868308 42387944 
958.930 42948728 43551736 44199748 44896416 45645548 46450324 47312824 
962.305 48235128 49219400 50268064 51384048 52570436 53829568 55163768 
965.680 56574652 58063368 59629920 61271692 62982016 64746828 66544868 
969.055 68347552 70117760 71816552 73404128 74842800 76102520 77161240 
972.429 78005392 78630816 79041536 79249344 79272096 79135352 78870136 
975.804 78510032 78092160 77653448 77228288 76851856 76557600 76376392 
979.179 76338120 76466592 76777160 77276496 77961656 78824008 79853192 
982.554 81041840 82387784 83891984 85552904 87357152 89267400 91220104 
985.929 93115272 94823240 96207232 97126352 97465944 97158504 96188664 
989.304 94602440 92496776 90017416 87331432 84605144 82000624 79644576 
992.678 77627136 76005208 74799536 74005984 73602032 73556696 73834240 
996.053 74399336 75222256 76277528 77544976 79009776 80658472 82476280 
999.428 84444976 86535896 88707312 90904440 93051728 95061472 96842176 
1002.803 98299472 99357720 99968136 100116520 99828848 99170072 98242176 
1006.178 97162648 96059304 95057344 94256064 93734776 93545768 93715488 
1009.552 94253144 95155176 96411760 98009840 99936432 102181440 104736464 
1012.927 107595536 110755544 114211640 117955136 121966336 126202448 
1015.820 130592168 135026528 139347712 143371760 146893392 149710016 
1018.713 151668880 152682832 152758288 151995296 150587392 148796672 
1021.605 146896800 145166000 143835024 143054976 142907184 143393984 
1024.498 144459424 146000896 147894752 150013056 152220944 154394080 
1027.391 156417504 158180176 159592144 160585264 161120656 161196448 
1030.284 160845648 160132624 159137296 157952032 156669904 155369552 
1033.177 154116064 152948704 151874288 150865920 149863296 148787248 
1036.070 147543424 146045424 144229808 142059968 139532992 136674048 
1038.963 133531792 130166832 126646864 123045256 119429880 115864168 
1041.856 112405208 109096584 105975344 103074032 100421512 98050488 95996104 
1045.232 94290608 92963592 92034592 91510768 91387616 91649752 92275640 
1048.607 93237560 94505720 96049840 97836352 99832264 102005272 104322960 
1051.982 106757384 109283792 111878312 114516424 117166408 119782616 
1054.875 122307488 124665264 126767024 128524736 129850936 130673232 
1057.768 130945664 130651296 129811808 128486160 126776520 124815848 
1060.661 122751488 120744928 118942112 117464984 116413072 115850616 
1063.554 115812112 116303568 117304560 118768376 120621472 122775000 
1066.448 125120000 127536208 129911232 132134424 134110808 135768272 
1069.341 137049040 137913216 138336592 138307040 137825152 136903376 
1072.234 135564944 133840888 131768288 129393336 126771104 123970184 
1075.127 121079952 118200096 115441624 112920400 110736864 108978736 
1078.020 107713224 106979016 106788392 107119768 107917888 109084912 
1080.913 110483600 111955792 113318952 114400976 115068640 115235936 
1083.806 114888888 114081752 112933768 111601896 110260080 109089048 
1086.699 108239376 107827456 107926464 108556584 109688648 111245200 
1089.592 113118856 115172512 117254024 119222072 120939856 122291720 
1092.485 123193968 123587464 123445064 122770344 121596080 119977768 
1095.378 117984344 115693560 113177200 110496160 107704008 104842704 
1098.271 101949920 99062720 96215088 93439872 90767448 88221792 85823768 
1101.646 83592040 81542752 79692936 78059320 76656576 75497984 74595104 
1105.022 73956600 73590384 73502816 73698256 74178696 74942248 75982712 
1108.397 77288096 78841928 80622328 82599648 84738584 86994520 89309200 
1111.772 91616888 93838192 95884232 97669992 99114120 100150616 100739376 
1115.147 100864032 100535592 99786528 98669424 97249608 95595216 93777824 
1118.523 91860160 89890896 87906824 85929512 83970896 82039160 80142280 
1121.898 78292336 76506896 74806984 73217336 71765064 70476424 69377832 
1125.273 68494280 67845000 67444656 67300208 67411368 67771024 68366472 
1128.648 69181256 70193496 71376592 72698736 74118096 75585632 77045840 
1132.024 78435408 79695128 80775024 81640472 82282048 82716528 82987832 
1135.399 83156168 83293904 83473800 83752048 84164952 84719296 85392544 
1138.774 86133304 86869168 87522008 88008736 88256416 88210824 87832432 
1142.149 87101856 86016432 84587992 82841296 80812856 78551600 76112384 
1145.525 73554504 70939304 68320640 65747656 63263768 60901868 58688700 
1148.900 56643196 54774556 53084848 51569744 50221308 49030108 47987456 
1152.275 47085912 46318664 45678968 45160276 44755792 44460100 44269600 
1155.650 44182656 44199344 44320420 44546292 44877164 45313024 45854916 
1159.026 46504936 47265976 48140464 49128232 50224952 51420036 52697756 
1162.401 54034440 55400356 56761748 58077572 59303004 60393616 61302792 
1165.776 61988984 62419984 62573032 62439876 62025980 61349960 60438740 
1169.151 59325220 58045988 56636480 55132164 53568308 51975808 50383920 
1172.527 48817496 47295460 45833776 44445564 43141612 41932348 40826712 
1175.902 39830456 38946396 38173664 37508748 36947108 36484856 36118652 
1179.277 35845476 35661992 35562800 35540036 35584772 35686920 35836480 
1182.652 36024320 36240880 36476028 36719744 36962008 37194228 37411476 
1186.028 37612216 37798476 37973756 38141612 38303672 38458916 38604508 
1189.403 38736744 38852756 38951036 39031468 39095524 39145704 39186064 
1192.778 39223052 39267152 39331572 39433408 39591196 39821052 40136644 
1196.153 40546232 41052412 41651624 42333404 43080576 43865944 44652808 
1199.529 45398688 46053036 46566788 46898948 47019076 46915556 46595928 
1202.904 46086708 45427452 44666620 43857916 43050648 42289540 41611948 
1206.279 41042796 40597124 40278908 40083876 40001688 40018656 40121160 
1209.654 40294140 40522404 40790860 41082788 41381872 41674856 41951252 
1213.030 42206164 42440516 42659456 42870788 43083100 43304740 43542320 
1216.405 43800920 44084028 44392456 44724644 45075096 45435988 45797104 
1219.780 46147652 46479344 46785972 47065160 47317036 47543772 47748248 
1223.155 47933656 48103856 48263752 48418852 48575424 48738720 48911200 
1226.531 49092872 49281196 49473012 49666588 49864524 50073664 50305752 
1229.906 50574328 50893736 51277132 51734168 52271432 52891912 53594508 
1233.281 54373716 55219448 56117844 57050412 57996452 58934996 59843632 
1236.656 60700440 61483772 62168716 62728740 63135036 63355656 63362204 
1240.031 63130780 62645636 61902120 60906672 59676792 58237360 56622548 
1243.407 54873724 53034976 51156120 49285908 47466996 45737428 44125724 
1246.782 42651520 41328772 40165608 39164776 38324444 37637004 37090936 
1250.157 36670672 36360400 36145372 36012156 35950532 35951212 36004812 
1253.532 36102628 36236628 36400500 36591184 36808960 37055964 37334560 
1256.908 37644156 37978856 38327416 38670640 38983836 39239520 39406376 
1260.283 39455724 39364292 39116444 38709036 38151924 37469376 36694396 
1263.658 35866960 35028168 34211888 33445024 32745708 32123436 31583146 
1267.033 31126496 30752506 30458090 30237400 30082758 29985294 29937474 
1270.409 29934350 29973968 30056766 30183372 30353718 30566220 30817882 
1273.784 31105956 31429380 31788978 32187410 32627712 33112586 33643828 
1277.159 34222680 34849768 35525616 36249992 37020276 37829528 38666876 
1280.534 39515672 40356132 41167984 41930448 42625456 43238596 43757056 
1283.910 44170696 44471440 44652516 44710244 44644068 44457308 44156352 
1287.285 43750936 43252764 42674660 42032056 41343716 40630268 39917372 
1290.660 39231684 38596724 38031688 37546280 37139400 36799292 36504680 
1294.035 36229640 35943544 35618900 35234740 34779476 34254836 33675228 
1297.411 33067066 32461434 31890736 31383004 30956344 30620082 30375286 
1300.786 30218182 30141924 30138442 30199212 30313462 30468362 30650340 
1304.161 30844490 31037158 31217026 31373530 31497136 31578194 31606380 
1307.536 31573060 31473446 31309138 31088978 30829014 30550222 30272958 
1310.912 30016750 29797632 29627114 29515104 29469748 29496874 29600794 
1314.287 29782194 30038728 30365372 30757094 31210296 31723778 32299150 
1317.662 32938760 33644544 34416496 35251880 36145804 37092412 38083444 
1321.037 39107164 40146928 41177964 42165596 43070732 43850404 44465896 
1324.413 44892780 45123804 45173692 45075024 44875840 44630044 44386580 
1327.788 44188376 44063488 44024324 44069576 44186212 44355752 44557636 
1331.163 44776324 45003576 45239952 45493164 45776084 46103584 46488160 
1334.538 46939144 47460788 48051740 48705208 49407368 50139708 50876228 
1337.914 51585788 52236228 52794168 53232132 53532548 53688268 53703416 
1341.289 53589372 53362380 53039580 52638920 52180292 51685012 51175428 
1344.664 50673884 50196984 49755160 49352164 48987524 48660808 48376480 
1348.039 48145200 47984940 47918340 47968696 48159748 48512912 49045984 
1351.415 49775260 50712832 51865504 53232884 54805076 56561780 58467744 
1354.790 60476212 62527688 64548448 66460916 68182688 69630544 70733552 
1358.165 71431072 71680992 71466064 70794192 69700096 68236880 66480800 
1361.540 64523844 62465280 60416312 58480068 56736296 55233560 53978044 
1364.916 52940496 52064628 51285408 50541164 49781984 48981032 48134208 
1368.291 47259436 46388304 45559396 44810636 44170440 43658156 43281864 
1371.666 43040000 42923196 42918296 43013036 43196908 43463576 43808804 
1375.041 44227116 44709364 45242488 45809808 46394832 46983672 47565508 
1378.417 48133652 48683972 49212572 49714584 50183780 50613308 50998764 
1381.792 51339892 51642096 51914416 52167852 52411860 52651860 52890044 
1385.167 53128468 53372760 53635556 53936324 54295988 54733172 55255124 
1388.542 55856296 56520376 57224596 57943632 58650012 59317852 59920192 
1391.917 60426900 60809432 61039740 61097896 60979604 60702040 60302088 
1395.293 59822300 59299356 58750568 58173216 57553664 56881956 56164300 
1398.668 55431680 54732912 54120116 53633416 53286592 53069536 52955132 
1402.043 52911976 52910364 52925560 52940384 52942892 52925108 52884092 
1405.418 52819724 52735504 52635552 52524104 52403452 52274348 52137996 
1408.794 51998964 51866472 51756416 51687332 51675796 51732416 51858108 
1412.169 52044980 52279952 52549944 52845284 53161048 53496268 53851400 
1415.544 54225404 54616904 55024704 55451668 55908636 56415812 57000684 
1418.919 57686236 58484544 59388052 60373472 61411096 62472744 63537448 
1422.295 64586512 65605432 66582948 67509480 68381872 69202320 69976544 
1425.670 70707392 71389592 72005048 72527008 72922152 73159680 73221488 
1429.045 73106240 72829432 72415848 71895168 71296384 70646256 69973856 
1432.420 69306896 68665480 68058608 67476816 66893868 66273136 65585932 
1435.796 64830260 64047248 63311560 62701216 62262284 61991352 61847332 
1439.171 61772460 61717112 61645616 61543284 61412584 61266620 61120704 
1442.546 60985060 60864244 60758400 60666412 60588048 60522640 60468140 
1445.921 60419244 60369972 60318876 60274564 60257512 60297216 60424728 
1449.297 60661768 61018348 61493620 62080448 62768252 63542700 64385556 
1452.672 65267480 66145212 66964568 67649928 68107752 68235680 67934728 
1456.047 67156968 65950012 64479640 62964356 61577880 60397272 59411304 
1459.422 58571780 57832744 57168280 56568760 56030644 55545040 55095188 
1462.798 54660868 54229424 53806544 53423044 53125100 52960896 52960108 
1466.173 53125960 53440732 53875180 54398840 54978816 55581720 56172484 
1469.548 56707680 57142580 57435500 57554988 57494576 57281224 56976280 
1472.923 56650748 56363936 56145860 55997884 55907956 55865072 55865792 
1476.299 55912856 56009308 56151480 56326060 56513092 56692540 56846680 
1479.674 56965588 57045916 57090012 57103200 57092012 57063484 57023432 
1483.049 56974920 56917308 56844112 56742680 56594504 56381288 56087684 
1486.424 55705856 55235104 54678752 54037104 53304724 52472168 51535384 
1489.800 50508816 49431056 48358852 47346260 46429344 45611800 44869084 
1493.175 44157636 43429708 42644796 41777316 40821832 39791528 38711900 
1496.550 37609036 36502012 35401184 34314612 33253000 32232694 31271606 
1499.925 30386054 29585542 28871836 28243238 27696804 27229154 26835806 
1503.301 26506168 26219966 25943520 25634452 25253748 24784826 24255476 
1506.676 23737654 23315466 23037156 22898014 22857220 22869342 22899762 
1510.051 22931862 22964138 23002566 23053716 23120598 23201610 23292810 
1513.426 23391896 23498596 23614628 23740700 23875594 24016274 24162462 
1516.802 24318618 24495162 24703904 24951770 25236050 25543602 25853942 
1520.177 26149086 26422320 26686882 26968844 27295552 27676780 28100122 
1523.552 28538492 28962710 29355156 29713144 30052150 30397424 30776264 
1526.927 31204350 31682968 32203648 32756608 33337570 33948508 34594752 
1530.302 35279548 35999592 36747616 37515248 38300052 39111116 39968848 
1533.678 40897368 41908152 42996172 44140468 45316812 46500992 47676136 
1537.053 48836408 49978412 51104308 52219004 53327016 54427944 55514164 
1540.428 56578308 57611772 58611788 59582260 60526452 61444188 62328184 
1543.803 63166076 63943044 64648144 65279068 65840072 66334552 66755400 
1547.179 67076652 67254752 67240904 66993600 66502312 65796040 64937368 
1550.554 63990192 62987188 61917712 60734508 59382164 57831908 56108912 
1553.929 54296700 52515392 50863860 49386764 48057440 46790216 45459016 
1557.304 43925952 42091700 39952028 37657348 35475420 33653100 32288618 
1560.680 31334818 30674910 30192962 29801678 29439074 29067954 28672372 
1564.055 28257558 27846144 27469606 27156206 26916844 26742696 26607682 
1567.430 26480390 26332186 26147116 25927726 25693858 25474486 25294066 
1570.805 25165752 25088830 25054150 25048288 25056044 25061238 25043970 
1574.181 24983530 24863834 24682336 24459336 24236802 24066108 23982096 
1577.556 23992426 24080992 24222332 24392250 24574854 24764444 24962158 
1580.931 25171650 25395788 25634838 25887244 26151586 26429328 26723562 
1584.306 27038166 27375512 27734770 28113166 28508344 28920918 29355296 
1587.682 29819068 30319856 30862916 31450004 32079912 32750640 33460982 
1591.057 34210060 34996488 35815212 36657264 37509504 38356836 39186824 
1594.432 39988612 40753808 41474312 42140588 42741308 43264808 43701172 
1597.807 44044016 44290880 44441304 44495812 44453344 44311940 44070380 
1601.183 43730524 43301044 42797648 42244144 41669640 41101728 40564820 
1604.558 40075776 39643580 39272556 38965604 38726568 38559640 38467060 
1607.933 38447148 38492696 38593972 38742832 38935488 39174644 39466140 
1611.308 39814988 40220492 40674584 41161904 41665080 42166000 42647172 
1614.684 43094920 43498372 43855424 44175464 44485648 44824664 45225428 
1618.059 45708636 46273032 46900164 47560112 48220836 48856652 49449100 
1621.434 49994660 50503828 50998728 51503744 52036948 52605888 53206740 
1624.809 53829568 54465352 55108164 55754756 56402832 57051844 57704288 
1628.185 58369344 59062792 59807504 60625952 61532824 62530860 63608796 
1631.560 64747864 65922708 67112608 68307344 69506560 70723024 71978696 
1634.935 73302208 74715824 76232736 77857544 79580216 81389104 83269616 
1638.310 85204712 87172192 89145904 91104432 93030040 94915504 96763336 
1641.686 98575952 100347072 102056488 103663952 105119880 106376408 
1644.579 107396064 108166384 108705216 109064640 109315712 109536400 
1647.472 109799992 110154768 110626176 111214512 111898680 112630864 
1650.365 113330944 113894744 114184872 114072624 113513712 112644992 
1653.258 111776600 111205312 111049016 111216520 111532840 111830736 
1656.151 112004072 112006728 111832400 111501696 111040112 110465184 
1659.044 109777512 108963536 108003576 106881024 105588512 104131520 
1661.937 102529040 100815344 99040576 97262416 95537160 93902560 92365272 
1665.312 90897368 89437296 87901992 86196136 84235064 81964288 79378088 
1668.688 76528320 73514200 70460256 67482424 64666180 62056900 59660332 
1672.063 57450176 55373180 53359424 51337056 49258964 47133404 45043964 
1675.438 43132316 41534684 40328316 39504824 38998084 38723668 38616568 
1678.813 38648004 38819676 39148500 39645900 40302720 41094080 41996140 
1682.188 43006600 44163800 45548464 47256480 49331044 51728496 54334400 
1685.564 57030044 59754540 62506488 65316848 68211368 71186720 74207072 
1688.939 77196776 80068088 82748272 85191688 87390784 89363704 91138240 
1692.314 92734880 94157816 95390336 96403440 97166880 97672392 97952664 
1695.689 98089776 98183104 98287928 98384784 98371480 98096760 97375464 
1699.065 96050664 94078392 91613168 88997152 86584016 84563720 82900040 
1702.440 81428560 79952048 78316536 76432768 74282792 71914128 69420128 
1705.815 66909060 64462848 62123488 59894940 57757836 55681824 53631396 
1709.190 51572208 49475016 47325384 45127480 42906992 40702460 38547980 
1712.566 36468608 34469976 32542244 30672776 28857812 27108450 25448098 
1715.941 23900344 22475976 21166428 19956938 18839764 17827006 16947574 
1719.316 16227735 15673598 15263392 14953668 14691632 14434687 14160366 
1722.691 13874142 13602397 13378625 13222664 13130993 13078232 13031760 
1726.067 12967575 12876948 12766923 12649250 12529563 12400159 12243832 
1729.442 12042798 11791262 11499144 11186380 10868304 10543841 10188683 
1732.817 9765019 9241670 8626469 7977511 7382969 6910183 6573895 6342820 
1736.675 6163351 5986040 5777170 5528497 5254176 4983983 4744976 4548554 
1740.532 4386828 4242762 4102490 3964235 3837390 3734912 3662797 3615418 
1744.389 3576997 3530395 3467633 3392857 3321100 3267815 3240941 3234132 
1748.247 3230460 3209463 3159730 3084240 2999288 2924627 2872758 2843041 
1752.104 2824798 2805622 2779777 2751100 2728993 2721558 2729727 2745365 
1755.962 2754601 2746532 2720157 2687116 2664513 2666813 2697018 2745165 
1759.819 2793316 2824064 2830167 2818061 2805155 2809790 2841273 2894906 
1763.677 2956318 3009931 3047935 3071893 3090414 3112739 3143109 3177253 
1767.534 3205391 3217775 3211599 3192974 3172814 3159230 3151753 3139305 
1771.391 3105498 3039193 2942206 2832402 2733128 2662179 2621576 2599742 
1775.249 2578309 2542580 2487624 2419748 2351715 2295352 2254283 2221910 
1779.106 2184844 2131299 2058086 1973301 1892592 1828768 1786512 1758965 
1782.964 1732950 1695493 1642142 1578521 1518135 1473715 1450210 1442830 
1786.821 1440735 1433754 1418462 1399182 1385354 1384623 1397720 1416169 
1790.678 1425510 1414041 1378606 1330179 1286776 1265508 1271921 1299404 
1794.536 1333436 1360890 1375648 1380268 1382894 1391138 1407426 1427039 
1798.393 1441068 1441699 1428003 1407360 1392401 1392966 1411614 1441101 
1802.251 1469991 1487945 1492400 1488709 1487113 1496390 1518467 1547695 
1806.108 1573832 1588331 1588531 1579452 1570041 1568345 1576326 1588231 
1809.966 1593885 1585438 1561694 1529506 1499548 1480364 1473648 1473648 
1813.823 1470889 1458056 1435549 1411515 1398185 1405531 1435283 1479599 
1817.680 1525782 1561295 1581248 1589728 1597077 1612542 1639780 1674239 
1821.538 1706870 1728858 1736543 1733116 1726796 1725332 1731386 1741632 
1825.395 1748785 1747122 1736177 1720874 1707435 1699818 1695394 1686645 
1829.253 1664692 1626144 1576625 1529772 1499947 1494228 1509556 1534095 
1833.110 1553481 1556673 1541743 1515608 1490072 1475045 1473283 1479799 
1836.968 1485418 1482658 1470989 1456859 1450975 1460882 1487679 1524053 
1840.825 1558535 1581215 1587101 1578188 1561395 1544237 1530105 1517503 
1844.682 1502175 1482392 1461746 1448016 1448182 1464838 1493198 1523787 
1848.540 1545800 1553115 1546897 1535359 1528442 1532399 1546731 1564388 
1852.397 1577457 1580749 1576625 1572402 1577191 1595548 1624282 1653616 
1856.255 1672742 1675137 1662198 1642408 1626211 1620490 1624614 1631399 
1860.112 1631599 1620723 1601234 1582445 1574796 1584440 1609216 1640446 
1863.969 1666755 1680292 1680991 1674970 1670147 1671577 1676766 1677099 
1867.827 1663162 1630900 1585671 1540912 1511584 1505167 1519232 1542508 
1871.684 1562193 1570108 1565951 1555942 1549457 1551951 1561728 1571105 
1875.542 1570872 1556141 1530105 1502773 1485185 1484786 1500812 1524951 
1879.399 1546066 1556773 1556307 1551186 1549358 1555942 1569343 1583010 
1883.257 1588298 1581314 1565186 1548493 1541310 1548659 1567780 1589362 
1887.114 1603263 1603064 1590426 1573699 1563889 1567647 1584340 1605757 
1890.971 1621920 1626909 1621588 1612043 1606722 1610580 1622586 1636920 
1894.829 1647031 1650424 1650490 1655147 1671378 1700782 1738106 1773437 
1898.686 1797226 1805643 1802649 1797625 1800852 1816058 1839848 1862875 
1902.544 1875953 1874722 1862875 1849565 1844241 1851495 1867634 1882875 
1906.401 1888465 1879713 1860013 1838284 1823810 1820683 1825574 1829533 
1910.259 1823677 1805477 1780025 1757135 1747255 1753842 1772073 1791935 
1914.116 1802216 1797392 1779758 1757601 1739271 1729690 1726363 1721806 
1917.973 1709132 1686812 1659803 1637718 1627973 1630667 1638749 1641377 
1921.831 1629769 1602798 1568977 1540912 1530903 1542474 1569409 1599040 
1925.688 1620191 1628240 1627840 1629271 1642109 1668950 1704574 1737275 
1929.546 1756636 1759497 1750914 1742597 1744494 1759730 1782254 1801185 
1933.403 1806176 1794464 1772738 1752877 1745924 1754773 1772805 1787743 
1937.260 1789540 1776332 1755472 1740901 1744627 1769545 1807906 1844440 
1941.118 1865238 1864373 1848400 1830698 1826073 1841246 1871993 1906769 
1944.975 1935324 1953563 1967243 1987414 2022465 2073267 2129834 2177551 
1948.833 2203360 2203627 2185644 2164165 2152843 2156373 2168860 2179017 
1952.690 2175454 2155674 2126538 2100934 2089347 2093143 2102931 2102632 
1956.548 2080591 2035281 1977328 1926737 1901810 1910163 1946607 1995069 
1960.405 2039709 2073100 2097637 2121677 2151978 2187042 2215216 2222410 
1964.262 2199031 2146450 2080658 2023297 1991075 1989011 2006853 2026526 
1968.120 2032086 2019403 1996101 1979192 1981755 2005954 2041407 2071735 
1971.977 2082322 2070071 2044603 2021699 2016606 2035548 2074465 2125339 
1975.835 2185244 2258746 2358345 2493689 2662412 2844442 3010031 3127090 
1979.692 3177620 3164136 3107733 3038626 2981405 2948445 2936535 2933633 
1983.550 2927595 2913051 2895239 2881630 2877861 2880663 2879462 2861551 
1987.407 2821229 2762971 2701586 2654611 2634376 2640077 2660345 2679281 
1991.264 2684949 2675914 2662312 2656712 2667480 2693018 2721958 2739329 
1995.122 2736429 2714256 2683682 2659179 2649644 2653311 2660445 2656912 
1998.979 2634643 2596109 2553678 2522716 2512585 2520950 2534481 2537514 
2002.837 2520283 2484992 2446937 2426578 2438840 2486025 2556244 2630509 
2006.694 2694051 2741197 2777443 2814626 2859950 2910450 2954383 2976635 
2010.552 2968228 2933266 2887334 2849911 2835703 2846943 2872791 2896340 
2014.409 2903978 2891837 2867321 2843408 2829867 2829000 2834570 2837271 
2018.266 2831801 2821930 2816860 2827866 2858483 2900609 2938103 2955484 
2022.124 2942974 2905546 2858449 2819795 2801720 2804555 2817527 2826465 
2025.981 2823297 2809624 2797351 2799786 2824398 2866321 2912918 2947577 
2029.839 2960454 2954083 2940639 2935401 2948478 2979871 3020241 3057945 
2033.696 3085608 3104229 3123218 3152187 3194976 3246383 3295458 3330949 
2037.553 3348579 3353922 3357528 3369582 3392490 3420074 3438342 3436672 
2041.411 3411458 3371586 3333086 3311517 3314489 3338595 3371051 3397699 
2045.268 3411992 3417269 3426553 3454540 3509818 3589592 3681243 3765860 
2049.126 3826125 3854406 3850060 3818939 3769036 3707909 3640778 3573890 
2052.983 3514495 3470806 3449263 3450933 3468568 3490211 3500900 3491480 
2056.841 3461454 3420375 3381470 3358062 3355925 3371018 3393592 3412259 
2060.698 3419907 3417002 3408887 3401907 3399636 3400805 3400571 3395028 
2064.555 3384943 3375493 3374624 3389184 3419440 3459350 3499864 3532266 
2068.413 3553044 3565471 3575627 3589859 3610005 3631923 3648362 3653608 
2072.270 3646458 3632157 3618926 3614482 3621632 3638038 3657451 3674259 
2076.128 3687625 3701092 3720943 3751322 3791563 3834750 3871221 3892617 
2079.985 3896061 3885797 3870786 3859387 3857114 3863599 3874431 3884527 
2083.843 3892216 3898501 3907228 3921102 3938355 3953134 3957548 3945644 
2087.700 3916422 3874899 3829802 3789557 3758641 3735647 3715529 3693373 
2091.557 3667408 3640911 3620596 3613112 3621398 3644019 3674860 3706639 
2095.415 3735514 3760078 3782004 3803462 3824120 3841369 3851899 3853670 
2099.272 3848489 3842104 3841603 3851029 3870753 3895292 3916489 3927957 
2103.130 3927221 3916188 3900674 3886633 3876370 3869683 3863398 3855008 
2106.987 3845213 3837123 3834884 3840834 3853804 3868881 3879880 3882454 
2110.844 3876169 3864635 3853303 3845681 3841970 3838794 3831006 3815362 
2114.702 3793000 3768133 3747177 3734511 3729498 3727660 3722346 3707876 
2118.559 3683181 3651336 3618458 3590026 3569012 3554547 3544024 3535706 
2122.417 3529293 3526887 3530395 3539414 3548968 3552008 3541218 3512825 
2126.274 3469803 3419907 3372521 3334222 3306643 3284541 3260170 3227088 
2130.132 3183628 3134065 3085975 3047167 3021943 3009998 3008363 3013968 
2133.989 3025846 3045566 3073929 3109903 3146747 3174616 3185263 3174115 
2137.846 3145078 3107700 3073295 3050538 3041428 3042096 3044999 3046600 
2141.704 3047101 3051639 3066254 3092983 3127657 3162300 3186999 3196779 
2145.561 3194643 3189202 3189536 3201018 3219511 3234265 3233564 3209430 
2149.419 3163802 3106799 3051405 3006461 2973399 2944041 2906880 2852546 
2153.276 2778510 2689150 2593909 2502021 2419115 2350716 2305078 2296684 
2157.134 2348151 2481293 2703887 3001690 3336425 3655212 3908030 4067069 
2160.991 4131524 4125971 4085899 4043055 4016435 4007539 4007372 4004965 
2164.848 3993595 3975337 3955709 3940160 3928258 3913847 3890311 3853269 
2168.706 3805334 3755199 3713223 3684718 3668177 3655312 3636534 3607199 
2172.563 3571050 3538646 3522979 3532967 3567175 3615384 3662430 3695044 
2176.421 3706305 3697784 3675929 3648830 3621398 3594804 3569046 3546129 
2180.278 3530796 3529293 3547666 3584113 3631021 3676999 3711017 3728128 
2184.135 3732773 3733475 3740794 3759844 3788087 3816164 3835752 3841803 
2187.993 3836755 3829401 3829702 3843809 3871288 3904720 3934911 3956076 
2191.850 3967947 3975036 3984767 4001353 4023792 4047069 4065163 4074995 
2195.708 4079076 4083558 4094562 4114932 4141158 4165478 4180264 4181201 
2199.565 4170395 4155408 4145071 4144436 4153435 4166213 4175213 4175346 
2203.423 4166816 4153501 4142930 4140288 4146644 4159757 4176618 4194449 
2207.280 4213887 4236974 4264779 4295296 4323172 4341512 4345528 4335755 
2211.137 4318286 4302625 4297070 4305603 4324946 4348539 4367683 4377624 
2214.995 4378795 4375315 4371767 4369959 4367081 4357342 4335822 4301387 
2218.852 4258354 4214557 4177956 4152331 4135739 4122425 4105968 4083224 
2222.710 4056233 4031250 4015465 4012957 4022287 4037470 4050982 4057270 
2226.567 4054895 4046902 4037571 4030648 4026735 4023959 4019511 4012790 
2230.425 4004931 3999447 3999313 4005098 4013960 4022822 4028140 4029979 
2234.282 4031384 4037671 4052487 4076635 4105901 4134601 4157984 4174276 
2238.139 4186788 4201609 4224527 4257752 4299178 4343084 4383280 4416350 
2241.997 4442493 4464486 4486548 4510084 4533821 4554614 4568510 4574872 
2245.854 4576078 4576948 4581569 4592017 4606383 4619477 4626107 4623662 
2249.712 4612812 4597944 4584550 4576111 4573868 4576613 4581569 4587195 
2253.569 4593959 4603436 4617233 4634915 4653736 4669243 4677080 4674669 
2257.427 4661975 4641412 4615893 4587798 4557896 4526255 4493177 4460403 
2261.284 4430811 4407513 4392451 4384820 4381808 4380000 4376653 4371666 
2265.141 4367449 4367115 4372637 4383247 4395899 4405940 4409622 4406074 
2268.999 4397104 4386259 4377088 4370662 4366612 4362831 4357877 4351518 
2272.856 4346264 4344155 4347435 4355166 4365341 4374076 4379766 4382310 
2276.714 4384452 4389573 4399982 4415178 4433020 4449590 4462511 4472487 
2280.571 4482598 4497864 4522304 4556791 4597977 4640943 4679123 4707828 
2284.428 4725849 4733821 4734524 4730304 4722733 4712618 4699856 4685320 
2288.286 4670415 4657421 4647741 4641880 4639202 4637695 4635652 4632436 
2292.143 4628418 4624466 4621954 4621184 4621419 4621486 4620582 4618505 
2296.001 4615860 4613783 4612444 4611506 4609765 4605880 4599317 4590945 
2299.858 4582574 4576346 4573365 4573466 4575241 4576814 4576680 4574638 
2303.716 4571825 4569448 4568276 4567974 4566903 4563420 4556657 4547281 
2307.573 4537036 4528063 4521735 4517684 4514302 4509481 4501647 4490967 
2311.430 4479083 4468303 4460503 4456318 4454845 4454276 4453004 4450326 
2315.288 4447012 4444000 4441957 4440418 4437907 4432685 4423848 4412534 
2319.145 4401154 4393890 4393957 4402559 4418626 4438041 4455214 4463382 
2323.003 4456787 4431078 4383816 4315810 4230014 4132326 4030380 3932203 
2326.860 3845447 3774918 3721878 3684183 3657384 3636668 3618659 3602889 
2330.718 3590861 3585048 3587253 3597243 3613280 3632992 3653742 3674392 
2334.575 3695077 3716297 3738187 3759944 3779831 3796476 3809278 3818905 
2338.432 3826560 3833847 3841268 3847653 3851497 3851564 3848188 3843073 
2342.290 3839530 3839597 3844210 3852801 3863499 3875367 3889675 3909300 
2346.147 3938656 3980854 4036334 4102055 4172570 4241323 4301822 4349611 
2350.005 4382075 4398543 4399614 4386460 4360554 4323641 4277929 4226367 
2353.862 4172470 4120050 4071885 4029344 3992157 3959220 3929194 3901544 
2357.719 3876403 3854105 3834683 3817367 3800421 3782505 3762719 3742098 
2361.577 3722179 3704534 3690265 3678803 3669380 3660892 3654143 3650668 
2365.434 3653374 3664902 3685620 3714426 3747946 3782271 3814393 3842773 
2369.292 3867544 3889775 3911206 3932871 3956010 3981423 4010315 4043858 
2373.149 4082855 4126774 4173640 4221114 4266385 4308013 4346933 4385489 
2377.007 4426827 4473625 4526489 4583746 4642751 4699889 4752848 4801122 
2380.864 4845682 4888170 4930125 4971783 5012372 5050384 5084376 5113543 
2384.721 5138354 5159578 5178187 5195188 5210982 5226006 5240694 5256222 
2388.579 5273360 5292846 5314715 5337927 5360972 5382173 5400759 5416561 
2392.436 5430048 5442026 5452964 5462795 5470915 5476854 5480578 5482491 
2396.294 5483498 5484236 5484773 5484874 5484001 5481921 5479001 5476250 
2400.151 5474941 5475747 5478666 5482424 5485612 5487122 5486887 5486283 
2404.009 5487021 5491283 5500108 5513363 5529672 5547190 5564306 5579778 
2407.866 5592901 5603474 5611160 5615590 5616832 5615859 5613778 5612872 
2411.723 5614953 5621297 5631702 5645465 5660436 5675207 5689272 5702533 
2415.581 5716029 5730533 5746515 5764041 5782677 5802388 5823308 5845842 
2419.438 5870325 5895985 5921310 5944017 5961954 5974216 5980800 5983521 
2423.296 5984294 5985201 5987284 5990945 5995749 6001528 6009086 6019031 
2427.153 6032067 6048463 6066808 6085254 6102324 6116606 6128636 6139793 
2431.010 6152026 6166275 6182172 6198036 6211648 6221127 6226034 6226942 
2434.868 6226001 6225497 6226673 6230538 6236790 6245026 6254472 6264758 
2438.725 6275447 6286037 6295651 6304022 6311082 6318176 6326917 6339458 
2442.583 6357008 6378998 6403343 6426882 6446588 6460847 6469995 6475982 
2446.440 6481531 6488627 6498347 6509985 6522564 6535043 6547219 6559800 
2450.298 6573794 6589436 6606391 6623112 6637982 6649792 6658573 6664932 
2454.155 6670114 6674824 6679401 6683136 6685861 6687510 6689125 6691816 
2458.012 6696157 6701608 6706454 6708204 6705041 6696999 6685962 6675363 
2461.870 6669273 6670114 6678122 6691682 6707497 6722404 6735024 6744850 
2465.727 6753095 6761105 6769821 6779110 6788836 6798260 6807852 6817916 
2469.585 6829326 6842622 6857265 6872345 6886517 6899343 6911025 6922303 
2473.442 6934356 6947756 6961594 6975095 6986913 6996746 7005299 7014693 
2477.300 7026614 7042239 7061334 7082585 7104038 7123911 7141493 7157021 
2481.157 7171708 7186193 7201251 7217321 7234200 7252999 7274495 7299362 
2485.014 7328004 7359176 7390181 7418054 7440671 7457457 7470132 7481896 
2488.872 7496088 7515000 7538970 7566179 7594097 7620027 7643093 7663225 
2492.729 7681942 7700424 7719244 7738335 7756549 7773347 7788663 7803303 
2496.587 7818181 7833800 7849792 7865177 7878673 7889673 7898176 7905768 
2500.444 7913630 7923247 7934686 7947949 7961886 7976195 7991145 8006907 
2504.302 8024288 8043426 8063408 8083021 8101115 8117386 8132207 8146859 
2508.159 8162423 8179305 8196525 8212563 8225632 8235188 8241874 8247513 
2512.016 8254572 8264770 8278751 8296448 8316611 8338261 8361229 8385787 
2515.874 8412102 8440514 8470111 8499336 8527079 8552050 8574286 8594598 
2519.731 8613558 8632113 8650197 8667536 8684066 8700326 8717972 8738459 
2523.589 8763139 8791810 8823222 8854738 8883551 8907698 8926705 8941453 
2527.446 8953663 8965163 8977273 8990025 9003388 9017460 9032447 9049227 
2531.303 9068545 9090470 9115068 9141327 9168805 9197334 9227827 9260964 
2535.161 9297453 9337128 9378635 9419504 9457665 9491429 9520352 9545280 
2539.018 9567296 9587687 9607097 9625357 9642499 9658252 9673363 9688778 
2542.876 9705449 9723847 9743941 9765255 9786978 9808735 9830290 9851880 
2546.733 9873031 9893166 9911335 9926150 9937370 9945134 9950863 9956016 
2550.591 9961780 9968256 9974663 9979851 9982902 9983784 9983885 9984733 
2554.448 9987750 9993413 10000668 10007415 10012027 10013281 10011349 
2557.823 10007720 10004093 10001787 10001787 10003584 10006602 10011010 
2561.198 10016570 10023827 10033151 10043697 10053801 10061262 10063738 
2564.574 10059905 10050004 10035253 10018130 10000465 9984326 9970527 
2567.949 9959644 9952253 9948151 9947608 9949880 9953575 9956864 9957711 
2571.806 9954524 9947304 9937235 9926047 9915878 9908149 9902928 9899403 
2575.664 9896217 9892047 9886284 9878794 9869845 9859642 9848152 9835273 
2579.521 9821106 9805990 9790841 9776642 9764341 9754174 9745838 9738620 
2583.379 9732217 9726626 9722661 9721034 9722457 9726761 9732928 9739807 
2587.236 9745974 9751192 9755665 9760207 9765764 9772745 9780844 9789553 
2591.094 9798365 9807345 9817175 9828901 9843542 9861642 9882658 9905946 
2594.951 9930319 9954796 9978731 10002058 10024199 10044849 10063229 
2598.326 10078930 10092190 10103991 10116099 10130513 10148522 10170671 
2601.701 10196179 10223622 10251136 10277190 10300838 10321706 10339757 
2605.077 10355163 10367956 10378782 10388521 10398736 10411157 10427583 
2608.452 10448660 10473845 10501985 10530737 10558201 10583256 10605733 
2611.827 10626207 10645595 10664544 10683289 10701559 10719253 10736031 
2615.202 10752401 10768875 10785926 10803487 10821491 10839053 10855836 
2618.578 10872041 10887840 10904148 10921476 10939655 10958276 10976558 
2621.953 10994059 11011085 11028417 11047144 11068421 11092928 11119918 
2625.328 11148201 11176521 11203482 11228609 11251935 11273799 11294917 
2628.703 11315322 11335592 11355761 11376372 11398005 11421374 11447330 
2632.079 11475260 11504520 11534018 11562295 11588089 11611128 11631547 
2635.454 11649926 11667114 11683997 11700948 11718512 11736860 11756026 
2638.829 11776282 11797628 11819827 11842504 11865114 11887385 11908703 
2642.204 11929204 11948276 11965919 11981996 11995926 12007780 12017897 
2645.580 12026924 12036053 12046750 12059866 12076252 12096046 12118737 
2648.955 12143474 12169030 12194349 12218102 12239709 12258590 12274814 
2652.330 12288823 12301775 12314728 12328908 12344725 12362247 12381135 
2655.705 12400465 12419320 12437425 12454541 12470840 12486424 12501394 
2659.081 12515411 12528131 12539317 12548832 12557086 12564453 12571377 
2662.456 12578130 12584167 12589283 12593069 12595559 12596924 12597981 
2665.831 12599413 12601426 12603984 12606406 12607941 12608009 12606338 
2669.206 12602961 12598015 12591671 12584099 12575060 12564589 12552891 
2672.582 12540408 12528096 12516638 12506714 12498189 12490959 12484582 
2675.957 12478751 12473363 12468419 12464293 12460747 12457576 12454030 
2679.332 12449392 12443084 12435038 12425559 12415092 12404488 12394192 
2682.707 12384475 12375509 12367055 12359077 12351407 12344418 12337737 
2686.083 12331533 12326113 12321647 12318376 12316705 12316875 12318511 
2689.458 12321204 12324374 12327068 12329249 12330749 12332113 12333749 
2692.833 12336135 12339067 12342067 12344418 12345543 12345305 12344146 
2696.208 12342783 12341964 12342305 12343736 12346668 12350657 12355804 
2699.583 12362452 12371145 12382430 12396647 12413558 12432958 12454472 
2702.959 12477661 12502247 12528336 12555142 12582496 12609612 12636049 
2706.334 12661395 12686026 12710590 12736180 12763374 12792481 12823331 
2709.709 12855071 12887255 12919614 12952555 12986659 13022508 13060715 
2713.084 13100736 13141853 13183110 13223347 13262050 13299151 13335196 
2716.460 13370937 13407022 13444613 13483985 13525822 13570330 13617270 
2719.835 13666403 13716738 13767387 13817871 13868121 13918343 13969426 
2723.210 14022363 14077567 14134556 14192442 14249585 14304918 14357417 
2726.585 14407353 14455068 14501761 14548116 14594373 14640532 14686080 
2729.961 14730706 14774514 14817677 14860499 14903498 14946501 14988924 
2733.336 15030358 15070286 15107885 15143120 15176023 15206185 15233638 
2736.711 15258416 15280449 15300527 15319302 15337939 15357300 15377999 
2740.086 15399729 15421838 15443434 15463484 15481855 15498646 15514681 
2743.462 15530684 15547373 15564991 15583537 15602598 15621592 15640208 
2746.837 15657762 15674148 15689297 15703037 15715681 15727224 15737977 
2750.212 15747873 15756909 15764846 15771477 15776528 15780341 15783297 
2753.587 15786353 15789928 15794704 15800236 15806524 15812503 15817486 
2756.963 15821094 15823396 15824325 15824771 15825011 15825389 15826421 
2760.338 15828345 15831403 15835837 15841473 15848449 15855769 15863363 
2763.713 15870443 15877144 15883777 15890995 15899519 15909692 15921310 
2767.088 15933719 15946057 15957709 15968263 15978198 15988030 15998755 
2770.464 16010821 16024539 16040182 16057407 16076041 16096020 16117064 
2773.839 16138762 16160633 16182059 16202696 16222471 16241595 16260892 
2777.214 16281052 16302517 16325325 16348995 16373010 16396821 16419841 
2780.589 16442554 16465060 16487876 16511315 16535373 16559916 16585182 
2783.965 16611690 16640196 16671663 16706921 16746074 16788468 16833174 
2787.340 16878882 16924148 16968214 17010180 17049876 17087338 17122354 
2790.715 17155100 17186018 17215630 17244452 17273378 17302894 17333100 
2794.090 17363892 17395000 17426042 17456808 17487336 17517692 17547982 
2797.466 17577896 17607258 17635656 17662814 17688972 17714340 17739674 
2800.841 17764802 17789792 17814544 17838088 17860530 17882108 17903206 
2804.216 17925028 17948336 17973752 18001380 18031116 18062618 18095536 
2807.591 18129874 18165424 18201842 18238812 18275408 18310936 18344876 
2810.967 18377368 18409066 18441146 18474854 18510950 18550058 18591868 
2814.342 18636172 18682658 18730742 18780492 18831700 18884058 18937044 
2817.717 18989792 19041824 19092472 19141882 19190814 19240096 19290944 
2821.092 19344152 19400036 19458838 19520176 19583120 19647180 19711076 
2824.468 19773906 19835116 19894288 19951284 20006760 20061376 20116066 
2827.843 20171388 20227968 20285946 20345594 20406992 20470200 20535574 
2831.218 20603248 20672846 20744054 20816178 20888694 20961328 21034494 
2834.593 21109170 21185910 21265484 21347820 21432228 21517870 21603738 
2837.969 21689726 21776498 21865344 21958528 22057940 22165498 22282708 
2841.344 22410522 22549680 22701520 22867490 23049594 23250546 23473344 
2844.719 23721068 23996594 24301658 24636568 24999218 25384124 25781996 
2848.094 26180162 26563404 26914024 27215008 27451390 27611240 27687868 
2851.469 27680240 27592388 27433250 27215572 26955448 26668562 26371336 
2854.845 26078290 25800878 25547784 25324516 25133520 24975388 24848010 
2858.220 24749010 24674478 24620474 24582918 24558690 24545508 24542528 
2861.595 24549748 24568016 24598312 24640986 24696152 24763006 24840678 
2864.970 24928222 25025576 25132854 25250798 25379592 25519286 25669286 
2868.346 25827848 25993010 26162916 26334826 26506346 26674762 26836968 
2871.721 26989718 27129612 27253850 27360936 27450826 27525202 27586984 
2875.096 27640372 27690130 27740314 27794570 27855366 27924086 28000768 
2878.471 28084958 28175988 28272906 28375578 28483932 28598472 28719910 
2881.847 28848110 28982440 29121382 29262070 29400854 29533936 29656984 
2885.222 29766582 29859812 29935166 29992324 30032478 30058434 30074664 
2888.597 30086594 30100018 30121184 30155456 30207880 30283048 30385664 
2891.972 30521928 30699340 30927310 31217310 31581614 32032608 32581280 
2895.348 33234112 33992040 34845708 35775528 36748844 37718456 38630368 
2898.723 39423648 40038636 40428860 40562708 40431768 40049576 39451008 
2902.098 38686216 37808420 36874604 35934332 35025796 34178764 33412422 
2905.473 32736600 32155760 31669640 31274848 30966556 30739240 30587480 
2908.849 30506464 30492708 30543148 30655140 30825706 31050824 31324562 
2912.224 31640414 31989664 32362614 32749534 33139408 33521220 33884524 
2915.599 34218596 34514820 34767092 34971852 35129032 35241388 35313908 
2918.974 35351504 35359448 35340940 35297556 35229384 35135532 35015380 
2922.350 34869440 34700400 34512412 34312172 34107832 33907844 33721204 
2925.725 33556228 33419330 33314996 33245738 33211008 33208038 33232394 
2929.100 33277896 33337962 33406052 33475980 33541978 33599004 33641964 
2932.475 33665740 33665236 33635200 33570900 33468928 33327446 33146772 
2935.851 32929252 32679402 32403346 32107488 31799066 31484916 31171348 
2939.226 30864836 30570806 30294880 30041782 29815588 29619098 29453472 
2942.601 29318180 29210964 29127370 29061894 29008332 28959700 28910224 
2945.976 28854520 28788732 28710812 28620626 28519916 28411408 28299500 
2949.352 28188222 28081036 27980660 27888082 27802940 27723786 27648530 
2952.727 27574840 27500666 27424708 27345798 27263446 27177334 27087290 
2956.102 26993104 26894846 26792384 26685578 26575100 26460880 26343242 
2959.477 26222570 26099226 25973416 25845324 25715054 25582890 25449118 
2962.853 25314788 25181026 25049654 24922502 24801244 24687280 24581270 
2966.228 24483138 24392670 24309262 24232702 24163164 24101516 24048772 
2969.603 24006888 23977300 23962070 23962910 23981678 24019390 24076158 
2972.978 24150624 24239534 24337052 24436096 24527696 24602766 24652666 
2976.354 24670726 24652316 24595610 24501858 24375180 24222226 24051292 
2979.729 23872268 23694682 23527524 23377982 23250650 23147718 23068602 
2983.104 23010918 22970358 22941432 22919218 22898330 22874056 22843602 
2986.479 22805012 22757942 22703928 22645386 22585382 22527310 22473954 
2989.854 22426988 22387530 22355576 22330494 22311238 22296416 22284904 
2993.230 22275486 22267886 22261886 22258048 22257248 22260352 22268094 
2996.605 22280580 22297392 22317972 22341970 22368552 22398030 22430688 
2999.980 22466522 22505428 22546400 22588246 22629398 22669124 22706828 
3003.355 22742962 22778858 22815174 22852682 22891414 22930884 22970426 
3006.731 23009484 23047988 23086388 23125316 23165366 23206644 23249252 
3010.106 23292602 23336302 23380532 23425432 23471352 23518918 23568064 
3013.481 23618266 23668754 23718618 23767156 23814198 23860226 23906122 
3016.856 23952824 24001392 24052168 24105194 24159976 24216096 24273276 
3020.232 24331830 24392354 24455762 24523384 24595576 24672444 24753292 
3023.607 24836222 24919274 25000412 25077912 25151144 25220106 25285460 
3026.982 25347734 25407556 25464752 25518862 25569466 25616246 25659548 
3030.357 25700606 25741106 25782172 25824754 25868606 25912532 25955090 
3033.733 25994628 26030300 26062000 26090392 26116502 26141698 26167036 
3037.108 26193428 26221444 26252138 26285998 26323948 26366372 26413200 
3040.483 26463416 26515714 26567984 26618956 26667540 26713908 26758940 
3043.858 26804086 26850328 26898866 26949770 27002656 27057278 27113068 
3047.234 27170208 27228730 27289166 27351832 27416342 27482664 27549878 
3050.609 27617422 27685184 27753242 27821522 27890450 27959740 28028900 
3053.984 28097648 28165630 28232914 28300208 28368538 28438718 28511672 
3057.359 28587218 28664692 28743062 28821024 28897544 28972380 29045350 
3060.735 29116352 29185200 29251332 29314104 29373058 29428332 29480316 
3064.110 29530390 29580186 29630696 29682526 29735710 29789258 29842170 
3067.485 29893778 29943900 29992962 30042100 30092168 30144196 30198752 
3070.860 30255872 30315806 30378840 30445188 30515350 30589862 30668902 
3074.236 30752506 30840362 30931900 31026268 31122828 31220764 31319290 
3077.611 31418018 31516482 31614468 31712514 31811188 31911276 32013740 
3080.986 32118868 32226592 32336344 32447152 32557782 32667436 32775436 
3084.361 32881680 32986480 33090628 33194482 33299040 33404730 33511628 
3087.737 33619376 33727148 33833552 33937008 34036296 34130192 34218952 
3091.112 34303600 34385940 34468328 34552916 34641296 34734104 34831600 
3094.487 34933604 35039552 35150012 35264888 35384788 35510080 35640016 
3097.862 35773548 35909032 36044768 36179364 36312524 36444820 36577484 
3101.238 36712424 36851232 36994948 37143948 37297660 37455216 37615288 
3104.613 37776684 37938316 38099544 38259848 38418264 38573980 38725588 
3107.988 38871488 39010336 39140740 39261676 39372568 39473360 39563724 
3111.363 39643832 39713680 39772720 39820944 39858204 39884644 39901136 
3114.739 39908764 39908436 39901244 39887696 39867540 39840484 39805836 
3118.114 39763168 39712300 39653560 39587492 39514692 39435912 39351816 
3121.489 39262584 39169604 39074280 38978328 38884208 38793916 38708856 
3124.864 38629896 38556816 38489288 38426844 38369508 38317496 38271648 
3128.240 38232748 38201196 38176848 38159084 38146896 38139152 38135536 
3131.615 38135824 38140600 38150548 38166500 38189004 38218128 38253516 
3134.990 38294480 38340188 38389632 38442300 38497476 38554864 38614104 
3138.365 38675132 38737112 38799604 38862176 38923996 38984416 39043828 
3141.740 39102124 39160464 39219972 39281992 39347644 39417700 39492156 
3145.116 39570184 39650948 39732812 39814480 39894892 39973316 40049248 
3148.491 40122980 40194940 40265712 40336136 40406676 40477556 40548956 
3151.866 40620624 40691872 40762508 40831988 40900352 40967964 41035408 
3155.241 41103368 41172212 41242052 41312740 41383808 41454700 41525096 
3158.617 41594772 41663988 41732884 41801868 41871224 41941108 42011396 
3161.992 42082032 42152492 42222416 42291252 42358680 42424436 42488416 
3165.367 42551156 42613140 42675132 42737792 42801048 42865080 42929232 
3168.742 42992916 43055876 43117972 43179596 43241232 43303460 43366576 
3172.118 43430472 43494748 43558808 43622288 43684904 43746536 43806972 
3175.493 43866312 43923864 43979700 44033896 44086596 44138636 44190980 
3178.868 44243808 44297448 44351312 44404380 44455728 44504844 44551616 
3182.243 44596920 44641976 44687440 44734120 44781796 44829512 44876356 
3185.619 44921664 44964876 45005924 45045360 45083260 45119724 45154244 
3188.994 45186416 45215680 45242084 45266060 45288456 45310668 45333728 
3192.369 45358520 45385704 45414948 45445076 45475280 45503908 45529476 
3195.744 45551264 45568960 45583352 45595792 45608120 45622140 45638884 
3199.120 45658616 45680960 45704812 45728996 45752520 45774976 45796004 
3202.495 45815772 45834260 45851784 45868212 45883748 45898628 45913024 
3205.870 45927280 45941424 45954608 45966580 45976708 45985000 45992144 
3209.245 45999732 46008980 46021060 46035832 46052264 46068584 46082768 
3212.621 46093672 46101040 46106164 46111064 46117992 46128492 46142900 
3215.996 46160516 46179788 46199024 46216676 46231972 46245020 46256220 
3219.371 46266652 46277452 46289800 46304620 46322572 46343108 46365448 
3222.746 46388268 46409728 46428644 46444424 46457664 46469792 46483068 
3226.122 46499148 46519432 46543884 46571436 46600500 46629716 46658272 
3229.497 46686088 46714276 46743720 46775308 46809444 46845428 46881932 
3232.872 46917404 46950332 46979828 47006080 47029600 47052088 47075348 
3236.247 47100944 47129752 47162212 47197524 47234428 47271592 47307984 
3239.623 47342900 47377228 47411556 47446780 47483776 47522516 47562440 
3242.998 47603108 47644148 47685084 47726760 47769368 47813088 47857368 
3246.373 47901316 47943568 47983424 48020760 48056552 48092192 48129764 
3249.748 48169488 48211284 48253496 48293784 48330260 48361592 48388368 
3253.124 48412004 48435156 48459528 48486832 48517028 48549040 48581200 
3256.499 48611628 48638792 48662216 48681820 48698020 48711584 48723260 
3259.874 48733972 48744464 48755476 48767560 48781052 48796032 48811788 
3263.249 48827136 48841152 48852164 48858764 48860472 48856984 48849236 
3266.625 48838372 48826284 48814344 48804004 48795772 48788912 48782204 
3270.000 48773340 48759772 48739424 48710804 48673444 48628192 48577052 
3273.375 48521916 48465160 48408668 48353036 48298636 48245384 48192256 
3276.750 48139060 48085976 48033124 47980760 47929916 47879936 47830656 
3280.125 47781164 47730276 47677280 47622000 47564952 47507692 47452136 
3283.501 47400064 47352912 47311048 47273588 47238492 47203988 47167788 
3286.876 47128640 47086872 47043408 47000392 46959596 46922684 46889904 
3290.251 46861004 46834428 46808668 46782688 46756192 46729736 46704608 
3293.626 46681736 46661888 46644656 46629088 46613152 46595116 46573944 
3297.002 46549156 46522052 46494464 46468612 46446600 46430044 46419572 
3300.377 46415516 46417728 46425840 46439592 46458548 46482296 46509476 
3303.752 46538904 46568708 46596812 46621604 46642076 46658052 46669744 
3307.127 46678080 46684136 46688708 46692548 46696272 46700440 46706012 
3310.503 46713760 46725160 46741320 46763392 46792028 46827344 46868088 
3313.878 46913268 46961112 47009772 47057960 47104488 47149028 47191504 
3317.253 47232248 47271884 47310936 47349992 47389348 47429224 47469656 
3320.628 47510352 47551200 47591276 47630096 47666964 47701316 47732676 
3324.004 47760932 47786012 47807280 47824740 47837872 47846456 47850672 
3327.379 47851188 47848784 47844308 47838720 47831952 47823444 47812420 
3330.754 47797848 47778872 47755792 47728980 47699504 47668592 47637048 
3334.129 47605212 47573272 47540924 47507504 47472244 47433584 47389684 
3337.505 47338428 47277984 47206648 47124172 47031188 46929400 46820736 
3340.880 46707196 46589508 46468468 46343952 46216084 46085348 45952656 
3344.255 45818976 45684932 45550452 45414540 45275804 45133472 44987512 
3347.630 44839360 44691552 44546692 44407132 44273708 44145972 44021868 
3351.006 43899816 43777944 43655664 43533348 43411944 43292332 43175464 
3354.381 43061732 42951176 42844200 42741376 42643116 42550168 42462396 
3357.756 42379504 42300384 42223804 42148328 42073672 41999972 41928112 
3361.131 41859404 41795044 41736020 41682988 41636092 41594992 41559148 
3364.507 41527648 41498884 41471504 41444056 41415548 41385920 41355412 
3367.882 41324908 41295212 41266792 41239464 41212212 41184196 41153708 
3371.257 41120156 41083224 41043344 41000884 40956276 40909528 40859944 
3374.632 40806656 40748312 40683536 40611240 40530152 40439332 40338752 
3378.008 40227508 40105280 39971824 39826824 39669424 39499812 39317424 
3381.383 39122500 38915736 38697952 38470644 38235028 37992448 37743900 
3384.758 37490180 37231772 36969404 36704384 36438516 36173352 35911156 
3388.133 35653180 35399672 35150012 34902076 34653208 34400928 34143168 
3391.509 33879116 33610064 33338108 33066242 32797556 32534282 32277126 
3394.884 32026154 31780600 31539604 31302732 31070436 30843492 30622960 
3398.259 30408798 30199924 29993460 29785852 29573056 29351608 29119682 
3401.634 28877358 28626536 28370518 28113060 27857980 27607780 27364078 
3405.010 27127142 26896118 26670112 26447498 26227218 26008208 25789908 
3408.385 25571962 25354582 25138154 24923204 24710674 24500948 24294650 
3411.760 24092268 23893482 23698288 23506292 23316828 23129790 22945276 
3415.135 22763354 22584546 22409300 22237300 22068084 21900886 21734450 
3418.510 21567870 21400552 21232776 21065554 20900272 20738840 20582334 
3421.886 20431266 20285354 20143554 20004886 19867962 19732642 19599202 
3425.261 19468368 19341034 19218416 19100542 18987198 18877724 18770736 
3428.636 18664810 18558808 18451448 18341938 18230036 18115432 17998962 
3432.011 17881590 17765112 17650910 17540220 17433594 17330478 17229800 
3435.387 17129938 17029684 16928180 16825802 16723175 16621742 16522570 
3438.762 16425794 16331242 16237674 16144574 16051251 15958466 15866663 
3442.137 15777009 15690362 15606033 15522922 15439314 15352871 15261882 
3445.512 15165833 15065346 14962242 14859230 14759054 14663974 14575013 
3448.888 14492751 14416327 14344540 14276189 14209834 14144551 14080133 
3452.263 14016340 13953174 13890529 13827723 13763933 13697930 13628723 
3455.638 13555972 13479781 13401075 13321256 13242305 13164769 13089979 
3459.013 13017762 12947400 12878382 12810159 12742628 12675859 12610670 
3462.389 12546991 12485094 12425286 12366952 12309955 12254329 12199529 
3465.764 12145450 12091958 12038507 11984550 11929851 11874274 11817954 
3469.139 11761881 11706734 11653568 11603131 11555490 11510167 11466619 
3472.514 11423687 11380114 11335388 11288660 11239965 11189644 11138649 
3475.890 11088237 11039837 10994297 10952771 10915190 10881622 10850502 
3479.265 10820404 10789595 10756138 10719865 10680980 10640774 10601625 
3482.640 10565670 10534844 10509792 10489866 10473200 10457213 10439361 
3486.015 10418046 10392967 10365445 10337755 10312850 10293340 10280991 
3489.391 10276240 10278683 10286555 10297853 10310712 10323402 10334430 
3492.766 10343151 10349123 10352482 10354077 10355129 10357674 10363579 
3496.141 10375015 10393035 10418318 10450730 10489222 10532740 10579930 
3499.516 10629739 10681523 10734333 10787658 10841058 10894499 10947946 
3502.892 11002793 11060977 11124677 11196920 11279615 11373617 11478118 
3506.267 11590879 11708912 11828306 11945960 12059934 12169746 12276893 
3509.642 12383623 12492904 12606781 12726626 12851930 12981777 13114464 
3513.017 13248351 13382212 13514781 13645511 13773440 13897816 14017812 
3516.393 14133255 14244209 14351081 14454965 14555825 14652802 14744212 
3519.768 14826898 14897600 14953428 14992697 15014752 15020239 15010430 
3523.143 14986729 14950478 14902332 14842018 14769305 14683440 14583820 
3526.518 14470004 14342211 14200967 14047825 13884919 13714310 13538025 
3529.894 13358055 13175288 12990688 12804664 12618106 12431150 12244139 
3533.269 12056288 11866374 11672799 11473865 11269039 11059755 10848464 
3536.644 10639314 10436475 10242824 10059872 9887505 9724050 9567838 9417539 
3540.501 9272404 9132359 8997467 8867183 8739540 8612308 8482713 8347921 
3544.359 8207127 8060607 7910897 7761508 7616958 7481255 7357558 7246969 
3548.216 7148735 7060189 6977721 6896852 6814214 6727351 6634820 6538036 
3552.074 6439660 6342921 6250740 6165738 6088010 6017015 5951272 5889032 
3555.931 5828581 5769044 5709416 5649762 5589947 5530007 5470210 5411025 
3559.789 5352820 5296200 5242371 5191700 5145294 5103955 5066911 5033054 
3563.646 4999903 4963270 4917960 4859722 4784706 4693090 4589037 4480890 
3567.503 4379565 4294761 4232423 4194014 4175915 4171666 4173507 4175045 
3571.361 4171298 4159054 4137879 4108376 4071885 4030782 3987174 3943270 
3575.218 3901076 3862262 3827362 3796243 3768100 3741362 3714827 3687859 
3579.076 3660525 3633694 3608635 3586184 3566974 3551708 3540016 3531898 
3582.933 3527489 3525952 3525585 3524015 3516666 3498061 3463792 3411191 
3586.791 3341801 3261873 3181392 3111771 3061349 3034455 3029650 3041829 
3590.648 3063151 3085775 3103629 3112572 3110670 3098723 3078901 3054041 
3594.505 3027681 3002558 2980371 2962323 2948044 2936535 2926128 2915053 
3598.363 2901410 2884432 2864286 2841773 2819128 2798585 2782045 2770874 
3602.220 2765372 2764871 2768239 2774642 2782645 2791082 2797985 2801220 
3606.078 2797818 2785246 2761970 2728960 2689917 2650078 2615742 2591409 
3609.935 2578309 2574076 2574209 2572676 2565410 2550978 2530915 2509752 
3613.792 2492723 2483192 2482126 2487757 2495556 2500021 2496722 2482492 
3617.650 2456434 2420414 2378567 2336358 2299715 2273201 2258913 2257014 
3621.507 2264841 2279264 2296851 2315238 2334059 2355147 2381232 2413717 
3625.365 2452035 2491656 2523683 2536080 2516784 2458400 2363375 2247488 
3629.222 2134296 2048631 2004157 2000162 2025594 2065476 2105728 2136427 
3633.080 2153509 2157905 2154608 2149014 2145817 2146283 2149580 2153309 
3636.937 2155507 2155474 2154242 2153409 2155041 2159536 2166263 2174155 
3640.794 2182081 2189440 2197566 2207989 2222410 2241926 2266207 2293553 
3644.652 2321101 2345685 2363675 2372171 2368372 2349816 2314805 2262610 
3648.509 2194002 2113320 2028324 1949569 1888998 1856619 1856553 1887334 
3652.367 1941847 2008717 2075298 2129368 2161634 2166396 2144252 2102265 
3656.224 2052825 2009183 1981156 1972868 1982088 2002592 2026926 2049397 
3660.082 2065643 2074465 2076096 2072701 2066209 2058851 2052526 2048764 
3663.939 2049463 2056055 2069704 2090612 2117748 2147849 2176353 2196567 
3667.796 2201229 2184012 2142021 2078993 2006620 1943345 1906469 1907801 
3671.654 1946940 2013311 2087716 2148182 2174421 2151445 2076429 1962283 
3675.511 1838384 1738073 1683685 1679660 1713756 1767083 1821880 1867068 
3679.369 1899414 1921346 1938885 1957291 1979458 2004423 2029855 2052892 
3683.226 2073733 2094508 2118247 2147715 2181781 2215583 2242160 2252984 
3687.083 2241127 2205425 2150346 2085086 2020534 1965279 1923376 1894289 
3690.941 1876319 1867434 1867867 1877683 1896985 1923842 1954495 1984052 
3694.798 2008118 2024163 2032252 2035415 2038011 2044170 2055822 2072368 
3698.656 2090646 2105895 2113952 2111455 2097970 2076296 2050728 2027392 
3702.513 2011680 2006687 2013877 2032019 2058785 2090879 2125273 2159603 
3706.371 2192471 2223176 2251485 2276566 2296784 2309009 2308576 2291521 
3710.228 2254949 2199264 2129768 2056421 1991075 1944643 1924042 1930099 
3714.085 1958655 2001560 2050362 2096938 2135195 2161934 2176719 2181448 
3717.943 2179150 2173389 2167561 2162933 2160269 2159869 2161268 2164598 
3721.800 2170758 2179783 2191172 2203427 2213451 2217781 2213118 2198431 
3725.658 2175021 2147849 2124274 2112287 2118047 2143187 2184511 2235465 
3729.515 2286824 2328863 2355213 2362476 2352415 2330695 2304445 2278431 
3733.373 2253284 2224375 2185244 2132165 2066841 1997666 1937720 1899947 
3737.230 1891061 1910896 1953330 2010748 2076696 2147815 2222310 2298916 
3741.087 2373070 2436308 2475028 2472762 2416316 2303912 2153542 2000761 
3744.945 1889364 1847235 1875321 1953430 2052592 2145684 2211087 2237230 
3748.802 2222044 2173589 2105462 2032751 1967342 1915688 1880346 1863774 
3752.660 1868233 1895587 1944410 2010015 2083920 2156073 2218447 2264741 
3756.517 2292687 2303646 2301314 2289489 2271403 2249287 2225041 2202361 
3760.375 2185877 2180582 2189407 2211220 2240494 2268705 2286891 2288890 
3764.232 2273535 2246023 2214883 2190306 2178884 2181115 2191705 2202428 
3768.089 2205159 2195035 2171990 2140923 2110123 2087583 2078527 2084320 
3771.947 2102765 2129435 2159370 2189107 2216115 2239662 2260345 2279596 
3775.804 2298383 2316804 2333260 2344819 2347984 2340522 2322333 2297084 
3779.662 2270903 2250753 2241260 2243758 2255082 2269504 2280762 2284027 
3783.519 2277698 2263676 2245956 2229670 2218347 2213718 2214750 2219912 
3787.376 2227206 2235465 2244191 2253017 2261311 2268372 2273535 2277098 
3791.234 2280962 2287124 2298117 2314905 2335558 2355913 2370871 2375402 
3795.091 2367540 2349816 2328863 2313972 2312940 2328829 2358511 2393393 
3798.949 2420981 2427911 2404188 2346951 2263409 2170858 2093675 2051727 
3802.806 2053658 2094907 2160302 2231036 2287224 2313706 2303146 2258213 
3806.664 2192304 2125839 2079226 2063578 2079226 2117382 2166662 2216848 
3810.521 2262743 2304046 2344053 2386097 2430710 2473728 2506486 2518684 
3814.378 2501354 2452502 2379567 2300981 2238796 2210121 2220645 2262809 
3818.236 2320268 2371904 2399090 2388229 2335891 2250886 2154442 2073466 
3822.093 2028790 2028490 2066841 2129701 2199597 2261044 2304912 2327697 
3825.951 2332227 2326331 2319469 2319335 2328829 2346685 2368372 2388629 
3829.808 2403088 2409919 2410252 2406887 2403388 2403388 2409119 2420847 
3833.666 2437374 2456067 2472628 2482126 2479393 2460399 2423879 2372637 
3837.523 2312940 2254449 2206591 2174854 2160502 2160435 2168727 2179483 
3841.380 2188508 2193969 2195734 2195634 2195901 2198898 2206724 2221477 
3845.238 2244125 2275200 2314105 2359278 2408953 2461065 2514518 2569310 
3849.095 2625242 2681349 2734094 2775075 2792016 2770207 2695651 2564177 
3852.953 2387529 2197532 2033317 1926105 1886668 1905671 1963315 2039110 
3856.810 2118447 2192104 2256315 2310308 2354913 2390794 2417948 2436674 
3860.667 2447370 2451069 2449636 2443672 2432842 2415849 2391594 2362076 
3864.525 2333127 2314272 2314339 2338423 2384131 2441372 2493989 2525982 
3868.382 2523583 2482259 2409352 2323832 2249720 2205059 2195801 2215150 
3872.240 2249154 2282827 2305212 2312840 2309609 2304112 2306144 2322367 
3876.097 2354314 2398257 2446904 2491756 2524682 2539480 2533014 2507186 
3879.955 2469030 2428977 2399390 2390095 2404155 2438340 2482392 2523449 
3883.812 2547012 2543179 2508919 2451102 2385897 2331494 2303413 2306977 
3887.669 2337424 2382898 2428944 2462665 2475061 2463765 2432243 2390161 
3891.527 2348650 2317703 2303446 2306744 2325232 2355047 2392693 2434841 
3895.384 2478993 2523083 2564010 2598375 2622875 2633943 2630309 2612442 
3899.242 2584009 2549479 2514284 2481892 2453401 2427511 2401522 2373237 
3903.099 2342288 2310974 2283527 2265241 2260311 2269637 2291521 2321767 
3906.957 2355413 2388162 2416916 2440306 2458500 2472495 2483659 2493922 
3910.814 2505020 2518550 2536080 2558278 2584842 2613642 2641577 2664012 
3914.671 2676648 2676781 2664146 2640910 2611908 2582542 2557344 2538613 
3918.529 2526715 2520217 2517717 2518450 2522316 2529882 2540780 2553411 
3922.386 2565143 2572476 2572343 2564144 2549945 2534014 2521616 2517517 
3926.244 2523683 2539047 2560344 2582942 2602842 2617075 2624376 2625042 
3930.101 2619975 2610209 2596642 2580376 2562577 2545679 2532314 2525216 
3933.958 2525982 2535181 2550912 2570443 2590875 2609675 2625509 2638277 
3937.816 2649011 2658745 2668013 2676315 2682282 2684049 2679882 2669113 
3941.673 2652378 2632243 2612009 2595808 2586609 2586176 2594475 2609442 
3945.531 2627509 2645110 2658312 2664613 2663212 2655345 2643244 2630309 
3949.388 2619542 2612342 2609575 2610375 2613775 2618842 2624742 2631643 
3953.246 2639843 2649144 2659045 2668547 2676414 2682116 2685449 2687583 
3957.103 2689750 2693184 2698919 2706320 2714389 2721758 2726759 2728660 
3960.960 2727293 2723591 2718557 2713655 2710121 2708588 2709755 2713822 
3964.818 2720691 2729927 2740697 2751800 2762037 2770140 2775509 2778343 
3968.675 2779277 2779644 2780778 2783712 2789014 2796851 2806355 2816727 
3972.533 2826966 2836170 2843408 2848377 2851112 2851712 2851045 2849944 
3976.390 2849044 2848744 2849378 2850045 2850278 2849378 2846709 2842340 
3980.248 2837071 2831068 2825532 2821163 2818561 2817694 2819062 2821829 
3984.105 2825932 2830567 2835170 2838738 2840973 2841640 2840740 2839172 
3987.962 2837771 2837404 2839005 2842240 2846476 2851112 2855047 2857449 
3991.820 2857916 2856415 2853713 2850412 2847643 2845942 2846109 2848377 
3995.677 2852313 2857049 2861418 2864453 2865053 2863119 2859450 2855181 
3999.535 2852146 2851312 2853647 
##END=
