
##TITLE=L1760A_4
##JCAMP-DX=5.01  $$ Nicolet v. 1
##DATATYPE=INFRARED SPECTRUM
##ORIGIN=UniL
##OWNER=Nicolet
##LONGDATE=2011/08/18
##TIME=14:54:05
##SPECTROMETER/DATA SYSTEM=Nicolet iS5
##DATA PROCESSING=
Ratio against background
%Transmittance->Absorbance
Truncated
ElementMultiply or ElementDivide
##COMMENTS=
Number of sample scans: 32
Collection length: 51.19 sec
Sample gain: 2.0
Background collected on: Jeu Aout 18 14:51:47 2011 (GMT+02:00);
Number of background scans: 32
Background gain: 2.0
Sample spacing:  1.000
Number of scan points: 12415
Resolution points: 8192
Number of FFT points: 65536
Apodization: N-B fort;
Phase correction: Mertz;
Laser frequency: 15798.0 cm-1
Number of rejected sample scans: 0
Number of rejected background scans: 0
Bench serial number: ASB1000141;
##RESOLUTION=4.000
##XUNITS=1/CM
##YUNITS=ABSORBANCE
##FIRSTX=649.893372
##LASTX=4000.122314
##FIRSTY=0.081661
##MAXX=4000.122314
##MINX=649.893372
##MAXY=0.184439
##MINY=0.000219
##XFACTOR=1.000000
##YFACTOR=1.000000E-009
##NPOINTS=6950
##DELTAX=0.482117
##ZPD=6100
##XYDATA=(X++(Y..Y))
649.893 81660584 80955360 80306928 79720048 79200592 78756080 78395792 
653.268 78124760 77940800 77833768 77788536 77787632 77816480 77867496 
656.643 77938536 78031720 78151888 78302496 78486568 78704960 78958584 
660.018 79247400 79572176 79933440 80331360 80764608 81229520 81716776 
663.393 82213264 82698520 83147456 83530504 83811848 83955696 83936568 
666.767 83760128 83486416 83236672 83155888 83327904 83744696 84324056 
670.142 84963936 85573440 86089992 86485792 86758000 86926760 87021888 
673.517 87072904 87097808 87098528 87069056 87000512 86890048 86740736 
676.892 86559712 86350920 86112656 85838424 85521592 85161536 84766136 
680.267 84350288 83929736 83515048 83108864 82707192 82305640 81904024 
683.642 81509136 81132096 80783248 80467608 80181576 79916560 79663760 
687.016 79420464 79190776 78984584 78812608 78682400 78595872 78552944 
690.391 78555768 78612744 78741856 78968728 79319544 79818472 80482088 
693.766 81316144 82317776 83473800 84764160 86159120 87621080 89107144 
697.141 90566336 91947904 93207864 94312224 95246312 96014248 96638768 
700.516 97152832 97592616 97992856 98377928 98759640 99134064 99483024 
703.890 99774264 99968424 100031120 99939816 99693720 99316280 98850904 
707.265 98350040 97858728 97410288 97018624 96684680 96405016 96179648 
710.640 96015400 95924728 95917712 95995944 96149344 96358840 96601608 
714.015 96857120 97113248 97364640 97609872 97847640 98074624 98287720 
717.390 98487736 98684232 98896296 99147048 99459984 99849696 100319728 
720.765 100864616 101475400 102145432 102873264 103661088 104509888 
723.657 105412936 106355576 107316736 108274192 109213696 110130048 
726.550 111026256 111907600 112774752 113621384 114437368 115214632 
729.443 115956160 116678360 117409880 118183512 119026696 119960080 
732.335 120997904 122154880 123454264 124928400 126613288 128540056 
735.228 130721312 133147400 135785696 138592416 141521616 144531744 
738.121 147590672 150669712 153739952 156778224 159776384 162756976 
741.013 165772640 168895360 172169280 175556224 178873888 181776000 
743.906 183806704 184439472 183247168 180023536 174840464 168046048 
746.799 160166224 151822688 143568064 135840656 128946200 123030392 
749.692 118127976 114191336 111127240 108819200 107149328 106021656 
752.584 105366016 105153392 105395072 106133200 107413000 109248936 
755.477 111587712 114284400 117112080 119761488 121913200 123295528 
758.370 123717416 123120440 121573720 119261704 116428096 113342128 
761.262 110263792 107391232 104867376 102772712 101127144 99905696 99048432 
764.637 98479632 98114200 97874616 97703264 97560096 97425720 97295992 
768.012 97173136 97061544 96962032 96872200 96788760 96709264 96634552 
771.387 96568368 96515696 96481056 96466744 96472656 96496984 96537872 
774.762 96592744 96656616 96720240 96764456 96758072 96660752 96419784 
778.136 95979328 95289512 94307688 93008872 91388400 89461152 87260696 
781.511 84834608 82245208 79559328 76844784 74166824 71575408 69106384 
784.886 66780784 64606308 62584668 60714768 58995116 57422604 55990612 
788.261 54688604 53501476 52412872 51408924 50478892 49616180 48816164 
791.636 48073836 47383252 46737192 46129780 45558216 45022724 44525476 
795.010 44068804 43652328 43273444 42928792 42615408 42332052 42078016 
798.385 41849624 41636600 41422588 41184852 40900788 40556416 40148964 
801.760 39690732 39203108 38712912 38242264 37804300 37403536 37037164 
805.135 36700344 36388972 36100936 35835436 35589768 35359232 35137620 
808.510 34919028 34700440 34481780 34265848 34054216 33846232 33637848 
811.885 33423730 33200454 32969036 32735310 32508642 32297290 32104992 
815.259 31929426 31763882 31600286 31432762 31260248 31085276 30911834 
818.634 30742372 30576388 30410432 30241094 30066602 29888702 29711690 
822.009 29540496 29378516 29226628 29083790 28949110 28823926 28711698 
825.384 28616770 28542562 28488814 28451418 28423860 28399842 28374410 
828.759 28345724 28313328 28275772 28230048 28170932 28093160 27994018 
832.133 27875892 27745366 27612972 27488946 27379994 27289520 27216878 
835.508 27160402 27119064 27093144 27083340 27089052 27106934 27131198 
838.883 27155216 27174264 27187564 27198534 27213314 27238078 27277276 
842.258 27332000 27401662 27484852 27581512 27693308 27822652 27971260 
845.633 28139044 28324150 28524586 28739556 28970610 29220886 29493754 
849.008 29790180 30107900 30441528 30784444 31131514 31480108 31830262 
852.382 32183092 32539032 32895942 33249672 33594960 33928340 34248888 
855.757 34558656 34860824 35157524 35448168 35728720 35993328 36236016 
859.132 36453000 36643384 36808776 36952016 37076028 37183908 37278776 
862.507 37366880 37457416 37562464 37696736 37874140 38106884 38405048 
865.882 38776560 39229036 39771704 40414860 41170096 42050304 43067076 
869.256 44232948 45560792 47063496 48753288 50636276 52707184 54940240 
872.631 57282928 59655924 61943316 64007884 65704756 66886136 67436216 
876.006 67283568 66411728 64863532 62734364 60162928 57299980 54302520 
879.381 51315612 48449192 45784628 43369800 41222632 39342964 37718744 
882.756 36332804 35164636 34192780 33395960 32751712 32240224 31845878 
886.131 31556674 31365198 31266480 31256120 31329724 31482388 31710554 
889.505 32013204 32392956 32855876 33409916 34063852 34826788 35708108 
892.880 36719488 37876852 39197812 40701876 42403032 44303464 46383736 
896.255 48596100 50862368 53064704 55060504 56696956 57818472 58305676 
899.630 58089656 57166388 55598852 53509648 51067296 48445712 45816360 
903.005 43323816 41065048 39099692 37449940 36111376 35063904 34279792 
906.379 33730656 33386838 33221700 33213832 33347480 33615400 34018340 
909.754 34562748 35257196 36106624 37107460 38244324 39486460 40783504 
913.129 42071696 43270480 44288016 45038856 45446436 45459424 45063628 
916.504 44282880 43179636 41838936 40363696 38853444 37389232 36034832 
919.879 34829196 33791036 32925390 32226022 31680186 31268544 30968478 
923.254 30755744 30606392 30501524 30427028 30374148 30337764 30313924 
926.628 30297614 30283084 30264398 30237080 30199640 30153254 30100798 
930.003 30045120 29988596 29932610 29878480 29829394 29790038 29766406 
933.378 29764312 29787234 29835642 29906698 29996654 30101260 30217614 
936.753 30344658 30481512 30627264 30780072 30938056 31099728 31265412 
940.128 31437180 31617642 31809014 32011066 32221456 32436192 32651074 
943.502 32864418 33076684 33290774 33510194 33737676 33974700 34220992 
946.877 34476580 34742360 35020732 35314912 35627212 35957224 36301104 
950.252 36651816 37001084 37341204 37666632 37974584 38265096 38540232 
953.627 38803008 39058728 39313980 39577116 39858316 40167388 40512656 
957.002 40899044 41328848 41800992 42314228 42868296 43464932 44107864 
960.377 44801484 45549644 46354720 47217912 48139688 49121588 50166408 
963.751 51278884 52464464 53728352 55075064 56507204 58025840 59629772 
967.126 61314888 63073456 64891660 66749492 68620384 70469480 72259096 
970.501 73949880 75502600 76885120 78071928 79046224 79800712 80336704 
973.876 80664496 80800848 80771040 80607288 80344160 80020752 79675976 
977.251 79345432 79065624 78870488 78791392 78859248 79099488 79529920 
980.625 80160488 80991776 82018552 83233024 84630304 86208936 87970032 
984.000 89911392 92016776 94243888 96521936 98740008 100754456 102413760 
987.375 103560480 104065408 103850592 102894144 101241872 98995376 96311240 
990.750 93371056 90358512 87454328 84802744 82508328 80639600 79224376 
994.125 78261784 77729888 77596080 77822112 78369592 79206240 80304256 
997.500 81641512 83202032 84971304 86934776 89074232 91360744 93751016 
1000.874 96186552 98584936 100848864 102875160 104556760 105805744 106564176 
1004.249 106811232 106570880 105909760 104935632 103774264 102564160 
1007.142 101442544 100521104 99890352 99613320 99724488 100239336 101158464 
1010.517 102474376 104175024 106247824 108682792 111470944 114606280 
1013.409 118084576 121899784 126040488 130483152 135178208 140044784 
1016.302 144960624 149748832 154203680 158095680 161197824 163338688 
1019.195 164419296 164446000 163529280 161885344 159807600 157602944 
1022.087 155585760 154017984 153073792 152849664 153353344 154525104 
1024.980 156251568 158393328 160804816 163331600 165831424 168172480 
1027.873 170228176 171895856 173097232 173786992 173961104 173654528 
1030.766 172938176 171900384 170643552 169271456 167871264 166515408 
1033.659 165247424 164075952 162972048 161870848 160686416 159315712 
1036.552 157664928 155665328 153277136 150498032 147356480 143906464 
1039.446 140214976 136356304 132410568 128450928 124545544 120755128 
1042.339 117125312 113694904 110497528 107563656 104928256 102629624 
1045.232 100703696 99183936 98093552 97442264 97226936 97433352 98039856 
1048.607 99018720 100339808 101971880 103880096 106029312 108384408 
1051.500 110909336 113572880 116346576 119203016 122114664 125046016 
1054.393 127946480 130752784 133381128 135733120 137711504 139218544 
1057.286 140172880 140522144 140245312 139363744 137940528 136086768 
1060.179 133948312 131688104 129485296 127501848 125873016 124709328 
1063.072 124081408 124027184 124553664 125639408 127234576 129260344 
1065.965 131620704 134197144 136858000 139478816 141937376 144127952 
1068.858 145970192 147399840 148371408 148856656 148840000 148320032 
1071.751 147308880 145832032 143924688 141629664 139000864 136100992 
1074.645 133006824 129817040 126640472 123598176 120816384 118405368 
1077.538 116461160 115057712 114237720 114014328 114363936 115226904 
1080.431 116496816 118025088 119640056 121142880 122344416 123097304 
1083.324 123304688 122948280 122085040 120843480 119394376 117927312 
1086.217 116639424 115694896 115220512 115296936 115947024 117141408 
1089.110 118799080 120806408 123016848 125266712 127402056 129272536 
1092.003 130749928 131739976 132175488 132024840 131290856 130008832 
1094.896 128240096 126059936 123553952 120800944 117867840 114813096 
1097.789 111683048 108518640 105360736 102246848 99213040 96292632 93511904 
1101.164 90893200 88456296 86217832 84195160 82405448 80864144 79585864 
1104.540 78583520 77867536 77447824 77332520 77527512 78035968 78856384 
1107.915 79982472 81401344 83094904 85039088 87201072 89542304 92014200 
1111.290 94553712 97089680 99536608 101797976 103780864 105395624 106568248 
1114.665 107251920 107426024 107099760 106306184 105102152 103558880 
1117.558 101752240 99762632 97661024 95502896 93330544 91169096 89032008 
1120.934 86927688 84863928 82852360 80910408 79059624 77325544 75737360 
1124.309 74323248 73112512 72133120 71407328 70952024 70776376 70880944 
1127.684 71258504 71895560 72774152 73870456 75155672 76595736 78146136 
1131.059 79754408 81361456 82899112 84302728 85516672 86501032 87242304 
1134.435 87755496 88085360 88295352 88463688 88670536 88978816 89430904 
1137.810 90036984 90774264 91586776 92394784 93110672 93640752 93903224 
1141.185 93837248 93399936 92571568 91351592 89756432 87816248 85573640 
1144.560 83084304 80409464 77613952 74764000 71917224 69125344 66432880 
1147.936 63873948 61475984 59258412 57231324 55397684 53753588 52291952 
1151.311 51003460 49879276 48911532 48092156 47412888 46865208 46439996 
1154.686 46129892 45929892 45838012 45854656 45982124 46222644 46578220 
1158.061 47050240 47640156 48349556 49180436 50133944 51208976 52399864 
1161.437 53695092 55077772 56522604 57997476 59465784 60883148 62201564 
1164.812 63373476 64349128 65085104 65547048 65710768 65567092 65121480 
1168.187 64393088 63410096 62207180 60823420 59296164 57663644 55963736 
1171.562 54230172 52494824 50785488 49122924 47525028 46005736 44576324 
1174.938 43247672 42028736 40925440 39941020 39074608 38322924 37681124 
1178.313 37144744 36710008 36373368 36130784 35976768 35903344 35901256 
1181.688 35960568 36070908 36222904 36407056 36613568 36833124 37056144 
1185.063 37274880 37484400 37682748 37870884 38050932 38224968 38393468 
1188.438 38555152 38707444 38847900 38975248 39089688 39192628 39286124 
1191.814 39372784 39455976 39540896 39636064 39753692 39909600 40122068 
1195.189 40407840 40781688 41253200 41826312 42497656 43255984 44082156 
1198.564 44945324 45804692 46613376 47316260 47860696 48203064 48311668 
1201.939 48174668 47800956 47219428 46472780 45613012 44698128 43780764 
1205.315 42909736 42125984 41457180 40920816 40522332 40258224 40118072 
1208.690 40087944 40153252 40298396 40507600 40765308 41054340 41358000 
1212.065 41662056 41955084 42231036 42489292 42733956 42971732 43210340 
1215.440 43457608 43719456 44000456 44303464 44629160 44975312 45336524 
1218.816 45704624 46069208 46419128 46745496 47041636 47304732 47534972 
1222.191 47735008 47908752 48060328 48194956 48318520 48437376 48558932 
1225.566 48689272 48831996 48988340 49156540 49333936 49519060 49713320 
1228.941 49922764 50157856 50430956 50755808 51144972 51607952 52151412 
1232.317 52778116 53487048 54272672 55125392 56031848 56974580 57933748 
1235.692 58889312 59818724 60700132 61511144 62226152 62818444 63258932 
1239.067 63516468 63563228 63375936 62939116 62248100 61308476 60136212 
1242.442 58754776 57196284 55500308 53709604 51872932 50039048 48250716 
1245.818 46546980 44957672 43503572 42199920 41055364 40073376 39252432 
1249.193 38585608 38061852 37666164 37383096 37197840 37096636 37068596 
1252.568 37103204 37190548 37321528 37488048 37684196 37907548 38158688 
1255.943 38440056 38753884 39099296 39469876 39853376 40229576 40572240 
1259.319 40852012 41035516 41092220 40997240 40734044 40299160 39703116 
1262.694 38971184 38138320 37246320 36338712 35451768 34614596 33847088 
1266.069 33160508 32560744 32050050 31627726 31290588 31032496 30845592 
1269.444 30720606 30649486 30626588 30648952 30715164 30824746 30976022 
1272.820 31166292 31392374 31651888 31944692 32272700 32639820 33049942 
1276.195 33506006 34009816 34561744 35162268 35811436 36509040 37252964 
1279.570 38036860 38850724 39678828 40501780 41299952 42052972 42743060 
1282.945 43355996 43878920 44301740 44615868 44813976 44891716 44848032 
1286.321 44686152 44412788 44038152 43574700 43035684 42436420 41795448 
1289.696 41132940 40473668 39843604 39266064 38760004 38334940 37989596 
1293.071 37710576 37474936 37253724 37013640 36724180 36363032 35917740 
1296.446 35390540 34797316 34166972 33533354 32931502 32392174 31935312 
1299.822 31571958 31303904 31127348 31035238 31018866 31068868 31174090 
1303.197 31321212 31496636 31684928 31872336 32046876 32197900 32315280 
1306.572 32389994 32412056 32373786 32270812 32105024 31884744 31625304 
1309.947 31346284 31067446 30807602 30582750 30405314 30286032 30234096 
1313.323 30256298 30357448 30538918 30798494 31131798 31533654 32000936 
1316.698 32532744 33130466 33796840 34533940 35341764 36217972 37157992 
1320.073 38155468 39201692 40283964 41384280 42476100 43523276 44484908 
1323.448 45316076 45976304 46439448 46697228 46764608 46674872 46479124 
1326.823 46234628 45993652 45802592 45692076 45675584 45751308 45905260 
1330.199 46116664 46362792 46625992 46896180 47172408 47462004 47777984 
1333.574 48136020 48550076 49030848 49584424 50210596 50902712 51646316 
1336.949 52421844 53201084 53950508 54635504 55220052 55674368 55978892 
1340.324 56125572 56118336 55969580 55696968 55319436 54856656 54330044 
1343.700 53762064 53175988 52594784 52035380 51508668 51018852 50565692 
1347.075 50149824 49776600 49457640 49212572 49065904 49042272 49167040 
1350.450 49463024 49948972 50642272 51555864 52697680 54068176 55658700 
1353.825 57449604 59406440 61482360 63616424 65732008 67747664 69575984 
1357.201 71127744 72326488 73106472 73421312 73250904 72602384 71510912 
1360.576 70032176 68246232 66250020 64148208 62056976 60084236 58312612 
1363.951 56791956 55528284 54490448 53619364 52846256 52105648 51343880 
1367.326 50531036 49661796 48754508 47842568 46967904 46172344 45487348 
1370.702 44935000 44524852 44255840 44118980 44101188 44189844 44374580 
1374.077 44648292 45005780 45440184 45941092 46494204 47081852 47687484 
1377.452 48297448 48901112 49492248 50066488 50619412 51145308 51636684 
1380.827 52085808 52487460 52840796 53150824 53426640 53679460 53918508 
1384.203 54149320 54374276 54595640 54819740 55060884 55341000 55684236 
1387.578 56111848 56633044 57242704 57923260 58649520 59393520 60124720 
1390.953 60815036 61435484 61954624 62343288 62573300 62624812 62493900 
1394.328 62198428 61776008 61269788 60716672 60133512 59517080 58853568 
1397.704 58133368 57364328 56580044 55833008 55177460 54655608 54281120 
1401.079 54042584 53911344 53854664 53842548 53850088 53860812 53862764 
1404.454 53848212 53812844 53755992 53680096 53589524 53488772 53381152 
1407.829 53268164 53151084 53033968 52924848 52838060 52791064 52799372 
1411.205 52873164 53013416 53212580 53457480 53735216 54036352 54356212 
1414.580 54694200 55051292 55427500 55821700 56233236 56665772 57130484 
1417.955 57648776 58249068 58954316 59775680 60703528 61711992 62769056 
1421.330 63845812 64921052 65977588 67002452 67985792 68918984 69798264 
1424.706 70624656 71402048 72132096 72808904 73415112 73925248 74307680 
1428.081 74533064 74584760 74461904 74180784 73766304 73248624 72656704 
1431.456 72017176 71357880 70704896 70076528 69479888 68903912 68321448 
1434.831 67696048 66999204 66230224 65431780 64680024 64054080 63600280 
1438.207 63314976 63155992 63064568 62989712 62895300 62765688 62603608 
1441.582 62422356 62237852 62060452 61894976 61741212 61597848 61464496 
1444.957 61341180 61226448 61116624 61007520 60899392 60802536 60739040 
1448.332 60738928 60833712 61044888 61382436 61845692 62427712 63118592 
1451.708 63903576 64763600 65667288 66568272 67409592 68112400 68580104 
1455.083 68707944 68394592 67590968 66345744 64828180 63261732 61824412 
1458.458 60596088 59565728 58684756 57906300 57203276 56565664 55989408 
1461.833 55465296 54976752 54504156 54035716 53578728 53166220 52845508 
1465.208 52665736 52656796 52821000 53139628 53582512 54117640 54710660 
1468.584 55326472 55927820 56469584 56905828 57194436 57304628 57232080 
1471.959 57005864 56689784 56356052 56063556 55841144 55689020 55594412 
1475.334 55545872 55540408 55581188 55671692 55808440 55978664 56162676 
1478.709 56341036 56497204 56621868 56712660 56771792 56804192 56815260 
1482.085 56810276 56793392 56766696 56728708 56672984 56586840 56452676 
1485.460 56252884 55973160 55606612 55153460 54617504 53999284 53293148 
1488.835 52488840 51581908 50585908 49538148 48494132 47506656 46610428 
1492.210 45808300 45075096 44367244 43637348 42845296 41967124 40998916 
1495.586 39956060 38865800 37755792 36645580 35545140 34461616 33404086 
1498.961 32387604 31428918 30543254 29739898 29020768 28384632 27829046 
1502.336 27351268 26946880 26605112 26305290 26013414 25687460 25290096 
1505.711 24808156 24273730 23762048 23357594 23104768 22994428 22981710 
1509.087 23018534 23070174 23119970 23167638 23219680 23283126 23360324 
1512.462 23448618 23542740 23638874 23736290 23836528 23941482 24051784 
1515.837 24167402 24290446 24427930 24591228 24791422 25033894 25314086 
1519.212 25617054 25921288 26208774 26473452 26729516 27004666 27326780 
1522.588 27705986 28129180 28568746 28995050 29390146 29750970 30092276 
1525.963 30438792 30816458 31240276 31710662 32219026 32755536 33316176 
1529.338 33903188 34521992 35176100 35862172 36573304 37301920 38047312 
1532.713 38820724 39645064 40546156 41534576 42603128 43727480 44880288 
1536.089 46035832 47176988 48298524 49399832 50487004 51569596 52657208 
1539.464 53753964 54853536 55947456 57024072 58076172 59103604 60106836 
1542.839 61083940 62026816 62923028 63757964 64520084 65206252 65819136 
1546.214 66360028 66821092 67176352 67383240 67395080 67172520 66706984 
1549.590 66027812 65196516 64274356 63291476 62234940 61056020 59699944 
1552.965 58138936 56400268 54569600 52768504 51095364 49594116 48236536 
1556.340 46935456 45564360 43987916 42110980 39937060 37623848 35441264 
1559.715 33631544 32284838 31346892 30697030 30217684 29821730 29447762 
1563.091 29060124 28644446 28208514 27776908 27382818 27054422 26801760 
1566.466 26613320 26460316 26309268 26130436 25909296 25651322 25380788 
1569.841 25131134 24928888 24786930 24702186 24662380 24651088 24651052 
1573.216 24644670 24611706 24531798 24390322 24187334 23946242 23712144 
1576.592 23537422 23456034 23472610 23567890 23713334 23883330 24061728 
1579.967 24243704 24431820 24631800 24847624 25079702 25325746 25582752 
1583.342 25850248 26130260 26426404 26741568 27076534 27430390 27802412 
1586.717 28193878 28609586 29056582 29541064 30067312 30635940 31245294 
1590.093 31893588 32580782 33307980 34075680 34880716 35715300 36566600 
1593.468 37419388 38260248 39077652 39862672 40607272 41301772 41934352 
1596.843 42492724 42965700 43345416 43628592 43814264 43902860 43894024 
1600.218 43786520 43579248 43273992 42878468 42406756 41881040 41328740 
1603.594 40775828 40246048 39756236 39316012 38931208 38606680 38348188 
1606.969 38162160 38052776 38019536 38055956 38152608 38300740 38496604 
1610.344 38742688 39044552 39406704 39827520 40297484 40799268 41314344 
1613.719 41823684 42310540 42763060 43174000 43545180 43889552 44235296 
1617.094 44618440 45067928 45599028 46206800 46870856 47560848 48245200 
1620.470 48899440 49506172 50062848 50581292 51084516 51597356 52138412 
1623.845 52714588 53321508 53949080 54587596 55231340 55877396 56524564 
1627.220 57173340 57827596 58497620 59199592 59956556 60790756 61715696 
1630.595 62733180 63830688 64988160 66179244 67383200 68590424 69803048 
1633.971 71037080 72318352 73679256 75143192 76720656 78411192 80199864 
1637.346 82071256 84009608 85998864 88018640 90044480 92056256 94037000 
1640.721 95979328 97885336 99756416 101584824 103349152 105007496 106508504 
1644.096 107804056 108857040 109657552 110226216 110618912 110908400 
1646.990 111171584 111477712 111870680 112372072 112980576 113673768 
1649.883 114403568 115088464 115621256 115861048 115677776 115030720 
1652.776 114069648 113122848 112499352 112316544 112472816 112780888 
1655.669 113063704 113210056 113172344 112946272 112555584 112029328 
1658.562 111387944 110632464 109748624 108715088 107513912 106137520 
1661.455 104593104 102902200 101103264 99249472 97401128 95614584 93926624 
1664.830 92342072 90830832 89328944 87751840 86003136 83998312 81684264 
1668.205 79058312 76175792 73139248 70075120 67098268 64291456 61696028 
1671.581 59314096 57116876 55050352 53044784 51029660 48959668 46844468 
1674.956 44768096 42871332 41287636 40092088 39274700 38768408 38488528 
1678.331 38370268 38384456 38532884 38833152 39297148 39916720 40668036 
1681.706 41526772 42489988 43595256 44922616 46569256 48582464 50924100 
1685.082 53484276 56146388 58849052 61590784 64402312 67310888 70314992 
1688.457 73379960 76430168 79375072 82137952 84667264 86949552 88998776 
1691.832 90839736 92491400 93957512 95221312 96253336 97023512 97524384 
1695.207 97790616 97908032 97980112 98064400 98141192 98104976 97799368 
1698.583 97034616 95651296 93607176 91064912 88378320 85909520 83850512 
1701.958 82160368 80667408 79167512 77502480 75580984 73385768 70967120 
1705.333 68422096 65863052 63374400 60998744 58739340 56575932 54476696 
1708.708 52404912 50325692 48209620 46042168 43828300 41594444 39379312 
1712.083 37217404 35133632 33132754 31204314 29334558 27518848 25768074 
1715.459 24105998 22557358 21135260 19833314 18638282 17542496 16555751 
1718.834 15703484 15008371 14474080 14077737 13776382 13518234 13262323 
1722.209 12987411 12700355 12427707 12203176 12046273 11953215 11898316 
1725.584 11848736 11780231 11684235 11567569 11442159 11314063 11176419 
1728.960 11012479 10804710 10547269 10248761 9927573 9597782 9257375 8883111 
1732.817 8440312 7902697 7283929 6645586 6074603 5633716 5331520 5132318 
1736.675 4979760 4823502 4629389 4389707 4119147 3848455 3605896 3404245 
1740.532 3237436 3089045 2946176 2807222 2681715 2582642 2516751 2478460 
1744.389 2452602 2422180 2378467 2324465 2273268 2238229 2225807 2228804 
1748.247 2231369 2215016 2171458 2106427 2038744 1989211 1969240 1975930 
1752.104 1995369 2012146 2018703 2017771 2018470 2029323 2051993 2079359 
1755.962 2098070 2097704 2077328 2048231 2027625 2029722 2058052 2103897 
1759.819 2150213 2180782 2189107 2181614 2174988 2186243 2223475 2281095 
1763.677 2344586 2398691 2436075 2458533 2474894 2494689 2522216 2553712 
1767.534 2579976 2591475 2585442 2567377 2547179 2532448 2522250 2506653 
1771.391 2471062 2406187 2315904 2218114 2134929 2081756 2058119 2050961 
1775.249 2040741 2013044 1963282 1898615 1832029 1775899 1734048 1699951 
1779.106 1660701 1604926 1530437 1445689 1366640 1306084 1268332 1245703 
1782.964 1224636 1191708 1141907 1080751 1021496 976762 951956 942592 938308 
1787.303 929575 912774 892287 876749 873562 882526 895475 898496 880766 
1791.643 840595 789838 746853 727769 737361 767631 803248 830934 844745 
1795.982 847998 849226 856497 872234 891391 904705 903610 886676 861079 
1800.322 839200 831598 841491 862871 885215 899293 902414 900156 901551 
1804.662 914201 938906 968991 994097 1005787 1002068 988717 975567 970917 
1809.001 976397 985994 989182 977725 950628 915297 882925 862905 856962 
1813.341 859087 859053 848529 826519 799995 781174 779879 799663 834686 
1817.680 874359 907694 930472 945879 962151 986193 1018972 1054278 1082644 
1822.020 1095466 1090749 1073277 1052817 1038701 1034881 1038601 1043151 
1825.877 1042985 1037538 1030796 1028305 1032623 1039597 1040394 1025150 
1829.735 989780 939968 890196 855302 843815 853542 873695 890461 893914 
1834.074 882260 861809 843417 835217 838536 846969 851351 844479 827282 
1838.414 806966 794584 797605 815564 839798 858257 860846 844147 813107 
1842.754 777556 748214 730523 722591 718343 713199 707988 708154 719969 
1847.093 745160 779149 812278 834387 839499 830204 816195 809058 816328 
1851.433 837640 865195 889100 901418 901651 895674 892055 896405 908026 
1855.772 919946 924063 915530 896405 874259 858257 853775 858854 865627 
1860.112 865262 853144 832860 813971 806667 816991 842487 874159 900588 
1864.452 914367 915530 910084 906233 908158 912907 911844 895575 860747 
1868.791 813771 768859 741277 738655 757441 785589 809788 821108 818817 
1873.131 809390 801954 802418 809755 816626 814601 799597 774768 749542 
1877.470 733909 733975 746820 764146 775066 773838 762221 748977 743600 
1881.810 751367 769822 790435 803049 802651 791730 779879 777490 789472 
1886.150 812145 834586 844844 835250 807132 770386 738755 722292 723056 
1890.489 734705 747882 755350 756279 755782 759831 771880 789771 806568 
1894.829 815000 812244 802086 793190 793190 805008 823797 841259 848994 
1899.168 845309 836412 833557 847467 881098 927749 973773 1005123 1013592 
1903.508 1000540 975998 952653 938640 935021 935253 931235 918086 897600 
1907.848 876948 864498 863701 871039 877579 873661 855634 827249 798103 
1912.187 778352 773174 780145 791531 798169 795281 784261 771282 762586 
1916.527 760196 759864 753690 735270 704404 668330 637867 621309 618456 
1920.866 621873 619484 602131 568587 527316 492617 477558 485884 511459 
1925.206 540785 561023 566563 561355 555847 560625 580067 610028 639526 
1929.546 657446 659470 649282 637535 634118 643309 660864 677423 683927 
1933.885 677622 663717 652501 652833 665742 683496 693784 686483 659138 
1938.225 619617 581626 558402 554587 565502 579204 585508 580034 568919 
1942.564 563478 573464 599908 634914 663916 676361 670487 655222 645499 
1946.904 654127 684359 728864 773241 804111 815863 813871 810053 814800 
1951.244 831333 852480 865328 858622 828876 782269 730955 685023 647159 
1955.583 611123 566364 507313 438020 372951 330903 325199 355076 405683 
1959.923 454405 482965 485983 473312 462167 466678 489831 520814 541018 
1964.262 534582 497726 440939 383596 342906 326194 326393 328979 320822 
1968.602 298176 269794 250797 252355 274734 306133 328548 328582 304111 
1972.942 265915 232000 218839 233127 271452 326890 396364 485983 608933 
1977.281 774768 979950 1202407 1409121 1566549 1655845 1679061 1656843 
1981.139 1617963 1584074 1564288 1551785 1532831 1495592 1440037 1377177 
1984.996 1324064 1293256 1285746 1291030 1293456 1280462 1250554 1212873 
1988.854 1181741 1168418 1173302 1186824 1194998 1189050 1169382 1147422 
1992.711 1137721 1148950 1178153 1212076 1232843 1227992 1198420 1155960 
1996.568 1117889 1098057 1099054 1111544 1120247 1111843 1083242 1042254 
2000.426 1002998 976662 966766 965637 962018 945879 916592 882659 857725 
2004.765 851550 865594 891291 915530 929210 932066 932265 940765 964508 
2009.105 999876 1034947 1055640 1053747 1032955 1005655 986227 983802 996655 
2013.445 1013758 1022061 1014323 994164 975533 973375 994695 1035313 1079555 
2017.784 1109916 1115231 1097592 1069026 1045709 1037605 1042553 1049063 
2021.642 1043052 1017146 976862 936880 915795 925126 962250 1012529 1056437 
2025.981 1078559 1075170 1054378 1028737 1010337 1002533 1001171 998547 
2029.839 991905 985562 991407 1020899 1079190 1160245 1250554 1333636 
2033.696 1398285 1443195 1474114 1499681 1525217 1549125 1566217 1573001 
2037.553 1570972 1569110 1578488 1606556 1650390 1698554 1733515 1741333 
2041.411 1720508 1681190 1642574 1623018 1632596 1668384 1717448 1764920 
2045.268 1801817 1830898 1863474 1913125 1988911 2088848 2201129 2308076 
2049.126 2392160 2443505 2458466 2440373 2394293 2327697 2248554 2166429 
2052.983 2094707 2046766 2032252 2053325 2101566 2160202 2209421 2234866 
2056.841 2232168 2207057 2171924 2139258 2116383 2102632 2092410 2079459 
2060.698 2062813 2046966 2040342 2049596 2076163 2114385 2154542 2187542 
2064.555 2209788 2223709 2236864 2256315 2284027 2316837 2347884 2371538 
2068.413 2386163 2395725 2406987 2425046 2450303 2476794 2496288 2502787 
2072.270 2495722 2481526 2469763 2469129 2482925 2508019 2536847 2562510 
2076.128 2582942 2601142 2623176 2653745 2692584 2734028 2768940 2790081 
2079.985 2795884 2790915 2784346 2784946 2796684 2818061 2843141 2865420 
2083.843 2881597 2892704 2902644 2914819 2929030 2940939 2943241 2931465 
2087.700 2904846 2868155 2829533 2796351 2771241 2752034 2732361 2706987 
2091.557 2674847 2640243 2611209 2595608 2597575 2614975 2641277 2667613 
2095.415 2688550 2701786 2709621 2714489 2718824 2722124 2722991 2720591 
2099.272 2716523 2714989 2720591 2734861 2756068 2777743 2792983 2797285 
2103.130 2790915 2778710 2767839 2763938 2768106 2777043 2784579 2786313 
2106.987 2781578 2773675 2767739 2767739 2773675 2781344 2785413 2781911 
2110.844 2771274 2757869 2747765 2744264 2746398 2748466 2742897 2724458 
2114.702 2693284 2654511 2617109 2588109 2570177 2560377 2552578 2540446 
2118.559 2521616 2497855 2474661 2457233 2447737 2444105 2441539 2435241 
2122.417 2422813 2405221 2385230 2364941 2344187 2319402 2286258 2242859 
2126.274 2190606 2135029 2082822 2037811 1999430 1961717 1916454 1857384 
2130.132 1784250 1702811 1623550 1556906 1509423 1482160 1471920 1473648 
2133.989 1483323 1500712 1525782 1557970 1593719 1625911 1647330 1653550 
2137.846 1644603 1625679 1603463 1583276 1566051 1549358 1528575 1502807 
2141.704 1474646 1451241 1439040 1442132 1457590 1478103 1494661 1501244 
2145.561 1498185 1491668 1488576 1493430 1504336 1514943 1517436 1507162 
2149.419 1485119 1457723 1431759 1409287 1386218 1351550 1294585 1208753 
2153.276 1095400 962914 824560 692191 574626 479449 417457 404357 462598 
2157.616 612384 859751 1188552 1558502 1917718 2215516 2423046 2535514 
2161.473 2571243 2558211 2522949 2482259 2440839 2397058 2350083 2303046 
2165.331 2264308 2242226 2238529 2246090 2251119 2239162 2200996 2137593 
2169.188 2058718 1977927 1905970 1846803 1797691 1754241 1714354 1682754 
2173.045 1669050 1682388 1726563 1795994 1875487 1946873 1996700 2019070 
2176.903 2017405 2001294 1980557 1961085 1944477 1929666 1916953 1909465 
2180.760 1913292 1932728 1967975 2011879 2053425 2082422 2093009 2087416 
2184.618 2073766 2061881 2058418 2064378 2075298 2086617 2096073 2106560 
2188.475 2123908 2153942 2197166 2248088 2296651 2332527 2350183 2351482 
2192.333 2344153 2337424 2338390 2347451 2361476 2373736 2380633 2382165 
2196.190 2382832 2386963 2397058 2411085 2423746 2429744 2426545 2415949 
2200.047 2403488 2394926 2393726 2399024 2407420 2415550 2422047 2429444 
2203.905 2441006 2459233 2482925 2506486 2523849 2531048 2529282 2526649 
2207.762 2532248 2553778 2592709 2643144 2693884 2734061 2757135 2763471 
2211.620 2759069 2751033 2744031 2737862 2729126 2712422 2686150 2652711 
2215.477 2618309 2589409 2569510 2557044 2547646 2535281 2517117 2494322 
2219.334 2470862 2451236 2438173 2429444 2420947 2408852 2391461 2371138 
2223.192 2352781 2340888 2336724 2338123 2339589 2336125 2325898 2310974 
2227.049 2296284 2287224 2286492 2293120 2304012 2315072 2324432 2332727 
2230.907 2341854 2353514 2367173 2379300 2386563 2387063 2382499 2377368 
2234.764 2378834 2391561 2416049 2449003 2484358 2517351 2545946 2571910 
2238.622 2599042 2630643 2666413 2703553 2736795 2762104 2778810 2790282 
2242.479 2801353 2816394 2836570 2859483 2880596 2896006 2905246 2911117 
2246.336 2918755 2932232 2952548 2976968 3000322 3017305 3025746 3026614 
2250.194 3023544 3020641 3019740 3020841 3021943 3021709 3021042 3022910 
2254.051 3031051 3047902 3072494 3100525 3125888 3143743 3151887 3152454 
2257.909 3149217 3145679 3143510 3141040 3134832 3122050 3102094 3077299 
2261.766 3051939 3030050 3013668 3002424 2994083 2987110 2981472 2979037 
2265.624 2982707 2993983 3011499 3031252 3048402 3059213 3062417 3060448 
2269.481 3057445 3056744 3059914 3065286 3069157 3068990 3064152 3056410 
2273.338 3049904 3048302 3053007 3063184 3075798 3087444 3096554 3103462 
2277.196 3109969 3118446 3130127 3144878 3161766 3180223 3200784 3225552 
2281.053 3256431 3294557 3338696 3385544 3430794 3470872 3503706 3529760 
2284.911 3550639 3567876 3582209 3592398 3596808 3594236 3584881 3570583 
2288.768 3554581 3539782 3527990 3519806 3514328 3510653 3508315 3507647 
2292.625 3508883 3512157 3516399 3519839 3520407 3516800 3509384 3499130 
2296.483 3488040 3477352 3467566 3458247 3448762 3439177 3430260 3423447 
2300.340 3420174 3420608 3423447 3426353 3426820 3423748 3417402 3409688 
2304.198 3402708 3397833 3395295 3393191 3389384 3382205 3371118 3356960 
2308.055 3340799 3323337 3304339 3282638 3256999 3227322 3194910 3162333 
2311.913 3132796 3108201 3089379 3075097 3063384 3052373 3041261 3030017 
2315.770 3019140 3008897 2998287 2985876 2970996 2953816 2936736 2923592 
2319.627 2918722 2925127 2943574 2971530 3003558 3033120 3052306 3054175 
2323.485 3033287 2985742 2911117 2811691 2693351 2564277 2434708 2314139 
2327.342 2209421 2123741 2055689 2001327 1955560 1914923 1878415 1848067 
2331.200 1826605 1816157 1817122 1827603 1844573 1865271 1887933 1912027 
2335.057 1937321 1963315 1988512 2010981 2028624 2040807 2048431 2053192 
2338.915 2056987 2061082 2065177 2068206 2069438 2069105 2069238 2072301 
2342.772 2080291 2094175 2113586 2137859 2167795 2205625 2255382 2320635 
2346.629 2402022 2496422 2596342 2692251 2774142 2833736 2866287 2870557 
2350.487 2848877 2805588 2746498 2677248 2602575 2526282 2451435 2380566 
2354.344 2315371 2257180 2205558 2159470 2117182 2077894 2041274 2008318 
2358.202 1979758 1955227 1933727 1912493 1889031 1862143 1832162 1801418 
2362.059 1772572 1748319 1729889 1717548 1711061 1710629 1717149 1731786 
2365.917 1755206 1786679 1823943 1863940 1904240 1943944 1984584 2028723 
2369.774 2079492 2138858 2206358 2279863 2356113 2432642 2507453 2579976 
2373.631 2650711 2720224 2788848 2857082 2925627 2995218 3067455 3143176 
2377.489 3222448 3303938 3384776 3462055 3533101 3596842 3653809 3706038 
2381.346 3755733 3804732 3853303 3900808 3945978 3987743 4025732 4060447 
2385.204 4092990 4124298 4154873 4184881 4214122 4242494 4270300 4297706 
2389.061 4324812 4350983 4375415 4396903 4414275 4427497 4436836 4443096 
2392.918 4446912 4448619 4447916 4444502 4438610 4431279 4424015 4418793 
2396.776 4416818 4417990 4421237 4424651 4426493 4425689 4422342 4417321 
2400.633 4411898 4406676 4401723 4396936 4392184 4387799 4385054 4384652 
2404.491 4387799 4394593 4404501 4416484 4429673 4443765 4458930 4475434 
2408.348 4493244 4511523 4529101 4544704 4557762 4568945 4579426 4590677 
2412.206 4603838 4618706 4634312 4649550 4663583 4676712 4689774 4703842 
2416.063 4719417 4735797 4751240 4764103 4773785 4780820 4787118 4795058 
2419.920 4806448 4821358 4838646 4856036 4871482 4884082 4894000 4902679 
2423.778 4911459 4921278 4932303 4943832 4955595 4967459 4979760 4993099 
2427.635 5007345 5021891 5035132 5045892 5053468 5058530 5062686 5068251 
2431.493 5076364 5087494 5100535 5113644 5125043 5134129 5140835 5146166 
2435.350 5151061 5156057 5161254 5166619 5172218 5178891 5187509 5198843 
2439.208 5212759 5228252 5243411 5256356 5266451 5273896 5280235 5287279 
2443.065 5296133 5307168 5319679 5332728 5345809 5359160 5373652 5390325 
2446.922 5409146 5429041 5448434 5465513 5479740 5491853 5503497 5516853 
2450.780 5533095 5551855 5571186 5588974 5603105 5613039 5619384 5623915 
2454.637 5628111 5632978 5638281 5643081 5646438 5647646 5646740 5644122 
2458.495 5640094 5634858 5628816 5622438 5616765 5613509 5613946 5619182 
2462.352 5628647 5640530 5652145 5661376 5667049 5669567 5670842 5672689 
2466.209 5676751 5683297 5691556 5700284 5708879 5717137 5725866 5735972 
2470.067 5747623 5760583 5773779 5786203 5797620 5808231 5819245 5831200 
2473.924 5843995 5856455 5867168 5874892 5879896 5883625 5888898 5897630 
2477.782 5911099 5928632 5948114 5967228 5984125 5998336 6010565 6022156 
2481.639 6034183 6046917 6059886 6072822 6085960 6100678 6118253 6140062 
2485.497 6165973 6194507 6222976 6249463 6272590 6293231 6313435 6335524 
2489.354 6360808 6389152 6418710 6446723 6471105 6491015 6507092 6520848 
2493.211 6533899 6547354 6561516 6576182 6591287 6607064 6624188 6642928 
2497.069 6663115 6683068 6701037 6715237 6724861 6730581 6733980 6736942 
2500.926 6740643 6745355 6750167 6754542 6758244 6762417 6768744 6779379 
2504.784 6794995 6815089 6837775 6860496 6881669 6900252 6917219 6933581 
2508.641 6950415 6967688 6984860 7000517 7013784 7024931 7034561 7044092 
2512.499 7054598 7066285 7078678 7091072 7102927 7114244 7126167 7139741 
2516.356 7155674 7174336 7195053 7216883 7239051 7261153 7283357 7305798 
2520.213 7328443 7350886 7372791 7393990 7414785 7436592 7460154 7486009 
2524.071 7513888 7542207 7569213 7593760 7615340 7634965 7654322 7674590 
2527.928 7696478 7719042 7740898 7760867 7778576 7794701 7811062 7829381 
2531.786 7850602 7874590 7900369 7926858 7953246 7980008 8008054 8038430 
2535.643 8071442 8106245 8140985 8173734 8203312 8229549 8253018 8275036 
2539.500 8296752 8318029 8338903 8358865 8377849 8396360 8415481 8435987 
2543.358 8457913 8480246 8501770 8520692 8536337 8549448 8561141 8573104 
2547.215 8586385 8600884 8615924 8630153 8642693 8653272 8662466 8671085 
2551.073 8679706 8688089 8695492 8701407 8705228 8707256 8708642 8710569 
2554.930 8713678 8718243 8723686 8728722 8732542 8734504 8734334 8732407 
2558.788 8728959 8724226 8718614 8712496 8706715 8702219 8699379 8698534 
2562.645 8699277 8700528 8701272 8701001 8699650 8697892 8696472 8695357 
2566.502 8694241 8692009 8687717 8680753 8671796 8662196 8653441 8646715 
2570.360 8641847 8637623 8632553 8625219 8615113 8603284 8591184 8580370 
2574.217 8571820 8565432 8560161 8554585 8547624 8539041 8528802 8517346 
2578.075 8504946 8491701 8477645 8463015 8448217 8434298 8422068 8412102 
2581.932 8404164 8397576 8391159 8384335 8377139 8370383 8365147 8362479 
2585.790 8362547 8365147 8369877 8375991 8383658 8393523 8405853 8420785 
2589.647 8437575 8455042 8471732 8486564 8499708 8511974 8524815 8539649 
2593.504 8557153 8577396 8599803 8623495 8648168 8673621 8699650 8726086 
2597.362 8752050 8776731 8799316 8819638 8838541 8857477 8877802 8900596 
2601.219 8925826 8952547 8979133 9004470 9027812 9049363 9070339 9091586 
2605.077 9114121 9138112 9163288 9189312 9215947 9243058 9270644 9298266 
2608.934 9325144 9350366 9373117 9393499 9412223 9430746 9450588 9472938 
2612.792 9497864 9524551 9551614 9577762 9602185 9624713 9646055 9666586 
2616.649 9686576 9705923 9724322 9741467 9757631 9773592 9790502 9809176 
2620.506 9830290 9853677 9879098 9905844 9933608 9962289 9991615 10021656 
2624.364 10052106 10082321 10111860 10140959 10169722 10198690 10228304 
2627.739 10258870 10289676 10319942 10348749 10375761 10401146 10425581 
2631.114 10450052 10475440 10501917 10529345 10557250 10585532 10613916 
2634.490 10642540 10671777 10701491 10731480 10760927 10789492 10816667 
2637.865 10842620 10868202 10893955 10920389 10947334 10974315 11000448 
2641.240 11025223 11048402 11070325 11091636 11112643 11133414 11153947 
2644.615 11173597 11192296 11209908 11227044 11243808 11260844 11278288 
2647.990 11296006 11314302 11333109 11353175 11375249 11399944 11427463 
2651.366 11457467 11488869 11520341 11551032 11579684 11606432 11631140 
2654.741 11653705 11674262 11692676 11708912 11723244 11736111 11748502 
2658.116 11760894 11773967 11787585 11801169 11814006 11825480 11834809 
2661.491 11842095 11847442 11851357 11854320 11856908 11859700 11863343 
2664.867 11868383 11875126 11883026 11891198 11897941 11901687 11901074 
2668.242 11895830 11886942 11875874 11864807 11855274 11848156 11843117 
2671.617 11839099 11834843 11829293 11821871 11812711 11802395 11791398 
2674.992 11780299 11769167 11758001 11746801 11735260 11723550 11711841 
2678.368 11700199 11688864 11678414 11669224 11661771 11656256 11652717 
2681.743 11650811 11649722 11648599 11647034 11644481 11641247 11637606 
2685.118 11633998 11630697 11627668 11624877 11622223 11619841 11618002 
2688.493 11617254 11617492 11618411 11619806 11620759 11620827 11619874 
2691.869 11618241 11616471 11615212 11614770 11614872 11615450 11616437 
2695.244 11617969 11620726 11625422 11632739 11642779 11654828 11667727 
2698.619 11680593 11692506 11703398 11713951 11725150 11737677 11752043 
2701.994 11768316 11786121 11805221 11825514 11847169 11870767 11896648 
2705.370 11925152 11955974 11988842 12023041 12057890 12092878 12127426 
2708.745 12161091 12193668 12224884 12255046 12284528 12314216 12344691 
2712.120 12376668 12410522 12446187 12483457 12522060 12561725 12602381 
2715.495 12643929 12686230 12729082 12772109 12815414 12859200 12904186 
2718.871 12951429 13001647 13055149 13111527 13169687 13228026 13285247 
2722.246 13340594 13394207 13446596 13498956 13552041 13606090 13660965 
2725.621 13715883 13770157 13823173 13875066 13925802 13975825 14025649 
2728.996 14075342 14124868 14174196 14223049 14270744 14317144 14361390 
2732.372 14402969 14441743 14477780 14511731 14544381 14576486 14608422 
2735.747 14640259 14671445 14701263 14729301 14755626 14780891 14805849 
2739.122 14831219 14857482 14884329 14911076 14936761 14960699 14982683 
2742.497 15002815 15021749 15039928 15057834 15075637 15093339 15110972 
2745.873 15128298 15145143 15161304 15176229 15189474 15200524 15209205 
2749.248 15215657 15220564 15224681 15228936 15233809 15239506 15245889 
2752.623 15252788 15260029 15267510 15275404 15283675 15292152 15300320 
2755.998 15307769 15313810 15318375 15321430 15323352 15324553 15325548 
2759.374 15326613 15327882 15329358 15331418 15334301 15338385 15343946 
2762.749 15350709 15358398 15366465 15374498 15381946 15388984 15395781 
2766.124 15402785 15410475 15419263 15429288 15440550 15453150 15467056 
2769.499 15481992 15498199 15514853 15532264 15550259 15568906 15588758 
2772.875 15610051 15632858 15656972 15681362 15705202 15727190 15746979 
2776.250 15764158 15779620 15794361 15809445 15825767 15843740 15863501 
2779.625 15884912 15907904 15932411 15958570 15986310 16015291 16044995 
2783.000 16074976 16104547 16133809 16163453 16194200 16227286 16263507 
2786.375 16303308 16346449 16392004 16438803 16485330 16530486 16573237 
2789.751 16613033 16649904 16684335 16716804 16748244 16779514 16810958 
2793.126 16842886 16875266 16907956 16941064 16974518 17008596 17043330 
2796.501 17078516 17113566 17147446 17179468 17208838 17235592 17260276 
2799.876 17283446 17306308 17329134 17352100 17374964 17397208 17418556 
2803.252 17439354 17460118 17481368 17503894 17528076 17553916 17581346 
2806.627 17610674 17641800 17674996 17710370 17747232 17784718 17821448 
2810.002 17856040 17887804 17916738 17943708 17970402 17998548 18029528 
2813.377 18064344 18103100 18145456 18190680 18238086 18286846 18336512 
2816.753 18386354 18436616 18486990 18538164 18590762 18645476 18702550 
2820.128 18761810 18822186 18882326 18940746 18996474 19049336 19100402 
2823.503 19150746 19202068 19255614 19311936 19370794 19431600 19493768 
2826.878 19556568 19619688 19683026 19746270 19809314 19871778 19933384 
2830.254 19993990 20054088 20114434 20175624 20238278 20302820 20369348 
2833.629 20437310 20506532 20576566 20647374 20719030 20791774 20865610 
2837.004 20940464 21016064 21092230 21168412 21244710 21321442 21399368 
2840.379 21479990 21565188 21657300 21758800 21872418 22000528 22145552 
2843.755 22309670 22494854 22703302 22937102 23197732 23485866 23799952 
2847.130 24135702 24485138 24836678 25176004 25485834 25749860 25952944 
2850.505 26083426 26135010 26107318 26005076 25838256 25620146 25366490 
2853.880 25092726 24814014 24543648 24291776 24066562 23873074 23713928 
2857.256 23589440 23498178 23436938 23401374 23386408 23387560 23400674 
2860.631 23423264 23454214 23493700 23542634 23602278 23673618 23756798 
2864.006 23851300 23956362 24070870 24194026 24325768 24465890 24614792 
2867.381 24773146 24940714 25117512 25302704 25494548 25690554 25887386 
2870.757 26081352 26267836 26442814 26603034 26745866 26870876 26978612 
2874.132 27071666 27153066 27226826 27296610 27366088 27437838 27513904 
2877.507 27595564 27683348 27777118 27876704 27981614 28091286 28205510 
2880.882 28323938 28446536 28573206 28703484 28836638 28971176 29104660 
2884.258 29234460 29356820 29467938 29564366 29643646 29704310 29747066 
2887.633 29774780 29791776 29803488 29816156 29835712 29867334 29915608 
2891.008 29985222 30080878 30209230 30379088 30600884 30888102 31255654 
2894.383 31718112 32288942 32976866 33783840 34700508 35705844 36763772 
2897.759 37822084 38820872 39693204 40372276 40806436 40959740 40821472 
2901.134 40405220 39748212 38904396 37932424 36894692 35846304 34829484 
2904.509 33877680 33011292 32241404 31572528 31003920 30531914 30150944 
2907.884 29854592 29636976 29492584 29417410 29408086 29462336 29577170 
2911.260 29748876 29971874 30239424 30542758 30871560 31215814 31564046 
2914.635 31904716 32226556 32518748 32772112 32980226 33139798 33251212 
2918.010 33317998 33345762 33340502 33307194 33249352 33168480 33064600 
2921.385 32937724 32788300 32618318 32431800 32234050 32032110 31833578 
2924.760 31646292 31478182 31336560 31227350 31155080 31122046 31128238 
2928.136 31171028 31246042 31347602 31468742 31602494 31741816 31879182 
2931.511 32007496 32119368 32207358 32265030 32286764 32268170 32206572 
2934.886 32101280 31953394 31765450 31541922 31288452 31011464 30718508 
2938.261 30417362 30115252 29819742 29537588 29274616 29036034 28825838 
2941.637 28646534 28499038 28382332 28293346 28227184 28177648 28138052 
2945.012 28101112 28060604 28010910 27948220 27870276 27776766 27669188 
2948.387 27551008 27426578 27300914 27178250 27062180 26953932 26853642 
2951.762 26760070 26670922 26584010 26497470 26409538 26319126 26225774 
2955.138 26128958 26028788 25925686 25820358 25713438 25605596 25497042 
2958.513 25387498 25276646 25163716 25048920 24933028 24816574 24700818 
2961.888 24586880 24475004 24365368 24258316 24154092 24053394 23957728 
2965.263 23867752 23784412 23707316 23635690 23568346 23504928 23445960 
2968.639 23393646 23350988 23321828 23309766 23317212 23345638 23395184 
2972.014 23464986 23553478 23658082 23775522 23900588 24026674 24145894 
2975.389 24248784 24325696 24368592 24370520 24328396 24242374 24116856 
2978.764 23959268 23779898 23591014 23404240 23230062 23076814 22949082 
2982.140 22848630 22774144 22722084 22687556 22664760 22648354 22632958 
2985.515 22613936 22588002 22553204 22509268 22457658 22401066 22342878 
2988.890 22286336 22233882 22186558 22144366 22106572 22071990 22040056 
2992.265 22010810 21984844 21963828 21949118 21942288 21944170 21954730 
2995.641 21973098 21997496 22025452 22054698 22083178 22109850 22135196 
2999.016 22160684 22188302 22220000 22256794 22298542 22343644 22389868 
3002.391 22435118 22477966 22517956 22555718 22592574 22629958 22668704 
3005.766 22709514 22752356 22796982 22843146 22890890 22939932 22989850 
3009.142 23040544 23091454 23142054 23192488 23242856 23293684 23345568 
3012.517 23398820 23453444 23509264 23565582 23621974 23678378 23734646 
3015.892 23790956 23847590 23904756 23962594 24021210 24080642 24141096 
3019.267 24202960 24266478 24331830 24399294 24469186 24541650 24616930 
3022.643 24695136 24776196 24859728 24944434 25029334 25113090 25194752 
3026.018 25273836 25350296 25424454 25496480 25566444 25633960 25698288 
3029.393 25758896 25815434 25868148 25917526 25964482 26009650 26053804 
3032.768 26096938 26139058 26180054 26219756 26258298 26295574 26331974 
3036.144 26367816 26403552 26439998 26477854 26518214 26561748 26608916 
3039.519 26659718 26713238 26768458 26824140 26879372 26933906 26988236 
3042.894 27042996 27099244 27157616 27218042 27279920 27342024 27403286 
3046.269 27462756 27520400 27576746 27633204 27691258 27752676 27818520 
3049.645 27889072 27963768 28041518 28120872 28200524 28279660 28357820 
3053.020 28435112 28511954 28588528 28665046 28741646 28818474 28895882 
3056.395 28974434 29054740 29137468 29222622 29309674 29397450 29484464 
3059.770 29568978 29649710 29725812 29797206 29864104 29927500 29988240 
3063.146 30047392 30106020 30164582 30223510 30282908 30342312 30401298 
3066.521 30459618 30517092 30574146 30631638 30690662 30752294 30817346 
3069.896 30885506 30956664 31030004 31104888 31181174 31259146 31339482 
3073.271 31422720 31509214 31599074 31691912 31787232 31884462 31983278 
3076.646 32083370 32184626 32286834 32389674 32492966 32596852 32701802 
3080.022 32808810 32918706 33032064 33148990 33268954 33390522 33512450 
3083.397 33633196 33752000 33868332 33982584 34095252 34207192 34319092 
3086.772 34431596 34545132 34659884 34775276 34890696 35005000 35116816 
3090.147 35225180 35329868 35431200 35530364 35628576 35727356 35827340 
3093.523 35929004 36032388 36137772 36245740 36357448 36474084 36596772 
3096.898 36725728 36860316 36999060 37140340 37282640 37425132 37567884 
3100.273 37711332 37856136 38002828 38151344 38301900 38454316 38609364 
3103.648 38767720 38930380 39097952 39270092 39445528 39622048 39796652 
3107.024 39966776 40129556 40283452 40427332 40560708 40683720 40796536 
3110.399 40899844 40994728 41082460 41164124 41240340 41310956 41374584 
3113.774 41429620 41473584 41504460 41520940 41522836 41510988 41486888 
3117.149 41452876 41410992 41363288 41311684 41257244 41200444 41141648 
3120.525 41080348 41016176 40948560 40877344 40803304 40727312 40650716 
3123.900 40574896 40501056 40430096 40362604 40299632 40242120 40191340 
3127.275 40148488 40114328 40088748 40071016 40059680 40053572 40051212 
3130.650 40052700 40058076 40068252 40083656 40104808 40131048 40162084 
3134.026 40196864 40235252 40277164 40323044 40373368 40428644 40488540 
3137.401 40552812 40620664 40690668 40762032 40833808 40905416 40976596 
3140.776 41047460 41118228 41189444 41261872 41335700 41411252 41488456 
3144.151 41566732 41645716 41725444 41805992 41888228 41973224 42061660 
3147.527 42153548 42248708 42345640 42442964 42539096 42632988 42724228 
3150.902 42813076 42900008 42985456 43069964 43153688 43236728 43319460 
3154.277 43402240 43485408 43569320 43653904 43738512 43822656 43905168 
3157.652 43985384 44062976 44138084 44211452 44283800 44356344 44429960 
3161.028 44505320 44582600 44661916 44742564 44823528 44903768 44982220 
3164.403 45058152 45131120 45201820 45270948 45339356 45407848 45476384 
3167.778 45544748 45612244 45678528 45743316 45807156 45870820 45935160 
3171.153 46000764 46067664 46135824 46204996 46274836 46345352 46416584 
3174.529 46488748 46561000 46632596 46702284 46768852 46831808 46891416 
3177.904 46948892 47005820 47063388 47122808 47183672 47245436 47307020 
3181.279 47367324 47425932 47482888 47538224 47592644 47645812 47697768 
3184.654 47747804 47795592 47840828 47883784 47925108 47965440 48005624 
3188.030 48046520 48088640 48132356 48177780 48224392 48271232 48316780 
3191.405 48359592 48398372 48432596 48462564 48489536 48515288 48540888 
3194.780 48567124 48593356 48618516 48641388 48661176 48678340 48694128 
3198.155 48710472 48729008 48750248 48773824 48798144 48821096 48841264 
3201.531 48857616 48871040 48882756 48894436 48907712 48923472 48941944 
3204.906 48962636 48985000 49008184 49031628 49054740 49076960 49098028 
3208.281 49117696 49136208 49153868 49171496 49189380 49207748 49226116 
3211.656 49243560 49258888 49271284 49280524 49287320 49292996 49299084 
3215.031 49307100 49317644 49330452 49345296 49361072 49377332 49393816 
3218.407 49410856 49428716 49447800 49467888 49488532 49508588 49527340 
3221.782 49543940 49558460 49571608 49584944 49599724 49617740 49639728 
3225.157 49666328 49696900 49730672 49766156 49801900 49836908 49870244 
3228.532 49901804 49931980 49961644 49991792 50023508 50057488 50094004 
3231.908 50133012 50173588 50214536 50254264 50291464 50325244 50355456 
3235.283 50383064 50409632 50437284 50468284 50503940 50545032 50591080 
3238.658 50640672 50692020 50743368 50793200 50840804 50886136 50929428 
3242.033 50971376 51012924 51054516 51096668 51139492 51183140 51226872 
3245.409 51270644 51313900 51356112 51397660 51438576 51479684 51522060 
3248.784 51566200 51612428 51660832 51710504 51760520 51809984 51858032 
3252.159 51904520 51949328 51992540 52034448 52075012 52113792 52150140 
3255.534 52183992 52214556 52241800 52266160 52288100 52308396 52327756 
3258.910 52346744 52365880 52385432 52405468 52425620 52445248 52463532 
3262.285 52479680 52492620 52501740 52506416 52506640 52502380 52494488 
3265.660 52483868 52471944 52459680 52448312 52437956 52428944 52420608 
3269.035 52412388 52402928 52391228 52375940 52356128 52330748 52298976 
3272.411 52260256 52214444 52161648 52103216 52040500 51975548 51910604 
3275.786 51847244 51786840 51729652 51675648 51623884 51573660 51523892 
3279.161 51474200 51424140 51373232 51321580 51268704 51214308 51158316 
3282.536 51100728 51041920 50982632 50923468 50865052 50807724 50751712 
3285.912 50696672 50643052 50590672 50540268 50492700 50448896 50409560 
3289.287 50374916 50344520 50317656 50292580 50268660 50244628 50220304 
3292.662 50195752 50171504 50147744 50124868 50102484 50080208 50057640 
3296.037 50034736 50011720 49989344 49968412 49950160 49934920 49923064 
3299.413 49914848 49910092 49909272 49912468 49920680 49934136 49952836 
3302.788 49976180 50002912 50031240 50059348 50085564 50108880 50128920 
3306.163 50145880 50160012 50171840 50181916 50190844 50199216 50208216 
3309.538 50219228 50233396 50252108 50276212 50306048 50341468 50381540 
3312.914 50425192 50471076 50518420 50566328 50614276 50662304 50710264 
3316.289 50758376 50806756 50854804 50902376 50948612 50992916 51034576 
3319.664 51073820 51110720 51146276 51181652 51217144 51253420 51290072 
3323.039 51326016 51360440 51391876 51419588 51443088 51462560 51478192 
3326.415 51490464 51499452 51505016 51507024 51505128 51498672 51487664 
3329.790 51471996 51451780 51427424 51399564 51368492 51335004 51299208 
3333.165 51261288 51221168 51178708 51133676 51086084 51035656 50982036 
3336.540 50924360 50861736 50792456 50715364 50629464 50534424 50431292 
3339.916 50321192 50205724 50086420 49963840 49838248 49708972 49575396 
3343.291 49436924 49293736 49146116 48994944 48841188 48686048 48530660 
3346.666 48376408 48224500 48075944 47931360 47790672 47652800 47516304 
3350.041 47379220 47240192 47098728 46955356 46811400 46668712 46528652 
3353.417 46392324 46260016 46131516 46006764 45886220 45770672 45661228 
3356.792 45559100 45464540 45377276 45296068 45219360 45145312 45072852 
3360.167 45001332 44931140 44862468 44796088 44732724 44672896 44616824 
3363.542 44565088 44517508 44473896 44433924 44396932 44361664 44328088 
3366.917 44295432 44263804 44233460 44204920 44178212 44153236 44129100 
3370.293 44104712 44078524 44049332 44016076 43978600 43936952 43891272 
3373.668 43841900 43789084 43732244 43670504 43602288 43525728 43438712 
3377.043 43339816 43227724 43101980 42962480 42809532 42643480 42464812 
3380.418 42273324 42069180 41852144 41622452 41380416 41127004 40863040 
3383.794 40590248 40310068 40023448 39731872 39436640 39138740 38839600 
3387.169 38540632 38243168 37948440 37657092 37368792 37082452 36796156 
3390.544 36507384 36214512 35916696 35615160 35312292 35011860 34717484 
3393.919 34431740 34155752 33888964 33629220 33374350 33122312 32872244 
3397.295 32624070 32378000 32134104 31891592 31648572 31402916 31152552 
3400.670 30896606 30635192 30369956 30103214 29837096 29573340 29312614 
3404.045 29054740 28799318 28545744 28293700 28043286 27794286 27546984 
3407.420 27301020 27055868 26811240 26567068 26323806 26082230 25843426 
3410.796 25607774 25375658 25146652 24920292 24695698 24472692 24251552 
3414.171 24033294 23819412 23611620 23411446 23219576 23035896 22859036 
3417.546 22686894 22516946 22346156 22172612 21995718 21816074 21635428 
3420.921 21457084 21283962 21118458 20961606 20812944 20670726 20532586 
3424.297 20395912 20259178 20121688 19983408 19844966 19706914 19569740 
3427.672 19433680 19298392 19164358 19031644 18901120 18773468 18648970 
3431.047 18527582 18408650 18291064 18173958 18057022 17940186 17824210 
3434.422 17710096 17598218 17489198 17382344 17276998 17172438 17068244 
3437.798 16964284 16860282 16756475 16652659 16547972 16442312 16335784 
3441.173 16229214 16124319 16022991 15926499 15835149 15747426 15660200 
3444.548 15570040 15473545 15369383 15258038 15142811 15028128 14918654 
3447.923 14818156 14727999 14647216 14573162 14502172 14430816 14356287 
3451.299 14277730 14195147 14109637 14022706 13935416 13849170 13764515 
3454.674 13681927 13601782 13524387 13450423 13379821 13312954 13249103 
3458.049 13187755 13127201 13065836 13001818 12933883 12861146 12783882 
3461.424 12703289 12621142 12539727 12461122 12387066 12318546 12255386 
3464.800 12196939 12142077 12089505 12037995 11986423 11934108 11879961 
3468.175 11823845 11765592 11705134 11643528 11581283 11519626 11459135 
3471.550 11400760 11344367 11289782 11236497 11183830 11131544 11079672 
3474.925 11028621 10979004 10931738 10887160 10845508 10806952 10770811 
3478.301 10736268 10702137 10667125 10629908 10590420 10548322 10505311 
3481.676 10462814 10422764 10386722 10355231 10327406 10301959 10276919 
3485.051 10251169 10224233 10197164 10171316 10148658 10130038 10115387 
3488.426 10103991 10094598 10086526 10079676 10075267 10074657 10079167 
3491.802 10088900 10102940 10119864 10137534 10154628 10171045 10187767 
3495.177 10206661 10228949 10255681 10286555 10320993 10357912 10397345 
3498.552 10439394 10484775 10534097 10587535 10643932 10702069 10760519 
3501.927 10818909 10877817 10939587 11006667 11081983 11167138 11262442 
3505.302 11366712 11478220 11594453 11713168 11832493 11951273 12068894 
3508.678 12186171 12304298 12425900 12552925 12687050 12828519 12976144 
3512.053 13126894 13278277 13427423 13573099 13715165 13855361 13994885 
3515.428 14134795 14274648 14413107 14547842 14676894 14798854 14912791 
3518.803 15018319 15114884 15200489 15273104 15330217 15369760 15391010 
3522.179 15394511 15381844 15355171 15315869 15264181 15199322 15119515 
3525.554 15022811 14907853 14774241 14623364 14457295 14278723 14091223 
3528.929 13897439 13700016 13500528 13300039 13099267 12898075 12696875 
3532.304 12494778 12290731 12083372 11871005 11652512 11427565 11197634 
3535.680 10965718 10735692 10511998 10297887 10095140 9903539 9720967 
3539.055 9544738 9371865 9200514 9029774 8859946 8691469 8525558 8362108 
3542.912 8200981 8041232 7882149 7722954 7563650 7404842 7248788 7097943 
3546.770 6955365 6823638 6704300 6597006 6499962 6409194 6320395 6229698 
3550.627 6133979 6032604 5926718 5819849 5715794 5617537 5527054 5443871 
3554.485 5366474 5292678 5220975 5150458 5081191 5013512 4947652 4882942 
3558.342 4818275 4751809 4682673 4610501 4537170 4465055 4398074 4339269 
3562.199 4290478 4251261 4219040 4189230 4155910 4112959 4055631 3981690 
3566.057 3892718 3793903 3694108 3602989 3527656 3472142 3435603 3413228 
3569.914 3398668 3385644 3369716 3348178 3320699 3288347 3253026 3216006 
3573.772 3178321 3139905 3100959 3061215 3021108 2981606 2943307 2907014 
3577.629 2872958 2841340 2811725 2783946 2757802 2733194 2710155 2688450 
3581.487 2667813 2648077 2629409 2612042 2595808 2579843 2562177 2539480 
3585.344 2507253 2461965 2401423 2327930 2246789 2167595 2099935 2051161 
3589.201 2024030 2016673 2023630 2037811 2052359 2063013 2066575 2062447 
3593.059 2051461 2034948 2014309 1991341 1966777 1942014 1917885 1895487 
3596.916 1875720 1858483 1843841 1830898 1818952 1808105 1798690 1791736 
3600.774 1788342 1789274 1794165 1801551 1809569 1815858 1818420 1815625 
3604.631 1806375 1789673 1764820 1731253 1688774 1638550 1583775 1528941 
3608.489 1480032 1442198 1418629 1408889 1409620 1415471 1420457 1420191 
3612.346 1412811 1399515 1384224 1371128 1364347 1365710 1373587 1384523 
3616.203 1393166 1393697 1381332 1353312 1309973 1255970 1198652 1146857 
3620.061 1108986 1090052 1090550 1106727 1132705 1161541 1187223 1206992 
3623.918 1220482 1229720 1237296 1244373 1248992 1245902 1227161 1184864 
3627.776 1115331 1023921 926188 842587 791796 780908 805140 850920 903278 
3632.115 949333 980747 995492 996754 990942 984666 983072 987721 996987 
3636.455 1007979 1018009 1026080 1032689 1039498 1047569 1056935 1065936 
3640.312 1072546 1074539 1071151 1063479 1053846 1045078 1039066 1036376 
3644.170 1035911 1035080 1031028 1021164 1003994 978788 945912 905535 858323 
3648.509 804775 747417 690399 640887 607042 596291 612218 653563 713995 
3652.849 784693 854073 911379 948104 958730 943289 907826 863668 823133 
3657.188 795979 786385 793091 810717 832328 852115 866357 873794 875089 
3661.528 872566 868648 865527 864664 867254 873363 883522 897135 913869 
3665.868 931866 948735 960390 961951 948270 915231 862008 793323 720567 
3670.207 660167 627183 630534 669292 733544 806269 868250 901883 893616 
3674.547 840230 751367 651207 568056 521876 517431 545629 590817 637370 
3678.886 675365 701085 716219 725678 734639 746355 761291 777655 793423 
3683.226 808095 822303 837673 854903 872134 885049 887407 873064 838404 
3687.566 784626 718310 650112 590319 546160 519554 508109 508607 518791 
3691.905 538032 566663 604719 650211 699260 747052 789008 821871 845674 
3696.245 862174 875122 887573 901518 915762 927981 934025 930206 914666 
3700.584 887938 853210 815996 782070 756645 742372 739883 747285 761391 
3704.924 778220 794950 809356 820975 830270 838736 847234 855335 861045 
3709.264 860282 848994 823863 784792 736033 685753 644338 620181 618688 
3713.603 639327 677522 725943 776958 823830 861211 886876 899990 901883 
3717.943 895143 882626 867088 850056 832129 813473 794252 775033 757142 
3722.282 742306 731984 726906 725810 726341 725080 719571 709382 697169 
3726.622 688341 690034 708054 744397 796842 858821 920975 973209 1007913 
3730.962 1020965 1013725 992536 965803 940433 918883 898563 873163 838337 
3735.301 793389 743600 698795 669458 661129 673806 702512 741011 783564 
3739.641 827316 870939 914201 953948 984234 994828 973873 912807 813141 
3743.980 692191 581195 513782 508009 559895 648220 746886 833225 890661 
3748.320 912043 899160 862207 815232 771714 740049 721960 716152 721629 
3752.660 738057 767166 808493 860116 916160 970253 1015585 1047635 1064242 
3756.999 1066036 1055374 1035180 1007913 975998 942725 912774 892619 887905 
3761.339 901651 931767 972246 1013824 1047436 1067564 1073177 1069225 
3765.196 1063877 1065239 1077927 1100648 1126791 1148020 1156990 1150212 
3769.054 1129416 1100449 1071849 1050491 1039963 1039464 1045543 1053381 
3772.911 1058928 1059858 1055773 1048167 1039464 1032224 1028205 1027607 
3776.769 1028604 1027707 1021563 1007548 986559 962483 942492 934124 942559 
3781.108 967995 1005887 1048167 1085733 1111245 1121310 1116892 1102973 
3784.966 1085966 1071816 1063545 1061452 1063479 1067232 1070786 1073576 
3788.823 1075569 1077462 1078758 1079422 1078791 1076831 1074174 1071716 
3792.680 1069690 1067232 1061884 1050624 1031327 1004426 974072 947539 
3796.538 933593 938242 962283 1000939 1044214 1079920 1095831 1084305 
3800.395 1044380 984765 921407 875056 861178 883854 936747 1005023 1071948 
3804.735 1121211 1140811 1125961 1080153 1015850 950329 900754 875620 874558 
3809.074 889997 912574 934755 953649 970187 987854 1009972 1036309 1062349 
3813.414 1080153 1081116 1059360 1015784 960058 909487 882327 889897 932265 
3817.754 998880 1073078 1136259 1173269 1174332 1138286 1073975 1000009 
3821.611 938707 906166 908756 940998 991108 1044314 1088723 1116460 1125296 
3825.951 1118785 1104103 1090118 1083408 1085966 1095400 1105930 1111809 
3829.808 1108488 1095333 1074805 1052650 1035114 1027940 1033320 1051455 
3833.666 1079190 1111477 1142870 1167056 1178319 1173202 1150445 1113039 
3837.523 1067464 1022891 988584 969323 965870 974139 987621 1000108 1007315 
3841.863 1008245 1004559 999278 996322 998647 1007315 1022194 1042055 
3845.720 1065305 1090517 1116759 1143502 1171176 1200712 1233474 1270525 
3849.577 1311036 1352016 1385952 1401576 1385487 1325659 1217791 1072480 
3853.435 917489 787746 710676 695808 734141 806734 893582 979950 1055773 
3857.774 1116759 1162172 1193635 1213638 1224204 1227560 1225201 1218854 
3861.632 1209451 1197124 1180777 1158651 1130080 1097160 1065737 1044247 
3865.489 1040727 1058928 1096230 1142937 1185030 1209019 1204899 1171574 
3869.347 1117922 1062083 1023921 1015385 1036508 1076698 1120679 1154265 
3873.204 1169149 1165196 1150013 1135063 1130977 1144099 1173501 1213206 
3877.062 1253611 1285314 1300734 1295283 1269229 1226928 1178020 1133635 
3880.919 1104867 1098688 1116294 1151940 1194998 1233375 1255406 1253013 
3884.776 1225965 1181907 1135329 1101877 1093207 1111743 1151475 1200746 
3888.634 1246467 1277537 1286776 1272087 1237794 1192805 1147920 1113072 
3892.491 1094403 1092775 1106129 1129383 1157720 1186758 1213471 1235933 
3896.349 1253777 1266804 1274978 1278069 1275842 1268133 1255406 1238891 
3900.206 1220250 1201277 1183336 1166126 1148750 1129648 1108853 1087726 
3904.063 1069723 1059227 1060423 1074971 1101611 1136724 1175661 1213471 
3907.921 1246766 1273815 1294486 1309607 1320342 1327919 1333237 1337292 
3911.778 1341081 1346332 1354043 1364114 1375615 1385487 1390407 1387382 
3915.636 1375183 1355240 1331177 1308344 1291229 1282555 1282522 1289169 
3919.493 1299803 1312266 1325493 1339120 1353445 1368336 1382496 1394196 
3923.351 1401476 1403603 1401110 1396191 1391670 1390307 1393199 1400213 
3927.208 1409587 1419460 1427770 1432956 1433854 1429865 1420124 1404135 
3931.065 1381698 1354243 1324097 1295549 1273151 1260722 1260157 1271190 
3934.923 1291462 1317384 1345634 1373355 1399149 1422817 1444691 1465137 
3938.780 1483290 1498152 1507561 1509390 1502241 1485950 1461746 1433089 
3942.638 1404069 1379471 1362818 1356104 1359395 1370297 1385188 1400080 
3946.495 1411315 1417066 1417133 1413808 1409587 1407692 1410285 1417897 
3950.353 1429366 1442863 1456493 1468495 1478436 1486581 1493896 1500845 
3954.210 1508259 1515973 1523887 1531801 1539615 1547462 1555276 1563124 
3958.067 1570473 1577024 1582046 1585405 1586635 1586170 1584208 1581181 
3961.925 1577590 1573466 1569343 1565751 1563257 1562858 1565219 1570374 
3965.782 1578255 1587832 1597876 1607254 1615136 1621189 1625280 1628472 
3969.640 1631100 1633594 1636188 1638616 1640645 1641776 1642109 1641377 
3973.497 1640113 1638849 1637951 1637818 1638716 1640745 1643439 1646765 
3977.354 1650424 1654282 1658240 1662264 1666123 1669582 1672176 1673473 
3981.212 1673673 1672875 1671943 1671577 1672509 1675070 1678563 1682022 
3985.069 1684583 1685448 1684483 1681989 1679161 1676833 1675635 1675502 
3988.927 1675835 1675968 1675137 1673440 1671444 1669948 1669648 1670646 
3992.784 1672642 1674804 1676301 1676600 1675602 1673972 1672409 1671112 
3996.642 1670147 1669183 1667653 1665058 1661666 1658007 1654781 1652486 
4000.499 1651854 
##END=
