
##TITLE=L1760A_8
##JCAMP-DX=5.01  $$ Nicolet v. 1
##DATATYPE=INFRARED SPECTRUM
##ORIGIN=UniL
##OWNER=Nicolet
##LONGDATE=2011/08/18
##TIME=15:16:01
##SPECTROMETER/DATA SYSTEM=Nicolet iS5
##DATA PROCESSING=
Ratio against background
%Transmittance->Absorbance
Truncated
ElementMultiply or ElementDivide
##COMMENTS=
Number of sample scans: 32
Collection length: 51.20 sec
Sample gain: 2.0
Background collected on: Jeu Aout 18 15:14:17 2011 (GMT+02:00);
Number of background scans: 32
Background gain: 2.0
Sample spacing:  1.000
Number of scan points: 12415
Resolution points: 8192
Number of FFT points: 65536
Apodization: N-B fort;
Phase correction: Mertz;
Laser frequency: 15798.0 cm-1
Number of rejected sample scans: 0
Number of rejected background scans: 0
Bench serial number: ASB1000141;
##RESOLUTION=4.000
##XUNITS=1/CM
##YUNITS=ABSORBANCE
##FIRSTX=649.893372
##LASTX=4000.122314
##FIRSTY=0.089786
##MAXX=4000.122314
##MINX=649.893372
##MAXY=0.201097
##MINY=-0.002091
##XFACTOR=1.000000
##YFACTOR=1.000000E-009
##NPOINTS=6950
##DELTAX=0.482117
##ZPD=6100
##XYDATA=(X++(Y..Y))
649.893 89786496 88781816 87890272 87118416 86466056 85932016 85515744 
653.268 85215280 85021592 84919040 84887896 84907360 84961192 85042152 
656.643 85150128 85290064 85466728 85681264 85929512 86205056 86499784 
660.018 86808216 87128544 87462752 87815312 88192352 88600192 89044248 
663.393 89526136 90041176 90576136 91108968 91603880 92017272 92302768 
666.767 92427536 92398016 92286344 92213072 92281672 92532160 92932816 
670.142 93413984 93901736 94337744 94691112 94952768 95134232 95254320 
673.517 95332264 95376048 95382656 95344192 95256832 95124536 94960112 
676.892 94776960 94581848 94370728 94131272 93849048 93516920 93138184 
680.267 92726264 92297200 91861720 91421640 90973232 90511688 90039264 
683.642 89567312 89111736 88687360 88300992 87948168 87617512 87298456 
687.016 86988368 86695784 86438240 86234880 86100656 86040824 86053184 
690.391 86134272 86284632 86514824 86845936 87302944 87912264 88694392 
693.766 89659720 90808088 92127088 93593896 95173048 96817864 98475352 
697.141 100083608 101582392 102921512 104065448 105002760 105745936 
700.034 106328240 106792544 107182360 107534032 107868992 108191928 
702.926 108491160 108742456 108911968 108964000 108871944 108624360 
705.819 108232400 107728208 107160776 106582856 106036080 105547696 
708.712 105126624 104771336 104479000 104252400 104102888 104045496 
711.604 104090168 104235256 104464624 104752608 105071464 105398536 
714.497 105722344 106040936 106357488 106673536 106987912 107296968 
717.390 107600800 107907184 108234824 108606232 109044872 109565528 
720.282 110170528 110853728 111605152 112418088 113292240 114231080 
723.175 115236152 116300928 117408400 118534248 119653152 120749128 
726.068 121818104 122866760 123905168 124937808 125959840 126958416 
728.961 127920360 128841920 129733800 130621296 131537856 132513104 
731.853 133572400 134733744 136015104 137441152 139046128 140867104 
734.746 142937952 145274080 147868400 150690000 153695328 156836224 
737.639 160067104 163350416 166650144 169929760 173159248 176325280 
740.531 179447456 182579264 185794864 189139744 192572464 195901264 
743.424 198761824 200677072 201097360 199579568 195913536 190179600 
746.317 182745680 174164928 165089856 156102400 147667296 140112752 
749.209 133600248 128174304 123791648 120358232 117754936 115859360 
752.102 114572368 113822264 113579984 113859176 114704304 116162496 
754.995 118245808 120891704 123936904 127127960 130119784 132555496 
757.888 134130448 134628528 133981336 132263896 129680960 126505704 
760.780 123041480 119581408 116348912 113505488 111141792 109280000 
763.673 107893160 106915056 106262256 105840880 105564720 105369648 
766.566 105210424 105064968 104927408 104800064 104685608 104584080 
769.458 104491432 104402720 104314832 104229736 104153080 104092904 
772.351 104056864 104048816 104069624 104117328 104188920 104280664 
775.244 104385536 104491560 104574808 104597992 104512888 104259520 
778.136 103775608 103008376 101914976 100474544 98687352 96575032 94176544 
781.511 91543696 88742104 85841448 82912584 80024304 77230424 74570048 
784.886 72066728 69729472 67560192 65557228 63716912 62034236 60499216 
788.261 59098212 57813816 56628360 55528736 54506484 53558112 52682044 
791.636 51874424 51128420 50434940 49784252 49170344 48591764 48050700 
795.010 47550756 47093668 46678636 46302704 45962528 45655192 45378160 
798.385 45125240 44884296 44636432 44357260 44023888 43622288 43152112 
801.760 42628420 42076296 41525788 41001176 40516404 40075228 39673708 
805.135 39306292 38968904 38660572 38381524 38130252 37901508 37687124 
808.510 37478296 37268740 37056144 36841780 36627376 36413796 36199064 
811.885 35980476 35755700 35526660 35298384 35077876 34870624 34677288 
815.259 34493688 34312460 34127184 33934824 33737676 33541154 33350986 
818.634 33169552 32995168 32823570 32651254 32478218 32308788 32149374 
822.009 32005180 31877224 31761244 31649642 31535402 31415950 31293650 
825.384 31175086 31067018 30973210 30893048 30822006 30754712 30687748 
828.759 30620900 30556300 30495338 30436872 30376388 30307492 30225572 
832.133 30129884 30024738 29918094 29818500 29731240 29657976 29597068 
835.508 29546030 29503826 29472054 29453366 29449890 29460492 29481662 
838.883 29507584 29534290 29561316 29592068 29632506 29687812 29760160 
842.258 29847920 29946810 30052328 30163340 30281842 30413202 30562806 
845.633 30734938 30931294 31151876 31396468 31665754 31961848 32286980 
849.008 32641002 33021766 33423300 33838604 34261792 34688592 35117320 
852.382 35547156 35976480 36401796 36818444 37221412 37608240 37979288 
855.757 38338236 38688356 39031500 39365128 39683400 39977932 40241396 
859.132 40469704 40663304 40825764 40962432 41078816 41179968 41270984 
862.507 41359968 41457980 41579168 41739964 41955336 42236840 42593040 
865.882 43029316 43551152 44166624 44886204 45724028 46695976 47817232 
869.256 49103184 50568744 52227484 54090956 56163996 58438784 60885972 
872.631 63447668 66036916 68527496 70770328 72607280 73877800 74455968 
876.006 74264432 73285616 71566896 69212616 66374080 63215664 59908744 
879.381 56611188 53442452 50490988 47809352 45417448 43316496 41495604 
882.756 39938732 38626784 37538768 36652216 35942288 35385328 34961220 
886.131 34653496 34451684 34349284 34341508 34424240 34593604 34846680 
889.505 35182888 35604912 36119084 36733304 37456876 38299764 39272412 
892.880 40388276 41664864 43121996 44781208 46658492 48756696 51055596 
896.255 53503392 56015228 58461988 60686948 62521412 63793348 64369612 
899.630 64173020 63196464 61507364 59238324 56572760 53700304 50808656 
903.005 48057180 45553504 43365408 41520504 40016620 38835328 37949164 
906.379 37328460 36942240 36761248 36761284 36923192 37236576 37699880 
909.754 38318436 39099404 40047104 41156840 42411104 43775564 45194796 
913.129 46598732 47899652 48998280 49802536 50231316 50231092 49788004 
916.504 48929556 47723836 46262636 44656700 43013072 41418688 39943016 
919.879 38629208 37498272 36557048 35799780 35212640 34773836 34457960 
923.254 34237092 34084068 33977492 33901684 33846948 33808016 33780756 
926.628 33760024 33740148 33715224 33680956 33636024 33581608 33520396 
930.003 33454686 33385906 33314958 33243914 33177316 33122812 33089486 
933.378 33085946 33116948 33182644 33278324 33397358 33533494 33682496 
936.753 33842972 34015080 34198840 34392612 34593680 34798964 35006864 
940.128 35217668 35434004 35658900 35894420 36140148 36393944 36652576 
943.502 36913452 37175892 37440768 37709964 37985148 38267048 38556420 
946.877 38853696 39161260 39482828 39822580 40183488 40565328 40963744 
950.252 41370904 41777720 42175128 42556564 42918476 43260704 43585288 
953.627 43895856 44198132 44499668 44809896 45140348 45502212 45905036 
957.002 46355532 46856388 47407492 48007588 48656060 49354208 50105160 
960.377 50912956 51781240 52712720 53709080 54771476 55901928 57103500 
963.751 58380224 59736896 61177308 62704356 64319508 66022800 67812392 
967.126 69683872 71629136 73633128 75673264 77719536 79732232 81668384 
970.501 83483280 85133040 86582280 87804360 88782632 89511648 89995400 
973.876 90247472 90287696 90145392 89856136 89458264 88994712 88507600 
977.251 88035200 87616176 87286704 87080352 87030832 87167296 87512160 
980.625 88080976 88880200 89910208 91168192 92651904 94360968 96294400 
984.000 98444632 100787256 103268280 105803672 108266872 110497528 112329328 
987.375 113591776 114146432 113911632 112867464 111066904 108623384 
990.268 105708776 102520904 99258800 96117920 93253200 90777656 88765072 
993.643 87245864 86220216 85665528 85547408 85825576 86458776 87412096 
997.017 88655208 90163464 91918216 93902312 96097288 98481048 101019880 
1000.392 103664664 106351600 108991680 111480672 113708168 115558992 
1003.285 116938032 117781400 118065176 117814336 117101056 116043616 
1006.178 114781120 113467280 112254280 111265152 110598864 110323040 
1009.070 110473560 111065536 112098336 113563112 115446416 117734384 
1011.963 120415624 123479760 126918912 130728040 134899440 139420896 
1014.856 144266720 149383152 154681856 160028480 165229696 170060576 
1017.748 174271664 177617792 179915520 181062240 181069520 180061440 
1020.641 178274608 176026528 173647056 171471424 169776960 168746688 
1023.534 168480336 168983568 170191168 171981728 174206784 176711776 
1026.427 179332464 181916768 184323312 186415568 188082880 189241664 
1029.320 189845408 189892768 189425968 188525008 187287632 185825712 
1032.213 184250320 182653984 181112960 179672560 178341392 177088432 
1035.106 175844480 174518000 172999136 171186896 169007808 166418928 
1037.999 163417712 160035248 156329680 152372880 148244368 144028720 
1040.892 139802736 135636896 131593112 127717880 124050328 120625112 
1043.785 117474576 114637424 112156848 110074200 108428808 107249456 
1046.678 106549616 106328912 106574176 107263328 108366544 109850088 
1049.571 111679272 113813440 116212936 118837552 121646728 124605624 
1052.464 127682936 130848616 134072736 137315600 140521216 143618800 
1055.357 146515616 149103440 151275760 152927792 153973440 154358912 
1058.250 154065088 153118000 151587408 149593840 147294192 144862656 
1061.144 142491184 140353136 138594368 137334144 136649600 136582880 
1064.037 137143312 138308592 140026256 142211552 144761136 147546224 
1066.930 150423264 153255904 155909840 158268464 160243408 161763888 
1069.823 162781040 163265088 163200624 162587984 161441824 159791040 
1072.716 157675216 155141968 152251392 149073392 145693216 142219648 
1075.609 138771840 135480784 132482368 129893616 127816600 126328912 
1078.502 125474600 125266536 125677064 126640200 128038752 129710136 
1081.395 131467432 133095544 134390976 135197072 135412640 135021648 
1084.288 134088472 132753552 131200808 129633488 128261592 127259808 
1087.181 126763432 126858872 127571400 128870440 130669568 132846712 
1090.074 135243440 137681952 139994480 142017056 143609904 144671024 
1092.967 145128304 144948320 144135056 142726960 140790432 138406544 
1095.860 135667328 132657752 129450424 126109376 122685688 119224648 
1098.753 115770848 112364344 109043256 105842312 102788832 99906744 97217440 
1102.129 94740152 92494560 90500584 88775072 87334472 86192448 85360640 
1105.504 84850072 84670160 84828000 85327608 86167840 87342328 88838120 
1108.879 90636592 92713552 95035528 97562416 100241968 103006104 105775736 
1112.254 108456064 110939408 113122944 114907544 116212024 116985960 
1115.147 117207680 116888072 116064616 114799760 113172208 111264560 
1118.041 109164232 106947560 104673672 102386544 100111304 97860672 95642376 
1121.416 93464192 91338464 89284376 87325432 85489600 83808272 82311848 
1124.791 81032104 79999408 79238336 78767800 78598336 78731016 79158288 
1128.166 79865216 80832616 82034320 83439152 85010432 86700392 88452152 
1131.542 90201344 91873792 93398784 94715632 95780784 96579832 97129504 
1134.917 97478720 97696664 97868104 98079432 98398208 98869832 99504856 
1138.292 100278736 101131656 101978376 102725240 103272320 103532088 
1141.185 103439536 102948816 102038888 100709080 98976816 96874184 94446000 
1144.560 91751488 88855240 85826024 82734808 79643216 76607480 73676896 
1147.936 70889368 68275928 65858192 63647388 61646000 59849372 58248992 
1151.311 56834216 55595424 54524480 53613176 52853480 52236716 51753952 
1154.686 51397772 51163236 51048288 51053324 51180088 51430184 51804572 
1158.061 52304024 52929752 53684108 54570276 55591132 56746872 58032352 
1161.437 59435544 60937476 62509588 64115828 65715312 67259200 68695288 
1164.812 69971872 71035992 71840784 72349864 72537496 72394440 71926648 
1168.187 71155176 70110592 68829872 67354496 65724336 63979512 62160080 
1171.562 60301708 58438332 56599444 54808384 53084772 51444916 49902172 
1174.938 48469456 47157524 45973284 44920228 43997080 43199544 42521448 
1178.313 41957200 41502528 41153560 40906544 40756064 40694272 40711848 
1181.688 40798064 40941388 41130936 41355380 41602396 41860608 42118684 
1185.063 42367448 42601700 42819956 43024124 43217476 43403232 43582540 
1188.438 43754192 43915176 44062680 44194756 44311060 44412788 44502092 
1191.814 44582012 44656700 44732688 44820696 44935000 45093660 45316920 
1195.189 45622768 46026400 46537836 47160700 47891772 48719516 49624240 
1198.564 50573548 51523256 52421768 53207672 53821396 54213128 54346492 
1201.939 54207836 53806804 53176144 52363676 51427648 50432336 49436180 
1205.315 48492872 47646884 46928552 46356636 45937004 45665608 45530728 
1208.690 45516524 45606792 45783596 46029236 46326148 46655208 46997736 
1212.065 47338280 47664116 47968916 48252384 48519252 48777384 49036152 
1215.440 49304356 49589400 49896860 50230160 50590260 50974696 51377372 
1218.816 51789376 52199052 52594000 52964188 53301840 53602792 53866252 
1222.191 54093920 54288816 54454948 54598188 54725168 54844212 54963552 
1225.566 55090184 55228404 55378452 55538264 55704840 55877020 56057600 
1228.941 56254660 56481052 56751364 57081016 57483948 57970248 58546984 
1232.317 59217132 59979568 60828144 61751716 62735020 63757620 64796752 
1235.692 65829316 66830172 67775168 68639288 69394360 70010368 70454560 
1239.067 70691912 70691640 70427984 69884496 69056656 67951352 66586696 
1242.442 64988776 63193552 61245372 59191920 57088160 54988448 52940568 
1245.818 50987476 49162032 47486992 45979544 44649980 43503388 42538916 
1249.193 41749812 41123656 40643620 40292216 40052740 39910728 39854828 
1252.568 39875056 39961472 40104408 40294360 40523312 40786596 41082712 
1255.943 41412524 41777060 42174728 42598524 43035316 43463576 43855644 
1259.319 44179900 44400416 44483660 44401740 44135228 43678856 43042632 
1262.694 42252944 41347252 40371332 39373072 38392924 37463812 36608844 
1266.069 35841408 35169200 34595616 34120876 33741796 33452072 33243128 
1269.444 33104972 33029024 33009682 33044398 33132396 33273566 33466388 
1272.820 33707168 33992148 34318160 34684432 35093252 35548916 36055644 
1276.195 36616236 37231988 37902048 38625368 39400504 40225800 41097356 
1279.570 42007968 42945692 43893068 44828892 45731832 46579588 47352952 
1282.945 48036160 48614776 49076772 49411896 49611316 49669596 49585424 
1286.321 49362672 49009556 48538180 47963476 47300852 46568300 45786724 
1289.696 44979320 44173816 43399824 42683068 42044796 41495640 41034820 
1293.071 40648972 40314500 40002304 39677808 39309700 38873336 38354124 
1296.446 37751956 37081152 36370164 35653180 34967504 34346128 33811560 
1299.822 33376924 33045686 32815028 32678544 32627356 32652218 32740564 
1303.197 32877926 33048474 33235222 33422656 33598432 33751500 33872668 
1306.572 33953704 33985772 33961836 33878076 33736460 33545736 33321004 
1309.947 33082120 32849052 32640216 32472148 32357224 32306646 32330200 
1313.323 32435264 32626998 32906234 33270170 33713000 34228524 34812396 
1316.698 35462660 36180552 36968540 37828700 38761200 39764296 40833624 
1320.073 41963184 43144464 44363352 45599800 46823688 47993084 49061600 
1323.448 49978412 50698420 51193244 51455100 51502216 51373492 51126148 
1326.823 50824300 50526196 50283244 50129296 50079652 50133048 50274800 
1330.199 50482576 50731748 51003608 51287088 51581684 51895708 52243628 
1333.574 52643032 53109108 53653516 54281868 54993408 55779692 56623720 
1336.949 57502936 58385492 59234260 60011108 60677272 61200772 61561272 
1340.324 61750568 61773144 61641992 61375908 60994820 60519556 59974016 
1343.700 59383112 58773060 58169660 57592024 57051884 56553136 56095188 
1347.075 55678208 55307844 54997320 54768392 54648504 54664812 54845188 
1350.450 55214556 55793712 56601408 57651612 58952416 60503788 62295212 
1353.825 64304212 66491732 68805608 71178480 73525616 75757600 77777480 
1357.201 79486504 80799408 81642032 81962208 81737008 80973528 79710656 
1360.576 78010064 75961200 73672776 71262840 68863224 66596464 64557256 
1363.951 62802368 61339116 60132484 59116096 58213300 57351776 56472788 
1367.326 55544588 54561972 53545480 52531248 51564368 50689076 49938744 
1370.702 49336424 48891844 48602884 48458976 48445044 48547260 48754584 
1374.077 49060932 49462432 49953244 50522104 51152764 51823984 52515168 
1377.452 53209620 53894724 54563888 55213620 55840316 56438752 57000948 
1380.827 57517992 57983540 58396484 58762704 59092940 59400512 59695688 
1384.203 59983868 60266232 60542984 60819496 61110064 61438880 61833312 
1387.578 62318504 62905832 63590608 64353316 65165600 65995604 66808456 
1390.953 67571768 68251848 68812360 69219336 69440896 69456320 69264528 
1394.328 68890784 68383464 67795000 67168656 66521660 65846816 65123984 
1397.704 64338020 63494800 62630168 61802748 61074212 60492516 60074036 
1401.079 59806252 59657064 59589900 59570896 59572872 59577888 59573820 
1404.454 59553260 59513208 59454120 59379464 59294036 59202208 59105920 
1407.829 59005404 58900924 58796012 58700304 58630712 58607652 58649520 
1411.205 58767864 58962820 59224728 59537452 59885848 60259264 60653044 
1414.580 61067424 61503740 61960892 62435708 62923832 63425316 63949340 
1417.955 64519124 65169028 65931232 66826888 67852904 68983600 70182480 
1421.330 71413144 72647032 73860360 75036248 76163080 77233112 78245272 
1424.706 79202944 80111552 80971648 81773528 82493344 83098872 83551912 
1428.081 83818640 83880656 83738832 83413336 82934568 82337960 81657984 
1431.456 80926656 80177424 79440952 78738168 78074984 77435072 76783368 
1434.831 76073536 75271272 74377592 73447488 72576504 71862600 71361440 
1438.207 71066192 70923616 70860624 70814560 70741552 70623640 70465160 
1441.582 70283904 70100512 69929096 69776392 69642328 69524456 69420600 
1444.957 69328160 69242768 69157208 69064704 68964880 68870752 68809872 
1448.332 68819776 68938864 69192448 69590488 70130104 70801648 71592800 
1451.708 72488000 73467728 74498768 75529880 76494928 77300448 77831104 
1455.083 77961736 77573776 76613448 75145472 73376704 71573576 69943384 
1458.458 68572496 67441400 66487172 65651676 64901776 64224952 63616084 
1461.833 63063844 62548124 62045088 61540388 61043020 60592504 60246396 
1465.208 60063688 60080124 60298168 60694800 61233120 61874688 62578656 
1468.584 63303588 64005776 64631612 65126100 65437980 65530792 65400192 
1471.959 65084300 64664224 64230412 63855292 63571124 63373596 63242452 
1475.334 63159516 63119784 63127980 63191056 63308036 63465960 63641788 
1478.709 63811308 63953020 64054424 64112836 64132424 64121632 64089412 
1482.085 64043792 63990072 63929832 63860320 63772508 63651180 63475588 
1485.460 63224980 62882700 62440488 61898260 61260248 60527592 59694316 
1488.835 58750412 57692252 56537436 55330912 54137608 53018316 52011628 
1492.210 51118696 50307648 49525188 48714068 47826032 46831588 45726532 
1495.586 44529548 43274468 41995156 40715744 39447380 38197184 36974384 
1498.961 35795424 34680264 33647944 32711056 31873654 31135536 30494202 
1502.336 29945994 29484924 29097076 28757010 28423082 28044204 27574380 
1505.711 26995888 26346584 25717658 25213468 24891832 24744558 24719198 
1509.087 24757466 24816154 24874044 24929240 24989356 25063592 25155920 
1512.462 25264108 25382720 25506776 25634136 25765294 25901136 26041874 
1515.837 26187762 26341902 26513814 26717220 26965072 27262634 27602978 
1519.212 27966878 28327226 28662002 28964200 29252500 29562380 29930020 
1522.588 30368962 30863946 31380902 31882926 32346692 32767218 33161544 
1525.963 33559552 33993584 34483176 35030248 35625020 36255972 36917748 
1529.338 37612108 38345148 39119852 39931356 40769712 41623688 42490132 
1532.713 43381264 44325808 45358628 46498260 47741220 49060672 50423068 
1536.089 51793376 53145096 54465468 55745636 56986480 58194548 59382240 
1539.464 60561076 61735024 62906100 64068632 65216304 66346364 67454952 
1542.839 68534672 69572240 70551448 71455640 72274592 73008584 73664808 
1546.214 74246864 74744672 75125504 75335704 75318560 75027264 74453136 
1549.590 73634344 72646600 71564048 70422640 69205816 67855384 66305904 
1552.965 64524612 62543488 60461896 58420100 56530492 54841132 53315252 
1556.340 51849076 50292396 48485388 46316784 43792124 41100380 38562936 
1559.715 36467380 34919424 33853396 33125032 32595280 32160364 31748198 
1563.091 31316620 30849326 30356348 29867938 29424290 29059770 28786218 
1566.466 28589732 28435712 28283586 28097436 27859146 27574732 27273042 
1569.841 26994090 26769936 26616876 26532268 26502260 26507754 26528182 
1573.216 26542516 26525152 26450070 26296876 26063160 25775104 25487204 
1576.592 25265688 25155008 25164804 25273520 25446834 25652132 25867830 
1579.967 26086030 26308000 26539946 26786746 27050260 27328930 27621022 
1583.342 27926912 28250276 28595818 28967564 29365824 29788264 30232142 
1586.717 30697526 31188186 31711944 32277272 32890044 33552896 34264808 
1590.093 35023964 35829212 36680516 37576696 38512968 39479604 40461772 
1593.468 41442236 42405768 43339488 44233608 45079656 45867104 46583460 
1596.843 47215700 47751356 48181964 48503540 48715108 48816904 48808712 
1600.218 48688976 48456344 48112812 47666924 47135252 46543812 45925440 
1603.594 45311552 44730116 44200956 43733492 43332456 43000708 42742256 
1606.969 42562704 42466348 42452716 42515528 42644428 42830008 43067732 
1610.344 43359844 43713044 44133028 44619100 45161524 45741108 46335880 
1613.719 46922316 47477864 47985460 48433412 48822092 49167856 49507696 
1617.094 49890244 50355160 50924024 51592204 52335232 53115624 53894612 
1620.470 54641100 55332948 55965548 56552004 57120012 57700768 58318224 
1623.845 58982972 59689260 60424192 61173536 61927988 62682612 63435556 
1627.220 64189308 64950684 65734588 66562168 67460792 68455496 69560808 
1630.595 70776264 72085392 73462000 74871856 76286568 77689544 79077152 
1633.971 80463264 81876304 83357728 84944392 86662120 88521248 90508792 
1637.346 92603552 94779960 97011080 99266384 101512992 103726712 105888832 
1640.721 107994616 110050600 112062488 114023760 115910504 117673512 
1643.614 119251456 120586216 121631984 122376480 122845920 123112568 
1646.507 123272600 123428952 123672432 124056368 124600376 125291288 
1649.400 126090672 126930016 127703744 128278688 128485176 128171680 
1652.293 127300264 126066672 124877376 124104952 123882168 124077488 
1655.187 124460456 124817136 125014560 124997104 124760776 124334792 
1658.080 123755784 123049392 122218704 121247432 120109736 118782664 
1660.973 117255592 115535000 113646008 111634624 109564968 107507800 
1663.866 105528384 103667360 101927632 100272224 98627304 96896016 94969720 
1667.241 92752760 90186056 87266896 84058264 80676224 77264504 73954200 
1670.616 70839008 67965880 65335952 62914028 60635740 58419076 56181532 
1673.991 53870344 51497328 49160956 47025724 45247192 43912828 43011060 
1677.367 42464628 42175968 42071296 42118864 42322484 42704088 43278204 
1680.742 44034812 44944224 45975716 47121624 48421968 49965920 51865728 
1684.117 54178632 56865828 59803780 62857696 65951824 69077096 72261768 
1687.492 75530072 78876616 82261392 85601608 88802304 91785992 94505312 
1690.868 96954248 99154256 101135000 102915888 104495480 105847136 106930096 
1694.243 107704728 108162936 108351448 108380880 108381976 108425952 
1697.136 108486824 108435184 108084016 107210608 105633136 103310312 
1700.029 100439968 97435128 94709328 92472016 90664888 89083712 87491856 
1703.404 85708352 83630800 81241152 78598376 75813264 73012968 70291736 
1706.780 67696360 65229088 62866620 60573264 58308672 56034376 53717740 
1710.155 51341640 48909900 46449324 44000784 41600536 39275132 37030128 
1713.530 34855188 32737668 30675372 28682990 26788790 25020416 23391932 
1716.905 21895868 20517544 19250452 18108698 17123320 16321300 15706336 
1720.281 15251311 14905590 14609416 14314986 13997760 13665445 13348419 
1723.656 13085437 12899236 12785896 12716868 12655459 12574855 12465555 
1727.031 12336032 12200074 12064635 11922120 11753030 11536911 11266182 
1730.406 10949645 10606684 10251543 9879980 9463016 8958906 8336336 7611664 
1734.264 6858274 6180458 5653521 5289928 5048238 4863105 4675741 4446209 
1738.121 4165143 3849391 3534437 3252725 3018706 2824031 2648911 2476927 
1741.979 2305778 2145851 2012645 1914457 1846337 1791337 1730488 1653450 
1745.836 1564188 1477405 1409454 1368037 1346066 1324928 1283054 1209218 
1749.693 1108488 1001071 910881 852613 825025 814369 804410 786053 761590 
1754.033 739916 729959 732780 740879 740580 721662 684458 642148 613213 
1758.373 612350 640953 687412 730590 752064 744862 718608 694779 695310 
1762.712 730955 795481 871205 938773 987123 1015983 1033851 1050259 1070786 
1767.052 1092543 1107425 1107690 1092443 1068893 1047901 1036309 1030696 
1770.909 1016780 975766 895873 782103 656384 546160 471289 432183 414041 
1775.249 394772 357331 296186 218772 139848 72735 20841 -23392 -75207 
1779.588 -147355 -241976 -348330 -447973 -525684 -577407 -612150 -646030 
1783.446 -694794 -763465 -844659 -921275 -977645 -1006769 -1014174 -1013116 
1787.303 -1016389 -1029809 -1050270 -1068086 -1074862 -1069474 -1060087 
1790.678 -1060947 -1083786 -1129890 -1186993 -1235598 -1258395 -1251291 
1794.054 -1223604 -1192214 -1171264 -1165779 -1170603 -1174503 -1167530 
1797.429 -1146744 -1118125 -1093701 -1084447 -1093338 -1113135 -1130419 
1800.804 -1133162 -1117233 -1089272 -1060749 -1042370 -1037049 -1038900 
1804.179 -1037445 -1024025 -997282 -964388 -936880 -924217 -928945 -944650 
1808.037 -960949 -968190 -964685 -956784 -955693 -970206 -1000687 -1038867 
1811.894 -1072019 -1090132 -1091487 -1083951 -1079654 -1088942 -1113597 
1815.270 -1146183 -1173478 -1184052 -1173412 -1147471 -1116902 -1093040 
1818.645 -1079489 -1071590 -1059195 -1033908 -994174 -946997 -903982 -875446 
1822.502 -865955 -871808 -884506 -895253 -900245 -902262 -907586 -920084 
1826.360 -938897 -957544 -969347 -971396 -968256 -969909 -987662 -1025942 
1830.217 -1078729 -1130716 -1165878 -1176221 -1165217 -1145687 -1132799 
1833.592 -1137590 -1161186 -1194957 -1225818 -1243759 -1246435 -1240587 
1836.968 -1236556 -1242206 -1257470 -1274550 -1282215 -1273063 -1247922 
1840.343 -1216798 -1193239 -1188183 -1205696 -1240818 -1283338 -1322088 
1843.718 -1351420 -1372427 -1390164 -1407470 -1422035 -1426559 -1414736 
1847.093 -1385210 -1344285 -1303225 -1273625 -1261467 -1263879 -1270387 
1850.469 -1269462 -1254628 -1228362 -1200442 -1182103 -1179988 -1191917 
1853.844 -1208438 -1217525 -1212139 -1193933 -1172190 -1158311 -1159170 
1857.219 -1173644 -1193668 -1209165 -1213791 -1209628 -1204803 -1208702 
1860.594 -1225256 -1250102 -1271973 -1280001 -1268438 -1241512 -1210255 
1863.969 -1187621 -1181211 -1189472 -1203515 -1212568 -1211313 -1202590 
1867.345 -1197237 -1206323 -1234871 -1276698 -1317001 -1340322 -1339595 
1870.720 -1320040 -1296090 -1281785 -1285882 -1306066 -1331965 -1350528 
1874.095 -1353699 -1342436 -1326448 -1317826 -1323871 -1343460 -1367572 
1877.470 -1385012 -1388645 -1380123 -1367836 -1362320 -1369059 -1385474 
1880.846 -1401889 -1407669 -1397364 -1373881 -1347291 -1328595 -1323706 
1884.221 -1329685 -1336952 -1334805 -1318487 -1292522 -1269132 -1260641 
1887.596 -1274253 -1306826 -1346763 -1379331 -1394094 -1390329 -1375929 
1890.971 -1361131 -1352543 -1349504 -1346069 -1334970 -1314523 -1289185 
1894.347 -1269000 -1262756 -1272436 -1290672 -1303820 -1299856 -1274187 
1897.722 -1232756 -1188447 -1155469 -1140730 -1142085 -1149223 -1150148 
1901.097 -1138945 -1118290 -1097932 -1088182 -1094098 -1112507 -1133063 
1904.472 -1144993 -1143440 -1131972 -1120901 -1120405 -1135013 -1160326 
1907.848 -1185870 -1200343 -1199153 -1186332 -1172652 -1169315 -1180385 
1911.223 -1202127 -1223670 -1235532 -1233781 -1223340 -1214716 -1218615 
1914.598 -1238637 -1270420 -1303787 -1328034 -1339463 -1342766 -1347390 
1917.973 -1362419 -1389140 -1420119 -1442973 -1447728 -1434089 -1411434 
1921.349 -1394524 -1396175 -1420318 -1459683 -1499771 -1525822 -1531501 
1924.724 -1520474 -1503799 -1491251 -1485836 -1481477 -1467773 -1436467 
1928.099 -1388281 -1334739 -1292786 -1277160 -1292225 -1329421 -1371701 
1931.474 -1402252 -1412358 -1405158 -1391584 -1384450 -1389801 -1404333 
1934.850 -1418237 -1422795 -1415760 -1404531 -1401030 -1414934 -1447266 
1938.225 -1488940 -1525822 -1545897 -1547085 -1538006 -1533945 -1546788 
1941.600 -1578186 -1617041 -1646288 -1650909 -1627307 -1584986 -1541142 
1944.975 -1509775 -1494884 -1487949 -1474642 -1442643 -1390593 -1329784 
1948.351 -1276830 -1246963 -1243759 -1258527 -1274088 -1276730 -1262326 
1951.726 -1240488 -1227239 -1237085 -1273856 -1329322 -1386993 -1431777 
1955.101 -1459584 -1478208 -1502049 -1543156 -1602747 -1669393 -1725765 
1958.476 -1756853 -1760516 -1747910 -1738273 -1745567 -1771472 -1803315 
1961.852 -1822056 -1813708 -1778236 -1729165 -1688108 -1672529 -1685665 
1965.227 -1716558 -1744609 -1754774 -1743784 -1723257 -1711409 -1722597 
1968.602 -1757216 -1802424 -1838752 -1852807 -1845351 -1832054 -1833869 
1971.977 -1865014 -1925319 -1998183 -2060184 -2091215 -2086499 -2053160 
1975.353 -2006329 -1953160 -1888834 -1797573 -1664013 -1485704 -1280497 
1978.728 -1079754 -917472 -813870 -766773 -756155 -754336 -741304 -712261 
1982.585 -677956 -655922 -659628 -689568 -733200 -772793 -795746 -802295 
1986.443 -803419 -814234 -843468 -887449 -931623 -958933 -960123 -939823 
1990.300 -915588 -907189 -925738 -966702 -1010868 -1035330 -1024488 -979298 
1994.157 -915389 -855307 -815424 -799186 -796242 -791281 -773454 -743752 
1998.015 -714543 -703230 -720895 -765615 -822799 -872040 -899948 -905900 
2001.872 -903354 -911223 -943592 -1000885 -1070301 -1130617 -1163928 
2005.248 -1164854 -1140796 -1106293 -1073408 -1044684 -1013116 -969082 
2008.623 -909206 -840624 -780135 -744711 -741668 -763829 -792207 -807553 
2012.480 -798888 -771536 -742925 -733961 -755891 -803783 -858085 -894591 
2016.338 -898361 -870452 -827727 -792075 -781160 -795845 -824056 -846577 
2020.195 -850082 -833051 -807454 -788338 -786122 -799616 -816284 -821476 
2024.052 -807421 -779077 -753344 -748548 -774281 -825842 -884870 -930003 
2027.910 -945873 -931524 -898592 -863938 -839401 -824420 -809108 -780003 
2031.767 -731381 -667402 -603382 -554343 -528563 -522474 -522275 -511917 
2035.625 -484480 -443405 -401465 -371141 -357865 -355581 -350913 -330121 
2039.482 -288832 -233797 -181106 -147057 -139438 -152555 -172163 -181900 
2043.340 -171434 -142519 -105121 -72358 -50592 -36379 -17759 18953 82180 
2047.679 170375 272712 373879 460276 523767 561720 574227 561819 524928 
2052.019 466612 393976 321618 267374 246487 265683 318501 387443 450525 
2056.358 491423 505654 501474 493613 496333 514644 543439 569748 581626 
2060.698 574626 554852 535909 530634 546193 579237 619285 653862 675664 
2065.038 686051 692390 703441 723454 749342 773971 789638 793721 791099 
2069.377 790667 800991 824693 856663 886577 905104 907627 897832 884684 
2073.717 878542 885182 904041 929409 954812 977858 1000474 1028637 1066402 
2078.056 1113703 1164365 1209185 1239788 1254110 1256236 1255273 1260058 
2081.914 1274945 1298374 1323964 1344903 1357500 1363350 1366873 1372457 
2085.771 1381365 1389941 1392135 1383227 1362818 1335131 1306981 1284815 
2089.629 1269661 1258164 1243775 1221678 1191808 1159514 1133436 1121078 
2093.486 1125097 1141741 1163701 1183236 1196725 1205497 1214236 1226796 
2097.344 1243543 1260390 1271356 1271821 1262251 1247829 1236731 1235335 
2101.201 1245204 1262384 1279697 1291362 1295715 1295881 1297277 1304589 
2105.058 1318348 1334101 1345668 1348858 1343607 1334866 1329116 1331110 
2108.916 1340748 1353079 1360691 1358231 1345767 1328285 1312897 1305220 
2112.773 1305253 1307646 1304788 1289999 1262650 1227227 1192074 1164398 
2116.631 1147289 1138784 1133668 1126758 1116427 1104667 1095632 1092211 
2120.488 1093606 1095267 1091247 1078625 1058463 1036973 1021031 1015186 
2124.345 1017876 1022094 1018109 999179 964641 920743 876517 840462 814767 
2128.685 794784 771216 734838 681671 614142 540553 470128 410260 363632 
2133.025 329410 305835 293235 293534 309018 338496 375239 407905 425218 
2137.364 420343 393976 354148 312069 276989 251924 233260 214629 190827 
2141.704 162420 135108 115852 108958 112073 117144 114261 97425 68062 34593 
2146.526 8184 -4406 -3611 2186 2418 -11066 -38997 -75439 -111282 -141260 
2151.347 -166466 -194916 -236545 -298004 -378689 -472631 -571384 -669784 
2155.205 -768691 -871643 -977083 -1073936 -1137293 -1136731 -1049378 -873495 
2159.062 -634318 -375643 -147487 17097 108560 141008 140776 133583 135207 
2163.402 147836 164939 178894 188142 196496 211115 235249 265086 290881 
2167.741 302254 293501 267208 233160 202695 182872 172264 162287 143162 
2172.081 109654 66074 23824 -3048 -4771 18522 57259 96563 125297 137428 
2176.903 135572 126159 115586 105876 95436 82345 67399 56464 58949 81881 
2181.725 125828 182474 237437 276856 293335 288494 273010 259483 257428 
2186.064 269397 291578 318037 344763 373083 407308 451586 505057 560890 
2190.404 608103 636606 643276 632989 617460 608933 616332 639825 673905 
2194.743 710145 743003 772942 804842 844014 892885 947075 998016 1035412 
2199.083 1052983 1050359 1033320 1009939 986459 965571 946908 929542 915198 
2203.423 908656 916625 943422 988219 1044114 1100316 1147721 1181974 1205696 
2207.762 1225732 1248893 1278435 1311435 1340815 1359095 1363948 1357965 
2211.620 1348459 1343241 1346066 1355074 1364846 1368934 1364480 1353678 
2215.477 1342244 1335231 1334134 1334866 1330312 1313695 1283286 1242845 
2219.334 1202042 1170445 1153900 1152538 1160910 1172604 1182771 1190712 
2223.192 1198918 1211046 1227427 1245204 1258762 1262683 1255273 1239522 
2227.049 1221712 1207922 1201875 1202573 1205929 1207624 1206162 1203935 
2230.907 1205796 1216395 1237329 1265740 1295649 1321438 1340117 1352980 
2234.764 1364114 1378739 1398817 1423681 1450210 1475111 1497321 1518866 
2238.622 1543405 1573799 1609815 1648627 1685481 1716683 1742098 1765020 
2242.479 1790738 1823411 1863707 1908267 1951300 1987380 2013843 2032419 
2246.336 2047366 2062979 2081190 2101034 2119113 2132065 2138525 2139790 
2250.194 2138791 2138225 2138325 2137226 2132365 2121910 2107393 2093309 
2254.051 2085285 2088015 2102732 2126438 2153676 2179084 2198964 2212519 
2257.909 2220378 2223542 2221377 2212386 2194702 2168228 2135595 2101933 
2261.766 2072534 2050761 2036413 2026327 2015941 2002193 1984984 1967309 
2265.624 1953763 1947605 1948803 1954162 1959255 1959953 1955393 1947139 
2269.481 1938519 1931962 1927669 1923609 1916753 1905604 1891693 1879048 
2273.338 1872359 1875387 1888266 1907934 1929533 1948903 1964480 1977561 
2277.196 1990975 2007086 2026327 2046467 2064944 2079659 2091578 2103764 
2281.053 2120911 2146017 2179749 2219213 2259978 2297117 2328163 2352815 
2284.911 2373170 2391227 2407886 2422913 2434775 2442205 2445471 2446337 
2288.768 2447170 2450469 2457167 2466497 2476827 2486424 2494689 2501854 
2292.625 2509152 2516884 2524749 2531748 2536547 2538480 2538880 2539447 
2296.483 2542046 2547512 2554778 2561344 2564610 2562844 2556278 2546712 
2300.340 2536747 2528415 2522116 2516784 2510985 2503487 2494389 2484992 
2304.198 2477094 2471595 2468463 2466330 2463798 2459866 2454668 2449336 
2308.055 2444638 2440739 2436441 2429910 2419648 2406054 2390761 2376801 
2311.913 2366474 2360643 2357279 2353181 2344953 2330661 2311041 2289123 
2315.770 2268338 2251119 2237763 2226073 2213318 2197199 2177885 2157538 
2319.627 2139724 2127670 2123042 2125006 2130600 2136161 2137493 2130833 
2323.485 2113320 2082256 2035947 1974099 1898882 1814760 1728326 1647031 
2327.342 1576426 1519764 1476009 1441999 1413376 1387149 1363217 1343607 
2331.200 1331309 1328385 1334567 1347263 1362951 1378673 1393265 1407659 
2335.057 1423482 1442065 1463309 1485218 1505400 1522258 1535625 1547030 
2338.915 1558502 1571537 1586402 1601733 1615934 1628140 1638417 1648428 
2342.772 1659703 1673573 1690803 1712092 1739304 1775467 1824476 1889397 
2346.629 1970471 2064011 2162433 2256814 2338157 2399157 2436108 2448170 
2350.487 2437241 2406553 2359977 2301014 2232668 2157938 2080658 2005022 
2354.344 1934958 1873524 1821448 1777363 1738772 1703044 1668717 1635956 
2358.202 1605525 1577823 1552650 1528243 1502906 1475676 1447783 1421554 
2362.059 1399980 1385454 1378540 1378274 1383127 1391803 1404235 1421188 
2365.917 1443927 1472086 1504669 1539548 1575062 1610380 1646599 1685415 
2369.774 1728858 1777596 1830665 1886069 1941814 1996667 2051161 2106893 
2373.631 2165397 2227805 2293953 2363009 2433908 2506286 2580342 2656878 
2377.489 2736062 2817427 2899109 2979103 3055676 3128057 3196679 3262874 
2381.346 3327978 3391889 3453972 3512624 3566273 3613847 3655580 3692270 
2385.204 3725120 3755031 3782505 3807574 3830805 3853002 3875667 3899973 
2389.061 3926318 3953836 3980353 4003460 4021251 4033624 4041818 4048373 
2392.918 4055363 4063958 4073758 4083525 4091552 4096971 4100148 4102088 
2396.776 4103961 4106035 4107875 4108443 4106671 4102790 4097840 4093826 
2400.633 4092723 4094863 4099813 4106135 4112223 4117475 4122291 4127978 
2404.491 4135772 4146242 4158486 4170696 4180933 4187858 4191137 4191338 
2408.348 4189632 4186988 4184379 4182539 4182740 4186420 4195219 4210341 
2412.206 4231486 4256916 4283617 4308749 4330133 4347402 4361927 4375950 
2416.063 4391012 4407647 4425020 4441355 4455281 4467098 4477710 4489427 
2419.920 4503790 4521099 4540351 4559101 4575341 4588233 4598212 4606985 
2423.778 4616529 4627982 4641412 4655779 4670248 4683980 4697679 4712115 
2427.635 4728126 4746315 4766415 4787286 4808157 4828628 4848631 4868132 
2431.493 4886829 4903685 4917424 4926975 4932437 4935487 4938235 4943128 
2435.350 4951674 4963638 4977347 4990820 5002786 5013143 5023266 5034696 
2439.208 5048607 5064865 5081828 5097484 5110291 5120014 5127691 5134933 
2443.065 5143349 5153374 5164305 5175102 5185195 5194886 5205784 5219366 
2446.922 5236703 5257060 5278759 5299655 5318170 5334270 5349399 5365736 
2450.780 5384991 5407200 5431121 5454172 5473901 5489135 5499772 5507457 
2454.637 5513799 5520108 5526786 5533498 5539874 5545646 5551049 5556553 
2458.495 5562527 5568534 5574106 5578335 5581322 5583638 5586725 5591793 
2462.352 5599715 5610086 5622102 5634522 5647277 5660738 5676046 5694375 
2466.209 5715727 5739094 5762060 5782475 5798727 5810581 5818943 5825659 
2470.067 5832006 5838689 5845607 5852895 5860720 5870191 5882718 5898974 
2473.924 5918824 5940691 5961954 5980531 5995514 6007978 6020408 6035258 
2477.782 6054208 6076955 6101988 6126385 6148161 6166141 6181097 6194608 
2481.639 6208086 6222740 6238370 6254975 6272287 6291046 6311990 6335826 
2485.497 6362690 6391573 6420762 6448841 6475645 6501778 6529123 6559194 
2489.354 6592531 6627687 6662072 6692961 6718602 6739230 6756561 6773557 
2493.211 6792606 6814853 6839761 6866118 6892206 6917051 6940618 6963479 
2497.069 6985870 7007353 7027389 7044765 7059515 7072077 7084033 7096865 
2500.926 7111785 7128626 7146377 7163859 7179826 7194514 7208562 7222880 
2504.784 7237905 7253640 7268768 7282582 7294914 7306371 7318232 7332048 
2508.641 7348156 7365849 7383913 7400764 7415964 7429885 7444109 7459951 
2512.499 7478154 7498043 7517731 7535869 7551377 7565167 7579531 7597030 
2516.356 7619757 7648218 7681065 7716208 7751018 7783704 7813457 7840683 
2520.213 7866088 7890482 7914203 7938094 7962527 7988412 8016661 8047578 
2524.071 8080860 8115597 8150134 8183154 8214185 8243292 8271423 8299284 
2527.928 8327014 8354136 8380078 8404198 8427271 8450582 8475786 8504236 
2531.786 8535864 8569792 8603824 8636845 8668111 8698601 8729771 8763071 
2535.643 8798775 8835835 8872357 8906413 8937123 8965096 8991548 9018306 
2539.500 9046149 9074432 9101906 9126844 9148433 9167383 9185421 9204644 
2543.358 9226372 9250775 9276533 9301888 9325449 9346574 9365872 9384154 
2547.215 9402573 9420824 9438330 9453805 9466741 9477003 9485909 9494816 
2551.073 9505247 9517676 9531765 9546973 9562384 9577187 9591176 9603913 
2554.930 9614584 9622579 9627051 9627593 9625187 9621359 9618209 9617497 
2558.788 9620004 9625221 9631759 9637891 9642193 9644464 9644870 9644193 
2562.645 9642735 9640601 9637451 9632911 9627287 9620987 9615296 9610688 
2566.502 9606996 9603304 9598358 9590872 9580709 9568888 9557134 9547413 
2570.360 9540741 9537083 9535423 9533899 9531122 9525770 9517879 9507347 
2574.217 9494307 9478967 9461188 9441479 9420282 9399086 9379347 9362182 
2578.075 9348029 9336451 9326464 9316817 9306796 9296438 9286316 9276669 
2581.932 9268105 9260558 9253788 9247763 9242720 9239403 9238556 9240519 
2585.790 9244988 9251080 9257816 9264586 9271558 9279817 9290582 9304596 
2589.647 9322267 9342545 9363975 9385102 9404978 9423702 9441785 9460240 
2593.504 9479644 9500404 9522621 9546329 9571869 9599578 9629523 9661403 
2597.362 9693827 9724965 9753293 9777591 9797823 9815581 9832799 9851576 
2601.219 9873370 9898487 9926014 9955202 9984699 10013858 10042239 10069706 
2605.077 10096123 10121322 10145064 10167585 10189395 10211682 10235122 
2608.452 10260499 10287878 10316718 10346205 10376032 10405761 10435695 
2611.827 10466208 10497164 10528123 10558337 10586957 10613373 10637820 
2615.202 10660842 10683289 10705533 10727744 10749277 10769656 10788779 
2618.578 10807393 10826655 10847989 10872449 10900139 10930141 10960790 
2621.953 10990558 11017814 11042454 11064717 11085655 11106491 11128519 
2625.328 11152859 11180295 11211404 11246324 11284613 11324980 11365828 
2628.703 11405454 11442125 11475260 11505030 11532454 11558688 11584618 
2632.079 11610822 11637572 11664459 11691655 11719636 11749184 11780811 
2635.454 11814789 11850676 11887282 11922972 11957063 11988910 12018783 
2638.829 12047499 12075810 12104223 12132843 12161329 12189272 12216705 
2642.204 12243560 12270212 12296253 12321750 12346089 12368759 12389453 
2645.580 12408545 12426854 12445506 12465214 12486560 12509272 12533076 
2648.955 12557563 12582325 12607669 12633593 12660610 12688517 12716834 
2652.330 12745188 12772962 12800023 12826130 12851828 12877187 12902308 
2655.705 12927226 12951804 12976247 13000350 13024454 13048491 13072837 
2659.081 13097218 13121089 13144209 13166545 13187824 13208215 13227685 
2662.456 13245824 13262290 13276433 13288014 13297067 13304275 13310357 
2665.831 13315994 13321392 13326142 13329661 13330856 13329285 13324877 
2669.206 13318215 13310289 13302192 13294231 13286578 13278892 13271035 
2672.582 13262630 13253885 13244970 13236362 13228095 13220478 13213100 
2675.957 13205995 13198992 13192161 13185467 13178738 13171668 13163949 
2679.332 13155241 13145473 13134476 13122659 13110536 13098243 13086291 
2682.707 13074817 13064232 13054705 13046681 13040297 13035379 13031590 
2686.083 13028244 13024590 13020425 13015850 13011514 13008373 13007144 
2689.458 13007998 13010797 13014962 13019571 13023976 13027766 13030565 
2692.833 13032819 13034389 13035482 13036336 13037018 13037940 13039477 
2696.208 13042004 13045760 13050676 13056207 13062354 13069286 13077446 
2699.583 13087828 13101419 13118801 13140009 13164394 13190761 13217881 
2702.959 13245107 13272094 13299287 13326996 13356073 13386620 13418640 
2706.334 13451961 13486480 13521892 13558536 13596380 13635561 13675943 
2709.709 13717285 13759692 13802923 13846912 13891932 13937879 13984722 
2713.084 14032220 14080338 14128703 14177517 14226473 14275539 14324712 
2716.460 14373616 14422184 14470655 14519884 14570936 14624598 14681865 
2719.835 14742429 14805608 14869963 14934223 14997739 15060475 15123563 
2723.210 15187588 15253508 15321361 15389945 15458059 15524125 15587108 
2726.585 15646633 15703553 15758557 15813226 15868347 15924746 15982667 
2729.961 16042382 16103275 16164795 16225912 16285248 16341461 16393485 
2733.336 16441211 16484745 16525427 16564080 16601706 16638542 16674040 
2736.711 16707232 16737191 16763432 16786298 16806620 16825872 16844918 
2740.086 16864932 16886186 16908922 16932692 16957154 16981892 17006770 
2743.462 17031028 17054530 17076792 17097918 17117908 17137314 17156304 
2746.837 17175092 17193326 17210736 17226628 17240900 17253174 17263516 
2750.212 17272344 17279620 17285550 17290136 17293860 17297032 17300616 
2753.587 17305308 17311822 17319960 17329168 17338236 17346066 17352032 
2756.963 17355824 17358136 17359480 17360652 17361826 17362928 17363756 
2760.338 17364272 17364894 17366376 17369618 17375274 17383620 17393966 
2763.713 17405486 17417178 17428214 17438390 17447806 17456876 17466120 
2767.088 17475780 17485852 17496580 17508172 17520488 17533768 17547948 
2770.464 17562922 17578516 17594940 17612400 17631412 17652324 17675306 
2773.839 17699810 17724934 17749510 17772602 17794004 17814130 17834464 
2777.214 17856214 17880382 17907590 17937320 17968848 18001138 18033430 
2780.589 18065484 18097020 18128354 18159412 18190196 18220810 18251634 
2783.965 18283288 18316916 18353516 18393786 18438034 18485988 18536538 
2787.340 18589032 18642466 18696150 18749424 18801702 18851978 18899768 
2790.715 18944486 18986054 19025240 19063080 19100784 19139632 19180044 
2794.090 19222122 19265242 19308888 19352606 19395982 19438636 19480462 
2797.466 19520660 19558786 19594314 19627072 19657718 19686806 19715652 
2800.841 19745124 19776022 19808794 19843476 19879756 19917496 19956244 
2804.216 19995760 20035456 20074874 20113672 20152056 20190688 20230608 
2807.591 20272716 20317644 20365006 20413312 20460788 20505942 20547522 
2810.967 20586086 20622810 20659642 20698318 20739814 20784650 20832618 
2814.342 20883096 20935526 20990120 21046528 21104926 21164934 21225818 
2817.717 21286988 21347996 21408906 21470068 21532702 21597294 21664334 
2821.092 21733512 21803986 21875064 21946052 22016840 22087676 22158802 
2824.468 22230776 22303496 22376854 22450994 22525564 22600672 22676698 
2827.843 22753578 22831134 22909124 22987160 23065106 23143208 23221674 
2831.218 23300850 23380672 23460720 23540326 23618792 23696222 23773280 
2834.593 23851580 23932940 24019216 24111078 24208564 24310244 24414400 
2837.969 24519424 24624260 24729474 24836222 24946716 25063626 25189592 
2841.344 25327150 25477928 25643802 25825914 26026220 26246786 26490180 
2844.719 26760034 27060346 27394356 27763626 28167042 28599074 29048858 
2848.094 29501734 29939108 30340430 30686040 30959368 31147746 31244618 
2851.469 31249034 31166328 31005770 30780960 30508562 30204934 29887246 
2854.845 29571354 29269512 28991436 28743806 28529434 28349156 28201868 
2858.220 28085242 27995998 27930622 27885608 27857944 27844802 27844908 
2861.595 27857238 27881686 27919208 27970304 28035934 28116276 28211414 
2864.970 28321072 28444768 28581910 28732264 28895172 29070468 29257782 
2868.346 29456202 29664078 29879614 30099486 30319680 30536110 30743758 
2871.721 30938090 31115532 31273354 31410572 31527456 31626124 31709734 
2875.096 31782846 31850300 31917088 31987310 32064356 32149624 32243400 
2878.471 32345552 32454938 32570920 32693264 32822498 32959100 33103612 
2881.847 33255540 33413746 33575700 33738572 33898852 34052888 34197084 
2885.222 34328168 34443328 34540612 34619012 34678976 34723084 34755136 
2888.597 34780192 34803992 34832960 34872564 34929080 35009380 35120448 
2891.972 35271716 35473984 35739300 36081672 36515488 37054488 37712024 
2895.348 38496932 39411096 40445696 41578840 42771432 43966832 45098732 
2898.723 46092240 46873404 47384432 47585728 47465296 47037868 46343440 
2902.098 45439924 44390472 43262280 42115324 40996224 39942544 38978688 
2905.473 38118640 37369048 36730992 36202196 35778368 35453956 35223672 
2908.849 35081720 35023100 35043036 35136792 35299500 35526264 35810428 
2912.224 36144900 36520824 36928060 37355652 37791608 38223012 38637972 
2915.599 39024108 39370860 39670152 39916644 40108988 40248884 40341296 
2918.974 40392788 40409840 40397988 40360312 40297776 40209404 40093724 
2922.350 39950284 39780600 39588876 39382468 39170652 38963504 38771564 
2925.725 38604036 38468364 38370052 38311744 38293864 38313988 38367512 
2929.100 38448384 38548848 38660644 38775872 38886168 38984052 39062064 
2932.475 39112856 39129896 39107056 39039260 38923200 38757432 38543200 
2935.851 38283480 37983520 37650520 37291700 36915832 36531708 36147240 
2939.226 35770884 35410100 35071232 34760056 34481276 34237524 34030348 
2942.601 33859196 33721096 33611176 33523224 33450034 33383544 33317142 
2945.976 33244736 33162042 33066600 32958064 32837902 32709230 32575854 
2949.352 32442514 32312964 32190230 32075274 31967766 31865776 31766698 
2952.727 31667996 31567682 31464540 31358038 31248002 31134576 31017228 
2956.102 30895930 30770148 30640240 30506322 30369140 30229406 30087518 
2959.477 29944006 29799052 29652832 29505740 29357990 29210184 29062074 
2962.853 28913516 28764480 28614682 28464864 28316794 28172382 28034484 
2966.228 27905394 27786796 27679464 27583560 27499220 27426826 27367500 
2969.603 27323074 27296046 27288742 27303208 27340506 27400920 27483334 
2972.978 27585326 27702526 27828906 27955852 28073788 28171496 28238358 
2976.354 28265656 28247092 28180548 28067744 27914686 27729614 27523296 
2979.729 27307936 27094378 26892872 26711546 26555726 26427708 26326906 
2983.104 26250378 26193428 26150108 26114848 26081984 26047154 26006940 
2986.479 25959488 25904162 25841950 25775034 25706478 25639268 25576390 
2989.854 25519532 25469356 25425262 25386232 25350860 25318124 25288094 
2993.230 25261440 25239490 25223900 25216138 25217122 25226848 25244654 
2996.605 25269060 25298350 25330662 25364384 25398528 25433026 25467914 
2999.980 25504034 25541740 25581310 25622538 25664962 25707954 25751478 
3003.355 25795604 25840964 25888124 25937716 25989740 26043600 26098346 
3006.731 26152852 26206346 26258330 26309056 26358872 26408588 26458872 
3010.106 26510150 26562736 26616632 26671978 26728354 26785196 26841622 
3013.481 26896786 26949948 27000542 27049238 27097022 27145940 27197758 
3016.856 27254130 27316194 27383628 27455590 27530532 27607144 27684832 
3020.232 27763026 27842752 27925252 28011688 28103232 28200030 28301374 
3023.607 28405714 28510858 28614186 28713858 28808240 28896554 28978720 
3026.982 29055484 29127264 29194874 29258702 29319314 29377028 29432480 
3030.357 29486556 29540248 29594622 29649640 29705020 29759626 29812004 
3033.733 29860804 29905350 29945710 29982844 30018098 30053108 30088866 
3037.108 30126262 30165294 30206210 30249052 30294098 30341708 30392202 
3040.483 30445294 30500562 30557082 30614038 30670678 30727256 30784198 
3043.858 30842496 30902830 30965914 31031464 31099372 31168856 31239776 
3047.234 31311918 31385746 31461724 31540032 31620562 31702782 31785876 
3050.609 31868842 31951468 32033678 32115836 32198652 32282374 32367290 
3053.984 32453082 32539424 32626032 32713018 32800630 32889686 32980762 
3057.359 33074468 33170626 33268918 33368160 33467282 33564996 33659724 
3060.735 33750460 33835772 33915116 33988352 34055648 34118440 34178444 
3064.110 34237524 34297828 34360476 34425964 34493832 34562892 34631856 
3067.485 34699612 34765620 34830164 34894072 34958348 35024540 35093328 
3070.860 35165748 35242176 35322932 35408120 35497892 35592256 35690912 
3074.236 35793664 35899780 36008912 36120236 36233312 36347756 36463524 
3077.611 36580624 36699084 36819276 36941408 37065564 37192208 37321272 
3080.986 37453016 37587468 37724384 37863544 38004600 38146312 38287892 
3084.361 38428180 38566304 38701828 38834748 38965568 39095308 39224904 
3087.737 39354720 39485300 39615952 39745956 39874184 39999836 40122360 
3091.112 40241464 40357840 40471772 40584136 40695508 40806876 40919324 
3094.487 41034240 41153448 41278524 41411212 41552256 41701628 41858344 
3097.862 42020560 42186188 42353056 42519768 42685372 42850232 43015268 
3101.238 43181352 43349736 43521552 43697104 43876792 44060516 44248432 
3104.613 44440388 44635956 44834508 45034628 45234104 45430252 45619784 
3107.988 45799868 45968164 46123408 46265328 46394536 46512200 46619536 
3111.363 46717452 46806416 46886432 46957160 47017856 47067892 47106444 
3114.739 47132480 47145332 47144484 47129712 47101680 47061908 47012248 
3118.114 46954688 46891492 46823724 46752168 46676532 46596260 46510948 
3121.489 46420568 46326112 46228948 46131108 46034064 45939216 45847404 
3124.864 45758780 45673704 45592700 45516416 45446104 45382832 45327552 
3128.240 45280696 45242156 45211492 45188068 45171120 45160312 45155164 
3131.615 45155788 45162004 45174064 45192336 45217228 45249364 45289336 
3134.990 45337336 45393168 45455816 45524288 45596784 45672196 45749356 
3138.365 45827776 45907136 45987244 46068032 46149460 46231200 46312912 
3141.740 46394572 46475844 46557124 46638532 46720180 46802580 46885988 
3145.116 46971228 47058844 47149508 47243588 47340904 47440460 47540924 
3148.491 47640564 47737928 47831952 47922740 48010920 48098004 48185260 
3151.866 48274008 48364704 48457196 48550744 48644572 48737644 48829436 
3155.241 48919468 49007664 49094024 49178432 49261340 49342700 49422924 
3158.617 49502720 49582636 49663280 49745236 49828584 49913288 49999008 
3161.992 50085080 50171020 50256312 50340908 50424408 50507252 50589480 
3165.367 50671460 50753092 50834244 50914560 50993700 51071548 51147988 
3168.742 51223740 51299208 51375244 51452300 51530192 51608436 51686356 
3172.118 51763024 51837984 51911428 51983764 52055964 52128620 52202152 
3175.493 52275844 52348800 52420012 52488656 52554620 52618236 52680584 
3178.868 52742352 52804048 52865496 52926012 52984588 53040372 53093312 
3182.243 53143748 53192168 53239848 53287568 53335820 53384636 53433724 
3185.619 53482736 53531236 53578988 53625996 53672596 53718528 53764312 
3188.994 53809880 53854776 53898624 53940488 53979736 54015720 54048548 
3192.369 54078796 54107468 54136180 54166056 54197704 54230808 54264560 
3195.744 54297340 54327864 54355428 54379872 54401956 54422276 54441728 
3199.120 54460772 54479516 54497956 54516328 54535072 54554836 54576212 
3202.495 54599392 54624156 54649596 54674696 54698636 54720996 54741932 
3205.870 54761700 54780308 54797748 54813088 54825980 54836208 54844736 
3209.245 54853236 54863608 54877784 54896320 54918316 54941704 54964268 
3212.621 54983556 54998788 55010600 55020716 55031544 55044596 55060660 
3215.996 55079124 55098312 55116780 55133104 55146952 55158800 55169524 
3219.371 55180280 55191832 55204924 55219448 55235552 55253616 55273560 
3222.746 55295540 55319244 55344196 55369380 55393920 55417108 55438680 
3226.122 55459420 55479940 55501552 55525160 55551292 55579796 55610260 
3229.497 55641900 55674064 55706308 55738856 55771932 55806480 55842800 
3232.872 55880900 55920508 55960872 56001244 56040824 56079464 56117164 
3236.247 56154836 56192844 56231952 56272424 56314292 56357600 56402192 
3239.623 56448676 56497204 56547924 56600580 56653844 56706056 56755104 
3242.998 56799660 56839392 56875268 56909416 56944700 56983460 57026944 
3246.373 57075120 57126592 57179276 57231400 57281908 57330640 57377940 
3249.748 57424760 57471240 57517196 57562096 57604776 57644728 57681736 
3253.124 57716284 57749172 57781076 57812604 57843496 57873324 57901680 
3256.499 57927764 57951432 57972672 57991568 58008380 58023452 58037052 
3259.874 58049512 58061704 58073784 58086096 58098332 58109540 58118216 
3263.249 58122872 58122116 58115264 58102684 58086020 58067084 58048296 
3266.625 58031216 58017016 58005276 57994748 57983504 57969492 57950372 
3270.000 57924360 57890704 57849056 57800004 57744592 57684196 57620436 
3273.375 57555024 57489320 57424268 57360964 57299716 57240476 57183168 
3276.750 57127424 57072400 57017724 56962568 56906320 56848796 56789540 
3280.125 56728144 56664528 56598356 56529584 56458636 56386156 56313800 
3283.501 56243116 56176028 56113320 56055300 56001088 55949300 55898272 
3286.876 55846800 55795216 55744732 55697192 55654820 55618848 55588876 
3290.251 55563528 55540144 55516048 55489692 55460400 55428928 55396704 
3293.626 55365200 55335132 55306412 55277924 55248988 55218548 55187392 
3297.002 55156428 55127724 55103536 55085368 55074388 55070776 55074160 
3300.377 55083788 55098460 55117156 55138940 55162524 55187208 55212376 
3303.752 55237284 55261896 55285828 55308972 55330648 55350672 55368024 
3307.127 55382628 55394636 55404612 55413644 55423660 55435404 55450312 
3310.503 55468908 55491576 55518344 55549372 55584392 55622844 55664344 
3313.878 55707740 55752000 55796532 55840732 55885196 55930568 55977608 
3317.253 56026648 56077692 56129232 56179872 56228256 56273744 56316104 
3320.628 56356504 56395856 56435092 56474488 56512976 56549360 56582272 
3324.004 56610168 56632288 56648408 56658788 56663924 56664452 56660828 
3327.379 56653768 56643952 56631948 56618284 56602996 56585824 56565856 
3330.754 56542188 56513924 56480336 56441544 56397740 56349788 56298600 
3334.129 56245456 56191152 56136852 56082972 56029176 55974180 55916136 
3337.505 55851996 55778976 55694820 55598552 55490632 55372656 55246920 
3340.880 55115460 54979724 54840224 54697092 54549952 54399288 54245980 
3344.255 54091108 53935952 53781076 53626524 53471684 53316040 53158952 
3347.630 53000760 52842516 52685488 52530796 52379376 52231000 52085284 
3351.006 51941488 51798788 51656988 51515908 51376324 51238284 51102372 
3354.381 50968768 50838344 50711492 50589332 50472900 50363640 50262412 
3357.756 50169908 50085788 50009232 49938528 49871656 49806288 49740484 
3361.131 49672940 49603440 49532504 49461540 49392296 49326256 49264640 
3364.507 49207784 49155540 49107972 49064752 49025952 48991196 48959892 
3367.882 48930668 48901296 48869184 48832588 48789804 48741016 48687380 
3371.257 48631008 48573644 48516620 48459860 48402628 48343184 48279672 
3374.632 48210504 48134428 48050408 47957188 47853668 47738412 47610352 
3378.008 47469028 47314008 47145372 46963552 46768332 46559336 46336104 
3381.383 46097800 45844420 45576468 45295036 45001808 44698640 44387208 
3384.758 44069244 43746536 43420952 43094700 42770080 42449316 42133904 
3388.133 41824380 41519916 41218660 40917464 40613424 40303956 39987628 
3391.509 39664452 39336144 39005440 38675496 38349420 38029120 37715092 
3394.884 37407216 37104396 36805680 36511060 36220672 35935736 35657208 
3398.259 35385112 35118148 34853680 34588404 34318880 34042816 33759092 
3401.634 33468678 33173236 32875210 32576814 32279588 31984386 31691342 
3405.010 31400886 31113040 30828516 30547664 30270686 29997222 29727126 
3408.385 29459534 29193882 28930092 28668478 28409606 28154104 27902214 
3411.760 27653684 27408086 27164952 26924072 26685684 26450596 26220002 
3415.135 25995156 25776300 25563494 25355496 25151006 24948752 24747608 
3418.510 24547224 24348124 24151148 23957622 23768592 23584892 23406864 
3421.886 23234186 23066330 22902486 22741986 22583848 22427232 22271408 
3425.261 22116196 21961840 21809002 21658832 21512718 21371210 21235038 
3428.636 21102978 20974054 20845968 20716876 20585356 20451096 20314798 
3432.011 20177950 20042012 19908200 19777028 19647562 19519066 19390022 
3435.387 19259700 19127998 18996404 18866512 18740118 18618948 18503380 
3438.762 18392506 18284704 18177412 18069318 17959456 17848170 17736980 
3442.137 17627996 17522970 17422350 17325376 17229490 17131972 17029510 
3445.512 16920118 16803416 16681304 16556749 16434053 16317034 16208233 
3448.888 16108673 16017662 15933098 15852263 15772611 15692113 15609742 
3452.263 15525052 15438284 15349817 15260406 15170396 15080268 14990434 
3455.638 14901714 14814762 14729816 14647455 14567201 14488023 14408723 
3459.013 14327862 14244483 14158723 14071200 13984209 13899835 13820197 
3462.389 13746593 13678781 13615662 13555220 13494820 13432481 13367211 
3465.764 13298673 13227548 13154864 13081851 13009124 12936989 12865617 
3469.139 12794904 12724886 12656005 12588738 12523322 12459895 12398351 
3472.514 12338010 12278494 12219022 12159966 12101633 12045149 11991533 
3475.890 11941771 11896511 11855545 11818704 11784759 11752008 11719056 
3479.265 11683962 11645298 11602416 11555558 11506391 11456957 11410250 
3482.640 11369025 11334775 11307908 11287129 11269786 11252716 11233062 
3486.015 11208956 11180056 11147352 11112983 11079706 11050611 11027976 
3489.391 11014076 11009250 11014041 11027364 11047450 11071990 11098605 
3492.766 11124677 11148473 11169211 11187094 11203448 11220006 11238231 
3496.141 11259755 11285498 11316342 11352733 11395216 11444370 11499756 
3499.516 11560696 11625388 11691961 11758341 11823471 11887929 11953692 
3502.892 12023892 12102179 12191555 12293390 12407147 12531303 12663169 
3506.267 12799887 12939344 13079495 13219282 13358088 13495880 13633304 
3509.642 13771594 13912733 14058400 14210074 14368479 14532560 14701057 
3513.017 14871368 15041129 15208485 15372575 15533088 15690327 15844394 
3516.393 15994905 16141376 16282633 16417433 16544702 16662573 16769424 
3519.768 16863244 16942028 17003426 17046086 17069382 17073862 17061008 
3523.143 17032924 16991506 16937826 16871614 16791396 16694423 16577987 
3526.518 16440213 16280431 16100008 15902096 15690671 15469734 15242561 
3529.894 15011355 14777428 14541640 14305261 14069250 13834871 13602500 
3533.269 13370800 13137481 12899748 12654913 12402681 12144838 11886057 
3536.644 11632263 11388991 11159624 10944718 10742653 10549680 10362051 
3540.019 10176946 9993141 9810532 9629997 9452011 9276466 9102380 8928330 
3543.877 8752828 8574760 8394469 8213103 8033401 7858969 7693915 7541398 
3547.734 7403663 7280392 7169384 7066251 6966341 6865074 6759489 6648984 
3551.592 6535682 6422645 6313973 6211850 6116774 6027363 5940960 5854910 
3555.449 5768071 5680041 5591928 5504973 5420520 5338799 5259978 5183552 
3559.306 5109151 5036975 4968063 4903584 4844710 4791842 4745009 4703005 
3563.164 4663415 4623093 4577718 4522404 4452837 4366044 4262135 4145272 
3567.021 4023826 3908097 3807941 3729999 3675729 3642281 3623236 3611008 
3570.879 3599214 3583144 3560293 3530428 3494587 3454373 3411157 3366076 
3574.736 3319530 3272055 3224084 3176285 3129326 3084507 3042096 3002891 
3578.594 2967327 2934734 2905079 2877728 2852179 2828500 2807123 2788648 
3582.451 2774042 2763804 2757369 2752534 2745531 2731727 2705587 2663579 
3586.308 2604475 2531348 2450502 2371304 2302747 2250852 2217547 2200763 
3590.166 2195634 2195967 2196100 2191804 2180416 2161268 2134929 2103730 
3594.023 2070137 2036779 2005987 1979325 1956991 1938586 1922744 1908034 
3597.881 1892825 1876485 1858117 1837918 1816590 1795129 1774834 1757002 
3601.738 1742730 1732517 1726829 1725332 1726929 1730056 1732085 1729790 
3605.595 1719810 1699152 1666156 1621488 1568445 1512615 1460981 1419526 
3609.453 1391703 1377044 1371593 1369599 1365377 1354974 1337657 1315689 
3613.310 1294220 1278534 1272652 1277670 1291827 1310238 1326623 1334567 
3617.168 1328451 1305087 1264511 1211079 1151907 1096595 1053979 1029766 
3621.025 1025216 1037505 1061054 1089919 1119317 1147256 1174797 1204401 
3624.883 1238525 1276274 1312631 1337757 1338223 1300567 1218223 1096164 
3628.740 954446 822170 727536 684259 689370 727835 780477 830270 865793 
3633.080 882559 883091 874757 865461 861211 864531 873296 883489 890495 
3637.419 892055 887805 879571 869777 860647 853011 846736 841225 836246 
3641.759 832627 832461 837740 849957 869013 892985 918452 940500 954712 
3646.098 957169 945481 918717 876982 821373 753856 677323 597585 522573 
3650.438 462963 428800 426080 455566 511459 583252 656948 719007 758005 
3654.778 766801 745525 701981 650377 605515 579071 574924 590120 617328 
3659.117 647623 674469 693419 703109 704503 699658 691427 682334 675000 
3663.457 671881 675067 685819 704636 730855 761590 793057 819548 834154 
3667.796 829905 800261 742771 661494 569184 486149 432415 422233 457291 
3672.136 527117 611587 685288 725279 712435 640688 522108 387642 274436 
3676.476 208894 198054 230342 285477 343636 392418 427341 450757 469033 
3680.815 488106 511260 538098 566265 593770 620712 649249 682434 720832 
3685.155 761723 797738 819481 817124 784991 723421 641086 551866 469862 
3689.494 404489 358923 330505 314821 309515 313892 328847 355176 390991 
3693.834 432316 473909 510497 538994 558999 573265 585508 599012 615138 
3698.174 632259 647358 655886 654625 642148 619883 591547 562848 539160 
3702.513 524530 521179 529075 546492 571042 600007 631297 663020 694049 
3706.853 723919 752097 777523 798369 811315 812477 797904 764577 713033 
3711.192 647822 577711 514014 467242 444753 448402 474904 517596 568156 
3715.532 618589 662622 696339 718575 730822 735435 735834 733842 730590 
3719.872 725611 718144 708021 696107 684757 676095 671947 671914 673573 
3724.211 672711 665377 649150 625424 599410 579171 573531 588129 623798 
3728.551 675797 735435 791597 833590 854405 851849 829706 796078 760893 
3732.890 730590 706096 681969 650344 605615 548051 485851 432017 399714 
3737.230 395833 419414 463262 519156 580166 642646 706860 773042 838570 
3741.570 895940 931136 926022 865096 744331 581460 414704 292572 247117 
3745.909 281730 375073 495503 612450 701085 747185 747417 709282 647324 
3750.249 577645 512587 458784 419414 396795 394772 416429 461603 526089 
3754.588 600671 674270 736498 779747 800858 801589 786485 760860 729295 
3758.928 694879 660333 629505 608667 603823 618920 653165 699990 749575 
3763.268 790369 814137 817954 805605 785887 769789 764876 772179 787016 
3767.607 800394 804211 793290 768262 734539 700853 675465 662987 664116 
3771.947 676162 694647 715588 736166 755483 774004 793024 813838 836877 
3776.286 860946 882792 897334 900024 887075 858423 818684 776527 742206 
3780.626 723388 723487 739883 765706 792095 811846 820676 818386 808692 
3784.966 796709 787149 782435 782966 787481 794750 804078 815232 828212 
3789.305 842255 855833 867121 875056 879936 883622 888635 897069 908457 
3793.645 919780 926587 924395 911346 889797 866656 851152 850853 868383 
3797.984 899692 935054 960723 962615 930704 862905 768859 668828 589025 
3802.324 551103 563378 619385 702280 791265 864897 906664 908524 872964 
3806.664 813539 751201 706992 692158 706395 740281 781572 819846 850388 
3811.003 874425 897268 924893 959261 996721 1027840 1040461 1023821 974338 
3815.343 899260 817689 753193 724317 737029 783630 846106 902115 931767 
3819.682 920842 866092 777390 677788 595993 553459 558899 604852 675863 
3824.022 752529 818286 863037 883755 884585 875454 867785 870341 886178 
3828.362 912076 941230 965803 979684 981013 971748 957568 944983 939670 
3832.701 944916 960557 984068 1010404 1034018 1048366 1047336 1026644 984965 
3837.041 925358 855435 786883 731386 696970 686184 695775 718940 747583 
3841.380 775066 797140 811746 819282 821373 820942 820842 823863 832860 
3845.720 849957 875819 910317 951923 998481 1048100 1099519 1151674 1202806 
3850.060 1249424 1284017 1294685 1267335 1188153 1052750 872499 679779 
3853.917 514611 410061 377958 409232 483031 576882 673972 763051 838437 
3858.257 899227 945846 980149 1003297 1016814 1022293 1021530 1016216 
3862.114 1007348 994197 975500 950495 921540 894877 879936 885249 914799 
3866.454 964641 1023024 1072546 1096164 1081448 1026246 941197 849857 778850 
3870.793 745824 753890 791630 841159 883755 907660 910117 897666 882427 
3875.133 877214 890694 924528 973408 1027906 1077894 1113371 1127589 1117390 
3879.472 1085468 1040394 994263 961287 951956 969523 1009573 1060024 1105764 
3883.812 1130745 1123536 1081714 1014323 940433 881630 855767 868084 912076 
3888.152 972843 1033187 1077562 1095234 1083010 1045609 994496 943189 904240 
3892.491 884917 886577 905867 937710 976895 1019238 1061818 1102242 1138352 
3896.831 1167820 1188120 1197091 1193602 1178718 1155627 1128984 1103472 
3900.688 1082412 1065936 1051588 1034748 1011267 979186 940234 899858 865594 
3905.028 844612 840761 854538 882393 919813 961254 1002699 1041457 1076001 
3909.367 1105697 1130113 1148584 1161043 1168319 1172737 1177355 1185362 
3913.225 1198619 1216595 1235900 1251119 1256934 1249358 1227859 1195729 
3917.082 1159049 1124998 1098921 1083607 1078990 1083010 1092842 1106195 
3920.940 1121709 1138286 1154863 1170079 1182073 1189549 1192007 1191011 
3924.797 1188984 1189217 1193934 1203603 1217126 1231913 1245071 1254409 
3928.655 1259327 1259858 1256569 1250288 1240751 1227394 1209816 1188286 
3932.512 1165295 1143933 1127921 1120048 1121310 1130811 1146192 1164764 
3936.369 1184033 1202839 1221014 1239156 1257964 1276906 1294685 1309175 
3940.227 1317949 1319345 1312831 1299703 1282854 1265840 1251983 1243941 
3944.084 1242945 1248394 1258762 1271556 1284051 1294087 1299969 1301332 
3947.942 1298474 1292957 1286543 1281392 1279066 1280927 1287241 1297876 
3951.799 1312033 1328451 1345767 1362519 1377044 1388479 1396357 1401044 
3955.656 1403437 1405332 1407991 1412445 1418728 1426208 1433754 1440237 
3959.514 1444858 1447783 1449512 1451041 1452936 1455529 1458422 1460649 
3963.371 1461148 1459352 1455297 1449778 1443960 1439306 1437245 1438674 
3967.229 1443894 1452803 1464506 1477738 1490937 1502840 1512416 1519431 
3971.086 1524286 1527844 1531302 1535791 1541676 1548426 1555276 1561096 
3974.944 1564687 1565751 1564854 1562825 1560797 1559699 1559699 1560697 
3978.801 1561960 1563025 1563490 1563257 1562426 1561229 1559865 1557904 
3982.658 1555177 1551253 1546066 1540413 1535059 1531701 1531668 1536090 
3986.516 1545301 1559101 1576127 1594616 1612542 1627641 1638417 1644204 
3990.373 1644769 1640978 1633860 1624781 1614903 1604893 1595814 1588032 
3994.231 1582013 1578188 1576659 1577124 1578787 1580450 1580749 1578787 
3998.088 1574165 1567514 1559899 1553148 1548526 1546631 
##END=
