
##TITLE=L1760A_1
##JCAMP-DX=5.01  $$ Nicolet v. 1
##DATATYPE=INFRARED SPECTRUM
##ORIGIN=UniL
##OWNER=Nicolet
##LONGDATE=2011/08/18
##TIME=10:57:41
##SPECTROMETER/DATA SYSTEM=Nicolet iS5
##DATA PROCESSING=
Ratio against background
%Transmittance->Absorbance
Truncated
ElementMultiply or ElementDivide
##COMMENTS=
Number of sample scans: 32
Collection length: 51.20 sec
Sample gain: 2.0
Background collected on: Jeu Aout 18 10:55:49 2011 (GMT+02:00);
Number of background scans: 32
Background gain: 2.0
Sample spacing:  1.000
Number of scan points: 12415
Resolution points: 8192
Number of FFT points: 65536
Apodization: N-B fort;
Phase correction: Mertz;
Laser frequency: 15798.0 cm-1
Number of rejected sample scans: 0
Number of rejected background scans: 0
Bench serial number: ASB1000141;
##RESOLUTION=4.000
##XUNITS=1/CM
##YUNITS=ABSORBANCE
##FIRSTX=649.893372
##LASTX=4000.122314
##FIRSTY=0.062562
##MAXX=4000.122314
##MINX=649.893372
##MAXY=0.142301
##MINY=0.003127
##XFACTOR=1.000000
##YFACTOR=1.000000E-009
##NPOINTS=6950
##DELTAX=0.482117
##ZPD=6100
##XYDATA=(X++(Y..Y))
649.893 62562436 61918248 61363312 60901528 60529044 60237680 60016736 
653.268 59855156 59740168 59656376 59591456 59535932 59487368 59452488 
656.643 59443408 59473156 59551172 59679452 59851504 60057180 60283548 
660.018 60520168 60761448 61004584 61248916 61494116 61739608 61984704 
663.393 62232384 62487280 62754312 63037292 63333108 63630312 63910760 
666.767 64149320 64327648 64445400 64526268 64604008 64708636 64849064 
670.142 65014520 65183080 65329940 65436484 65492884 65499044 65462948 
673.517 65394952 65304332 65194324 65067016 64922208 64760440 64582476 
676.892 64388016 64173132 63931912 63659208 63354844 63026488 62687776 
680.267 62353884 62035952 61734872 61441404 61140732 60819912 60472444 
683.642 60102956 59723096 59347632 58988776 58652328 58339712 58051288 
687.016 57789368 57560248 57372236 57231892 57142048 57100324 57101992 
690.391 57144620 57231700 57374576 57591984 57904180 58330008 58883504 
693.766 59569336 60384136 61316492 62348300 63454420 64604736 65767244 
697.141 66904844 67983400 68973464 69853168 70612256 71253240 71788992 
700.516 72238832 72623536 72962088 73268200 73547360 73795520 74000400 
703.890 74140968 74192216 74134048 73955464 73662416 73277768 72838832 
707.265 72387472 71958160 71574632 71245000 70968256 70739488 70557296 
710.640 70426464 70355624 70351848 70416296 70541040 70711680 70911296 
714.015 71124696 71341952 71558416 71771000 71976928 72172080 72353616 
717.390 72522544 72688008 72866384 73076360 73335744 73654408 74032192 
720.765 74462376 74935712 75446064 75992968 76579336 77207304 77874232 
724.139 78570504 79281680 79993152 80696376 81389152 82075224 82757456 
727.514 83433168 84091760 84718688 85300632 85834824 86331560 86814288 
730.889 87312184 87852472 88457520 89144280 89928144 90830056 91876784 
734.264 93097048 94516680 96147816 97985680 100009008 102187520 104488608 
737.639 106880896 109338384 111834808 114342728 116840584 119321624 
740.531 121809808 124359008 127044888 129923152 132980320 136079280 
743.424 138936800 141165536 142300608 141944304 139873744 136095088 
746.317 130858512 124585224 117800344 110989552 104551200 98771120 93791232 
749.692 89650920 86312232 83696488 81705936 80243552 79230744 78608536 
753.066 78348248 78452992 78950528 79875928 81245064 83025376 85114008 
756.441 87340992 89466696 91237360 92431392 92885864 92542280 91444096 
759.816 89728768 87582928 85216968 82833552 80587144 78589400 76904376 
763.191 75550896 74516424 73762264 73237328 72881592 72638184 72462680 
766.566 72323288 72203576 72098928 72010992 71941424 71889264 71849888 
769.940 71817680 71788680 71763112 71745016 71740248 71754784 71791096 
773.315 71848448 71924064 72015064 72118560 72231784 72348880 72456376 
776.690 72530328 72537736 72434288 72171928 71707528 71004304 70041056 
780.065 68813528 67334368 65630980 63742652 61720128 59618368 57493028 
783.440 55398172 53375980 51456296 49657264 47985792 46443536 45029408 
786.815 43741444 42575460 41523600 40573732 39710268 38916860 38180828 
790.189 37493468 36850976 36251936 35694656 35175776 34690568 34234296 
793.564 33805076 33404476 33036068 32703732 32408380 32147270 31914950 
796.939 31705066 31512062 31332538 31162874 30997372 30826880 30638676 
800.314 30419210 30160144 29859882 29526878 29175774 28825024 28490196 
803.689 28180794 27899812 27645668 27416026 27209222 27025012 26863228 
807.063 26721166 26593134 26470880 26345742 26212188 26069002 25918862 
810.438 25765576 25612520 25460150 25306464 25149004 24987180 24822996 
813.813 24661222 24506626 24361408 24224716 24092794 23961158 23827182 
817.188 23691604 23557362 23429106 23309102 23196962 23089498 22982932 
820.563 22874196 22763564 22653450 22547550 22449040 22359064 22277336 
823.938 22203052 22136000 22077358 22028868 21991536 21964280 21943752 
827.312 21925594 21905696 21882278 21855030 21825168 21792836 21755734 
830.687 21709440 21649220 21572118 21479258 21376396 21272374 21176726 
834.062 21096474 21034494 20990084 20960144 20941334 20931494 20929860 
837.437 20935910 20948844 20966752 20987234 21008656 21030876 21055328 
840.812 21083604 21117204 21155296 21196384 21238344 21280864 21326140 
844.186 21379180 21445700 21530508 21635568 21759706 21900226 22054314 
847.561 22220664 22400228 22594736 22805152 23030726 23268094 23513076 
850.936 23762362 24014556 24270438 24532604 24802438 25079142 25359218 
854.311 25636736 25905778 26162178 26404398 26633152 26850398 27057738 
857.686 27254450 27438402 27606052 27753982 27880062 27983416 28064632 
861.060 28125752 28169658 28200524 28224850 28251052 28288890 28349332 
864.435 28441974 28574090 28751664 28978898 29260228 29602496 30013910 
867.810 30505078 31087696 31772688 32570996 33493336 34549328 35748112 
871.185 37094364 38585208 40202644 41908992 43645112 45322732 46835868 
874.560 48070876 48911792 49268500 49087160 48359336 47125060 45465824 
877.935 43496720 41339160 39116444 36938128 34883696 33007682 31338092 
881.309 29880538 28627634 27564284 26673916 25937856 25338320 24857834 
884.684 24478652 24185478 23966412 23812446 23718688 23682330 23701086 
888.059 23772826 23895024 24065582 24284348 24553500 24877798 25263370 
891.434 25717446 26247316 26860760 27567036 28378264 29308078 30371130 
894.809 31578406 32931324 34415064 35991488 37599136 39144800 40517276 
898.183 41599732 42277448 42468096 42132664 41285008 39989552 38353472 
901.558 36513112 34601608 32742492 31033172 29531064 28264208 27233282 
904.933 26422778 25808472 25364944 25069488 24901484 24844012 24884886 
908.308 25016066 25234996 25543532 25947564 26453168 27063838 27778036 
911.683 28586156 29467620 30388150 31302020 32150410 32864132 33378322 
915.058 33635128 33596892 33255286 32633070 31782846 30773420 29685862 
918.432 28596350 27563752 26632026 25824682 25149672 24604272 24178786 
921.807 23859456 23628554 23467890 23359028 23285014 23233872 23197624 
925.182 23172182 23155580 23145724 23139226 23131852 23118886 23097464 
928.557 23066994 23029398 22987648 22944262 22900636 22857256 22814546 
931.932 22774318 22740346 22717544 22710948 22723936 22756860 22807422 
935.306 22872030 22946916 23029468 23118502 23213460 23313576 23417634 
938.681 23523954 23630968 23738564 23848080 23961754 24081552 24208144 
942.056 24340450 24476302 24613144 24749994 24887624 25028210 25174528 
945.431 25328906 25492158 25664120 25844164 26032482 26229470 26436512 
948.806 26653728 26879690 27110918 27341918 27567390 27782700 27985396 
952.181 28175528 28354602 28525824 28691980 28857104 29025408 29201962 
955.555 29392912 29604056 29840112 30104208 30397318 30718898 31068442 
958.930 31446334 31853758 32293868 32769396 33282906 33836024 34429516 
962.305 35064300 35741708 36464064 37234192 38055124 38928964 39857152 
965.680 40840688 41879760 42974404 44123048 45321812 46561992 47829732 
969.055 49105264 50362600 51574112 52710924 53745940 54657712 55430472 
972.429 56054316 56526076 56847736 57026756 57074708 57009076 56851704 
975.804 56626512 56360692 56081272 55813228 55582020 55411728 55325004 
979.179 55344352 55489164 55773364 56205668 56788104 57518068 58390648 
982.554 59402224 60551284 61836980 63255296 64791864 66412380 68061672 
985.929 69655288 71085080 72238520 73000504 73279296 73023160 72224552 
989.304 70926968 69214832 67212128 65057628 62887796 60832684 58991320 
992.678 57431944 56194168 55288724 54706900 54426220 54418932 54655156 
996.053 55106508 55750532 56568988 57547876 58677588 59949292 61353008 
999.428 62874772 64492368 66172144 67869256 69521808 71057608 72401296 
1002.803 73476400 74221976 74600768 74604776 74260112 73624568 72786184 
1006.178 71843640 70902400 70062544 69401272 68976840 68824784 68959832 
1009.552 69383424 70088440 71065144 72303240 73794464 75533784 77517528 
1012.927 79744448 82214224 84925368 87872672 91042528 94402680 97897656 
1016.302 101440288 104901888 108129664 110951344 113194008 114726352 
1019.195 115470760 115430088 114687640 113407944 111815432 110144824 
1022.087 108634576 107482424 106816696 106705736 107150344 108102208 
1024.980 109474960 111166056 113070752 115079088 117089904 119007784 
1027.873 120737976 122200352 123329688 124082784 124447568 124441920 
1030.766 124112280 123522072 122747880 121869680 120956440 120066352 
1033.659 119235328 118471304 117752848 117029384 116233112 115282768 
1036.552 114103040 112638552 110856344 108754032 106354104 103700464 
1039.446 100848440 97859888 94801560 91734336 88714872 85793160 83007400 
1042.821 80389536 77966968 75763832 73806672 72122824 70736480 69668472 
1046.196 68930824 68524856 68442264 68666720 69177520 69950000 70959592 
1049.571 72182096 73592344 75166352 76880968 78713416 80644392 82656480 
1052.947 84732504 86854552 88997520 91124504 93188408 95125976 96862304 
1056.322 98322904 99432576 100128416 100370072 100141392 99459440 98373352 
1059.697 96969200 95359168 93667720 92030784 90570008 89386008 88558992 
1063.072 88138728 88150016 88594336 89452120 90683824 92229464 94017368 
1066.448 95960272 97962008 99931848 101780968 103432648 104828912 105923288 
1069.823 106683872 107090896 107133504 106810808 106130416 105108480 
1072.716 103767488 102134952 100246264 98144352 95883448 93535488 91181968 
1076.091 88914560 86830640 85015992 83546656 82482408 81858848 81689584 
1079.466 81959808 82626704 83611480 84802344 86069064 87259400 88227432 
1082.842 88857632 89072352 88853944 88243384 87338360 86271376 85191040 
1086.217 84252808 83586016 83289448 83423536 84002208 84997336 86340368 
1089.592 87938712 89676216 91425488 93068920 94493616 95604920 96335024 
1092.967 96637448 96492520 95905968 94907288 93544408 91874448 89961568 
1096.343 87864112 85631784 83308152 80928568 78524800 76129168 73771056 
1099.718 71478840 69278056 67188376 65226352 63406108 61739800 60239964 
1103.093 58919252 57788832 56859104 56138700 55634368 55351616 55294632 
1106.468 55466048 55866240 56492636 57339676 58397696 59653756 61091492 
1109.844 62688580 64418800 66248172 68131936 70018472 71844808 73538528 
1113.219 75029912 76250472 77143312 77672344 77820528 77593744 77016096 
1116.594 76129360 74986664 73643960 72160696 70588992 68969392 67332480 
1119.969 65696620 64072088 62466580 60888296 59349268 57866888 56461168 
1123.344 55155040 53972792 52936824 52068364 51385796 50901892 50624700 
1126.720 50555644 50690900 51021276 51534224 52215492 53047372 54009376 
1130.095 55077620 56220224 57399120 58570684 59684776 60693732 61557528 
1133.470 62248712 62760592 63108288 63329892 63476436 63609296 63789396 
1136.845 64063600 64461656 64987852 65622000 66319264 67017608 67649896 
1140.221 68145272 68442264 68494632 68269528 67750696 66935496 65833092 
1143.596 64463308 62854596 61047020 59085800 57020936 54905196 52785936 
1146.971 50706316 48703800 46806528 45035916 43406120 41923624 40589084 
1150.346 39398724 38346452 37425132 36627552 35946856 35375232 34904088 
1153.722 34524324 34227304 34006376 33858196 33782976 33783516 33864248 
1157.097 34029092 34280832 34620444 35047708 35561432 36160528 36843404 
1160.472 37607700 38449688 39362768 40337880 41360920 42412928 43470684 
1163.847 44503192 45474912 46348008 47081592 47638752 47989640 48112812 
1167.223 47999520 47653204 47088204 46326924 45396296 44327428 43150356 
1170.598 41896076 40595524 39276440 37964784 36682820 35446944 34270436 
1173.973 33162974 32132428 31185588 30327780 29562132 28889046 28305724 
1177.348 27807462 27388568 27043772 26769478 26562664 26421018 26340916 
1180.724 26317506 26344226 26413976 26518638 26650734 26802712 26967082 
1184.099 27136558 27304654 27466040 27617844 27759424 27892604 28019676 
1187.474 28142826 28262580 28377804 28486232 28585308 28673504 28750602 
1190.849 28817694 28876510 28929702 28980244 29032314 29092506 29169290 
1194.225 29273768 29418084 29613564 29870032 30194242 30588974 31052854 
1197.600 31579226 32156084 32763180 33372954 33952236 34461656 34862688 
1200.975 35122744 35217528 35137692 34888684 34491284 33976064 33380646 
1204.350 32746602 32111484 31509676 30969758 30510764 30144552 29874574 
1207.726 29698244 29607818 29593132 29643928 29748628 29896048 30075196 
1211.101 30274096 30481440 30687676 30885506 31071502 31245722 31411498 
1214.476 31573988 31738822 31911240 32095396 32293580 32506890 32734670 
1217.851 32973934 33219662 33465602 33704304 33928232 34132348 34313572 
1221.227 34471264 34607456 34725384 34828904 34922116 35009416 35094836 
1224.602 35182816 35277180 35379900 35491636 35610664 35734480 35861056 
1227.977 35990232 36125132 36272536 36441760 36642732 36885172 37176976 
1231.352 37523196 37927072 38389776 38910336 39485480 40109384 40773388 
1234.728 41465560 42172024 42878064 43567228 44223372 44829956 45368044 
1238.103 45817576 46156828 46361796 46410980 46286004 45974208 45471308 
1241.478 44781024 43915836 42893644 41740292 40487160 39167932 37820960 
1244.853 36483920 35189176 33965600 32834004 31808232 30897212 30105096 
1248.229 29432302 28875872 28429308 28083154 27825726 27644856 27529472 
1251.604 27469500 27456862 27484218 27544654 27632250 27740844 27866742 
1254.979 28007978 28165204 28340810 28536758 28753436 28987682 29231838 
1258.354 29472194 29691220 29867974 29978656 30001128 29917134 29714458 
1261.729 29390820 28954316 28424038 27826290 27192324 26554070 25937574 
1265.105 25362978 24843414 24385098 23990430 23659412 23390290 23179626 
1268.480 23022168 22912058 22842484 22807668 22804104 22830016 22885092 
1271.855 22969204 23081286 23219050 23379660 23560824 23761628 23983672 
1275.230 24230006 24504102 24809700 25149216 25524240 25935640 26384152 
1278.606 26869044 27388040 27935640 28503250 29078582 29647368 30195200 
1281.981 30707946 31173876 31583254 31928002 32201398 32397918 32513246 
1285.356 32545068 32493714 32362544 32157402 31885530 31556028 31177328 
1288.731 30759514 30314810 29857076 29403762 28973620 28583078 28245006 
1292.107 27964864 27739254 27556268 27397110 27239490 27059182 26835384 
1295.482 26554070 26209302 25805588 25357428 24887728 24422180 23986648 
1298.857 23602802 23284034 23036630 22860086 22750016 22699844 22702462 
1302.232 22750400 22835324 22947722 23077932 23215556 23351476 23478206 
1305.608 23589368 23679112 23741468 23769572 23757358 23700562 23599096 
1308.983 23457712 23286832 23100190 22912476 22737620 22587618 22471580 
1312.358 22396984 22369528 22393462 22471162 22602800 22786260 23018150 
1315.733 23294942 23614382 23976354 24382188 24834082 25333542 25880316 
1319.109 26472466 27105876 27775566 28475052 29194946 29922352 30638854 
1322.484 31318900 31934456 32455258 32855268 33119130 33244916 33246954 
1325.859 33151422 32995168 32817710 32653288 32530282 32465686 32464684 
1329.234 32522854 32628462 32766860 32923318 33087592 33255324 33428632 
1332.610 33614824 33824348 34068476 34356316 34693616 35082152 35519788 
1335.985 36000096 36512788 37044348 37576808 38088652 38557252 38958248 
1339.360 39270600 39479456 39577660 39566408 39453584 39251704 38974632 
1342.735 38637320 38256232 37847676 37428740 37015624 36619844 36248548 
1346.111 35904136 35586176 35294932 35034884 34814580 34648540 34554676 
1349.486 34550584 34654032 34881004 35244120 35754804 36421184 37247404 
1352.861 38232712 39369844 40643620 42028988 43492216 44989904 46467804 
1356.236 47868500 49130196 50190176 50995040 51499044 51671356 51499864 
1359.612 50992732 50178460 49099848 47816788 46400104 44925372 43474636 
1362.987 42122664 40925184 39913740 39088200 38423076 37872948 37386488 
1366.362 36915688 36421148 35881536 35293676 34672124 34042424 33436362 
1369.737 32885362 32412484 32033856 31756182 31578548 31494324 31493716 
1373.113 31567610 31707634 31907744 32163006 32468218 32815636 33196020 
1376.488 33597932 34011176 34426720 34837452 35238800 35626672 35996924 
1379.863 36345092 36665084 36951292 37199788 37409816 37584792 37731396 
1383.238 37858160 37973212 38082324 38189804 38300020 38419568 38560076 
1386.614 38737220 38966476 39260664 39623212 40048376 40522480 41027868 
1389.989 41545404 42054540 42535920 42969432 43332968 43605144 43765592 
1393.364 43799564 43703588 43490056 43185964 42822476 42427180 42013768 
1396.739 41581428 41121724 40628196 40106004 39577152 39076456 38639564 
1400.115 38294264 38049444 37897424 37819048 37792800 37798768 37820456 
1403.490 37846556 37868428 37880072 37878188 37861484 37831152 37789656 
1406.865 37739528 37682424 37619044 37550220 37478840 37411116 37357636 
1410.240 37331132 37343264 37401476 37506868 37654096 37833580 38035448 
1413.615 38251924 38477996 38712008 38953680 39202924 39460040 39726424 
1416.991 40007248 40312612 40659560 41068256 41553316 42119996 42758888 
1420.366 43450140 44171720 44905200 45638372 46361576 47067704 47750428 
1423.741 48402928 49020536 49601728 50147184 50657088 51127972 51549372 
1427.116 51905752 52176932 52343944 52395152 52329136 52155184 51888464 
1430.492 51547616 51151196 50716744 50263452 49810300 49371468 48954220 
1433.867 48553856 48154160 47732124 47268672 46762284 46238200 45744456 
1437.242 45331304 45028492 44833740 44720456 44651448 44594204 44525916 
1440.617 44436644 44327720 44207124 44084356 43965660 43854176 43750164 
1443.993 43653980 43566424 43488920 43421428 43362004 43308000 43259168 
1447.368 43221360 43208108 43238160 43332124 43504928 43764640 44112632 
1450.743 44546108 45058412 45637964 46268572 46924604 47570976 48167340 
1454.118 48660360 48986596 49076996 48864588 48315780 47462784 46419828 
1457.494 45339944 44346212 43494120 42776840 42162240 41618804 41128972 
1460.869 40686408 40289160 39931356 39602160 39288408 38981736 38686360 
1464.244 38422932 38222000 38115348 38121716 38242480 38464600 38767216 
1467.619 39128552 39524672 39930960 40322136 40667892 40938256 41106752 
1470.995 41155380 41083408 40912624 40686776 40454280 40253604 40102588 
1474.370 40000816 39940076 39913884 39920752 39963252 40042816 40155468 
1477.745 40291052 40435260 40574896 40699404 40803088 40884480 40944920 
1481.120 40986244 41010936 41021312 41019676 41007584 40984604 40946992 
1484.496 40886520 40791296 40648896 40449188 40187088 39862452 39477896 
1487.871 39034184 38527668 37951984 37304304 36594892 35850260 35109492 
1491.246 34409288 33773808 33204962 32685474 32186090 31675268 31126886 
1494.621 30525446 29868862 29166844 28435678 27691048 26943038 26196104 
1497.997 25454984 24727754 24027410 23368328 22763320 22219512 21737900 
1501.372 21316394 20951764 20640842 20379764 20160942 19970260 19784726 
1504.747 19575284 19315850 18996094 18636726 18289508 18013330 17839504 
1508.122 17762386 17751616 17774674 17808848 17843784 17879416 17920952 
1511.498 17972854 18036194 18108214 18184702 18262656 18341316 18421544 
1514.873 18504692 18591212 18680964 18775682 18880700 19004262 19154246 
1518.248 19334314 19540832 19762394 19982820 20188224 20373618 20548738 
1521.623 20733766 20950304 21207342 21497014 21800396 22096916 22373576 
1524.999 22627478 22867908 23111374 23375532 23670714 23997680 24351314 
1528.374 24725196 25116704 25527016 25959558 26416546 26895834 27393508 
1531.749 27905464 28432492 28982264 29569296 30208486 30903756 31648002 
1535.124 32424160 33215120 34005696 34786652 35556292 36314720 37066360 
1538.500 37815900 38568080 39323196 40075448 40818336 41544860 42251300 
1541.875 42939876 43612800 44270040 44907220 45515752 46084796 46604264 
1545.250 47070292 47483332 47844528 48150200 48384928 48521100 48527992 
1548.625 48377296 48060328 47594528 47019112 46375328 45685008 44940876 
1552.000 44111492 43159872 42066804 40850152 39568292 38305736 37132220 
1555.376 36080628 35134024 34234476 33294604 32219422 30938588 29448684 
1558.751 27855012 26346094 25093324 24161096 23511746 23061228 22728928 
1562.126 22455670 22200228 21938662 21661444 21372950 21089030 20830810 
1565.501 20616138 20451236 20328200 20228246 20129394 20011722 19864840 
1568.877 19691278 19505586 19329602 19181360 19071354 19000212 18962066 
1572.252 18948120 18947426 18948222 18935242 18892570 18807064 18675982 
1575.627 18512888 18348366 18220222 18154230 18156166 18214314 18309552 
1579.002 18424240 18546498 18672144 18801666 18937840 19082848 19236772 
1582.378 19398546 19566862 19741970 19925578 20119884 20326290 20544952 
1585.753 20775160 21016654 21271260 21543148 21837502 22159080 22510106 
1589.128 22890542 23298754 23733596 24195252 24685316 25204376 25750352 
1592.503 26317366 26895658 27473628 28041200 28589590 29112028 29602852 
1595.879 30055134 30461040 30813006 31104354 31331434 31493288 31590450 
1599.254 31623806 31593158 31497278 31335030 31107808 30821722 30487768 
1602.629 30122498 29745966 29376532 29029658 28715734 28439286 28202610 
1606.004 28007342 27855824 27751440 27696414 27689704 27727388 27803718 
1609.380 27913662 28055550 28231074 28443636 28694954 28983112 29301060 
1612.755 29637968 29982880 30325470 30656846 30970612 31261354 31528060 
1616.130 31775716 32019090 32279768 32576994 32922852 33316210 33745808 
1619.505 34193068 34638244 35065736 35464888 35834464 36182064 36521400 
1622.881 36866740 37227912 37608348 38004456 38411564 38825724 39245104 
1626.256 39669388 40097720 40529824 40966800 41414532 41883376 42388780 
1629.631 42945728 43562580 44239664 44967632 45733008 46519320 47315704 
1633.006 48119916 48938496 49786444 50682820 51646352 52685412 53797128 
1636.382 54973252 56202272 57476608 58792556 60145956 61528248 62926324 
1639.757 64327956 65720448 67096024 68452704 69787600 71093240 72355024 
1643.132 73546656 74637240 75599672 76413968 77076352 77599688 78014184 
1646.507 78355744 78660672 78962888 79286576 79649392 80059880 80515664 
1649.883 80998840 81471320 81879776 82149840 82210776 82036400 81700336 
1653.258 81371368 81207272 81264080 81482392 81760448 82005104 82160008 
1656.633 82203048 82133424 81963760 81706776 81368848 80945936 80426856 
1660.008 79799552 79055880 78195136 77224208 76156368 75012896 73822928 
1663.384 72621536 71443144 70312304 69233912 68189856 67138752 66023148 
1666.759 64776212 63337288 61666164 59757240 57645676 55401712 53115216 
1670.134 50871160 48733788 46739184 44894984 43185304 41574500 40013604 
1673.509 38451312 36854368 35228520 33635376 32178596 30956700 30024916 
1676.885 29374406 28954848 28702636 28569632 28533466 28594756 28764800 
1680.260 29051092 29446946 29934918 30499070 31139986 31889346 32808632 
1683.635 33969216 35400284 37064228 38871888 40736884 42619864 44528596 
1687.010 46493912 48542296 50676752 52873388 55076680 57218320 59239840 
1690.385 61100336 62786704 64307204 65679008 66918836 68036640 69032504 
1693.761 69901000 70635656 71238128 71723008 72122048 72469920 72779752 
1697.136 73030496 73162192 73089256 72703792 71909520 70673936 69088632 
1700.511 67368696 65744884 64346632 63157528 62074176 60969080 59739596 
1703.886 58323528 56706660 54921172 53034456 51128012 49266608 47485440 
1707.262 45789560 44164716 42586060 41024188 39451480 37845360 36195752 
1710.637 34507752 32802810 31111652 29461484 27872608 26350528 24889552 
1714.012 23481702 22124702 20827996 19608596 18482944 17457636 16523601 
1717.387 15666625 14877711 14163207 13542777 13035824 12647101 12361191 
1720.763 12146984 11966839 11790343 11601429 11404672 11219258 11069339 
1724.138 10969082 10915190 10888655 10865620 10828523 10771422 10699487 
1727.513 10621284 10540853 10452597 10343524 10200826 10020537 9810599 
1730.888 9586129 9358389 9126471 8872188 8567866 8190987 7748892 7286794 
1734.746 6871200 6551054 6335658 6199246 6100308 6001258 5876438 5719353 
1738.603 5540814 5363454 5207997 5083706 4984955 4898759 4814121 4729265 
1742.461 4650823 4588568 4547683 4524882 4508912 4487385 4453874 4410560 
1746.318 4367617 4335655 4320696 4318387 4316814 4301219 4263540 4205825 
1750.176 4140589 4083090 4043791 4023692 4015465 4010014 4002189 3993294 
1754.033 3988378 3992224 4005266 4021652 4032153 4029946 4015298 3997073 
1757.890 3987576 3996738 4025899 4067638 4108176 4135002 4142697 4136006 
1761.748 4127911 4131992 4155943 4196825 4244669 4288269 4321733 4344992 
1765.605 4363232 4381941 4403229 4424216 4438342 4440049 4428835 4409990 
1769.463 4391748 4379799 4373474 4365106 4343587 4301788 4242026 4177387 
1773.320 4123328 4090482 4078073 4075999 4070146 4050714 4015398 3970421 
1777.177 3926385 3892484 3870820 3856044 3837324 3805033 3757003 3699588 
1781.035 3644653 3602755 3577565 3564001 3552309 3532667 3501735 3464159 
1784.892 3430026 3409187 3405347 3414497 3427622 3436472 3437173 3432431 
1788.750 3429024 3433266 3447092 3465595 3479423 3480124 3465228 3440980 
1792.607 3419306 3411558 3421443 3444587 3471139 3492783 3505543 3511990 
1796.465 3517668 3527956 3544225 3562598 3575727 3577932 3568378 3552242 
1800.322 3538947 3536274 3546463 3565104 3584413 3597109 3601452 3601152 
1804.179 3603256 3613614 3633460 3658253 3680574 3694108 3697048 3692771 
1808.037 3687959 3688360 3695378 3705002 3710416 3706239 3692337 3674392 
1811.894 3660792 3658086 3667308 3683582 3698486 3705537 3702863 3694943 
1815.752 3689797 3694643 3711953 3738287 3766395 3788989 3803529 3812655 
1819.609 3822749 3839530 3864368 3893420 3919966 3938188 3945210 3943738 
1823.467 3939024 3936248 3937386 3940295 3940595 3935647 3926151 3916455 
1827.324 3911340 3913312 3919966 3925549 3923075 3909534 3888672 3869750 
1831.181 3862228 3870653 3892016 3917358 3936750 3942534 3934042 3917090 
1835.039 3900708 3892250 3893955 3901912 3909467 3911139 3906091 3898735 
1838.896 3896295 3904185 3922473 3946380 3968114 3981188 3983195 3976106 
1842.754 3965004 3955341 3948720 3942869 3934276 3921972 3908999 3901912 
1846.611 3906626 3924847 3953034 3983797 4008676 4022555 4026702 4026568 
1850.469 4029912 4041617 4061116 4083324 4102088 4113561 4118946 4123295 
1854.326 4132995 4150324 4172436 4191773 4200271 4193680 4174544 4150324 
1858.183 4130821 4122793 4126506 4136842 4146176 4149889 4148149 4146176 
1862.041 4150624 4165979 4190903 4219910 4245238 4261934 4269697 4272475 
1865.898 4275821 4282480 4290143 4293021 4284856 4263540 4234096 4206493 
1869.756 4190869 4191940 4206058 4223556 4235133 4234397 4222285 4205088 
1873.613 4191137 4185918 4189498 4196691 4200538 4197460 4188929 4180799 
1877.470 4180431 4191907 4213118 4237910 4257919 4268526 4270768 4270467 
1881.328 4274850 4287801 4308146 4329698 4345695 4352623 4352522 4352355 
1885.185 4360220 4379398 4407580 4436468 4456887 4462411 4452703 4433790 
1889.043 4414609 4402024 4397372 4396936 4395564 4390008 4382008 4376787 
1892.900 4380268 4395330 4419362 4445506 4465859 4476438 4478179 4477543 
1896.758 4481861 4495018 4516077 4539212 4557963 4568242 4571457 4572897 
1900.615 4578522 4591548 4609798 4627782 4639972 4644158 4642751 4642751 
1904.472 4650923 4669946 4696875 4724375 4744942 4754790 4755762 4753852 
1908.330 4755762 4764606 4777671 4788458 4790066 4780049 4761658 4742965 
1912.187 4731208 4730772 4739850 4752446 4761423 4763199 4758409 4751474 
1916.045 4746550 4744875 4742798 4734625 4716168 4688870 4660200 4640575 
1919.902 4637695 4652531 4678721 4704914 4721327 4723604 4714728 4703976 
1923.760 4701698 4712349 4734390 4760251 4781591 4794924 4802060 4809598 
1927.617 4824172 4848430 4878888 4908108 4928550 4937263 4937766 4938235 
1931.474 4945675 4963136 4986731 5008518 5021188 5022394 5016394 5012506 
1935.332 5019579 5040294 5070430 5100736 5121891 5129334 5126283 5120416 
1939.189 5120886 5131849 5150893 5170743 5183619 5185598 5179394 5172151 
1943.047 5170743 5177214 5188246 5196898 5198105 5193042 5188850 5195725 
1946.904 5220808 5263567 5314917 5362884 5396431 5413306 5420218 5430987 
1950.761 5457225 5502826 5561487 5620088 5664129 5685412 5685043 5672420 
1954.619 5659664 5654528 5658019 5664767 5668291 5665136 5657717 5652917 
1958.476 5657919 5675441 5701291 5727243 5747119 5758669 5767634 5782240 
1962.334 5808667 5845607 5885673 5917279 5931084 5925508 5907472 5888293 
1966.191 5877512 5878117 5884666 5888764 5884834 5873918 5866194 5873583 
1970.049 5903172 5953287 6011639 6061667 6091370 6097788 6088480 6078165 
1973.906 6080047 6098595 6130182 6164662 6194171 6217531 6241026 6272321 
1977.763 6315520 6364977 6407580 6429000 6420627 6385488 6336365 6289600 
1981.621 6256119 6238606 6229900 6218774 6196691 6163419 6126385 6097687 
1985.478 6085691 6090799 6106122 6121714 6129476 6129645 6129342 6137911 
1989.336 6160865 6196389 6234269 6261833 6271615 6264186 6248925 6238337 
1993.193 6240555 6254505 6271346 6277565 6263749 6230068 6186642 6147254 
1997.051 6124066 6120370 6130955 6143826 6149102 6142986 6129947 6119462 
2000.908 6118756 6130182 6147791 6163284 6169569 6167149 6162646 6167183 
2004.765 6188087 6225497 6270506 6310813 6336028 6344971 6344434 6346048 
2008.623 6358050 6381587 6407916 6424393 6421669 6398299 6362287 6326581 
2012.480 6303384 6297702 6306947 6323891 6341139 6357445 6376073 6402469 
2016.338 6439593 6482943 6521656 6544730 6543149 6517653 6477091 6435625 
2020.195 6403376 6386395 6382999 6388278 6398164 6413128 6435322 6467304 
2024.052 6506150 6543015 6565653 6563836 6535783 6490040 6442990 6409194 
2027.910 6397761 6405966 6420661 6426915 6415986 6388345 6355697 6332733 
2031.767 6329102 6345745 6373820 6399341 6411312 6407243 6392044 6375468 
2035.625 6364910 6361648 6360875 6355495 6340802 6317974 6293668 6274842 
2039.482 6265800 6263917 6262304 6252286 6231076 6202473 6175383 6159856 
2043.340 6162075 6180156 6205800 6228656 6241160 6243513 6241261 6242673 
2047.197 6254303 6276456 6304157 6329237 6345106 6348737 6341105 6325673 
2051.054 6304493 6278339 6245933 6206170 6161335 6116169 6076921 6047925 
2054.912 6030488 6020610 6011875 5999814 5982983 5965179 5951944 5948283 
2058.769 5954295 5965817 5975290 5975627 5965817 5949122 5933301 5925844 
2062.627 5930647 5945864 5966153 5984663 5997933 6006668 6015301 6028237 
2066.484 6047186 6069664 6089858 6102492 6105483 6099771 6090833 6083507 
2070.342 6080282 6079744 6077728 6070067 6055686 6037442 6020207 6009355 
2074.199 6008012 6014697 6026019 6038517 6050579 6064187 6082600 6107970 
2078.056 6139457 6172896 6201498 6219850 6226774 6224455 6218808 6215716 
2081.914 6218505 6226942 6238437 6249362 6258405 6266371 6275246 6286037 
2085.771 6297668 6306140 6306039 6294508 6272220 6243816 6216152 6194910 
2089.629 6181970 6175081 6169166 6159554 6145237 6129342 6117345 6115262 
2093.486 6125612 6146380 6172056 6196356 6214472 6225832 6232622 6237866 
2097.344 6243648 6249900 6254472 6256018 6255110 6254269 6257497 6267548 
2101.201 6284221 6303451 6320092 6329237 6328228 6318546 6303719 6287281 
2105.058 6271313 6255984 6239748 6222135 6204523 6189734 6181265 6180324 
2108.916 6184559 6189365 6188894 6179584 6161940 6140768 6121882 6109919 
2112.773 6105853 6106222 6105550 6099401 6086263 6069126 6053468 6043792 
2116.631 6042314 6047253 6054107 6058676 6059147 6056526 6054107 6055552 
2120.488 6061062 6068824 6074872 6075745 6070806 6062574 6054779 6051419 
2124.345 6053233 6057232 6058206 6052226 6037442 6016343 5994137 5975996 
2128.203 5965078 5961148 5960779 5959804 5956445 5950802 5945528 5943210 
2132.060 5945125 5949458 5953556 5954934 5953422 5951272 5952381 5959435 
2135.918 5972166 5987250 6000150 6008448 6012177 6015201 6022726 6038383 
2139.775 6062003 6089757 6116068 6136668 6150950 6163083 6178173 6201162 
2143.633 6233160 6269565 6304526 6332599 6351494 6362455 6369381 6375434 
2147.490 6381184 6384714 6383470 6376981 6368474 6365111 6373551 6397088 
2151.347 6433238 6472517 6504536 6519940 6514660 6492260 6460612 6428597 
2155.205 6403477 6388783 6386127 6397526 6427218 6477730 6550852 6639799 
2159.062 6730716 6807112 6854201 6865410 6845820 6807785 6765143 6728361 
2162.920 6700330 6676877 6651979 6621699 6586510 6553039 6528719 6517485 
2166.777 6518258 6524986 6530199 6529459 6523068 6514727 6510321 6512978 
2170.635 6520277 6526768 6527206 6519200 6506284 6496665 6498078 6514929 
2174.492 6544360 6576115 6597948 6600841 6582069 6546715 6504267 6463975 
2178.349 6431892 6408622 6391573 6377754 6366322 6358454 6356840 6361312 
2182.207 6368574 6372777 6367835 6351393 6325270 6296559 6273767 6262236 
2186.064 6263884 6274909 6290273 6305165 6317873 6330178 6344971 6364069 
2189.922 6385084 6404856 6418844 6425368 6425806 6425536 6429538 6441006 
2193.779 6459536 6481295 6500802 6514559 6521723 6524145 6524784 6525322 
2197.636 6525154 6522362 6514895 6502887 6489199 6478907 6475746 6481329 
2201.494 6492663 6504401 6511397 6511532 6505780 6499457 6497977 6504569 
2205.351 6519570 6540021 6561549 6581699 6599159 6614465 6628091 6638353 
2209.209 6641650 6633979 6613053 6579815 6539651 6500903 6469995 6450422 
2213.066 6440770 6436331 6432262 6425907 6418206 6413162 6414607 6422645 
2216.924 6434280 6443023 6442822 6429706 6404856 6373315 6342215 6316798 
2220.781 6299450 6288625 6281633 6275582 6269128 6262909 6257665 6252656 
2224.638 6245866 6234370 6216119 6192087 6165738 6142650 6126654 6118521 
2228.496 6115262 6111397 6101350 6082600 6057097 6030218 6008112 5995380 
2232.353 5993162 5999176 6009490 6020845 6032402 6045371 6061566 6081054 
2236.211 6102157 6121008 6133811 6137810 6134215 6126284 6119059 6117110 
2240.068 6122621 6135828 6155655 6180526 6209228 6241496 6276759 6312965 
2243.926 6347863 6378460 6402805 6421501 6437004 6453045 6472719 6496766 
2247.783 6523068 6547287 6564812 6571573 6566830 6551895 6529493 6502820 
2251.640 6474838 6447631 6423384 6404251 6392549 6389388 6394028 6403174 
2255.498 6411817 6414238 6406974 6389455 6364674 6337373 6312326 6293029 
2259.355 6279246 6269363 6260858 6251547 6241227 6231177 6222169 6215077 
2263.213 6209598 6204556 6199111 6193465 6188928 6187012 6188692 6192658 
2267.070 6195986 6195549 6188289 6173266 6152496 6129073 6106626 6087170 
2270.927 6071310 6057971 6045674 6033914 6023533 6015940 6012950 6015066 
2274.785 6021517 6030151 6038282 6044363 6047790 6048899 6049302 6049806 
2278.642 6051386 6054308 6058878 6065262 6073931 6085086 6097788 6110557 
2282.500 6121781 6129813 6133946 6134853 6133946 6132736 6132064 6131728 
2286.357 6130451 6126956 6120907 6113044 6104744 6098191 6094663 6094193 
2290.215 6095604 6097317 6098326 6098292 6097922 6098393 6100812 6105483 
2294.072 6112103 6120201 6128670 6137508 6146413 6154815 6162175 6167385 
2297.929 6169334 6167889 6163923 6159218 6155521 6154580 6155757 6158042 
2301.787 6159218 6157806 6153673 6148800 6145506 6146615 6153101 6163789 
2305.644 6176459 6187987 6196019 6200490 6202708 6204388 6207346 6211917 
2309.502 6217093 6221262 6223480 6223110 6221564 6220152 6220085 6221396 
2313.359 6223110 6223816 6222572 6219715 6216623 6215178 6216993 6222236 
2317.217 6230001 6238740 6246774 6253698 6259850 6266674 6274977 6284995 
2321.074 6295282 6303552 6307216 6303989 6292962 6274473 6249598 6220018 
2324.931 6187550 6154379 6122520 6094125 6070941 6053738 6042179 6035124 
2328.789 6030655 6027228 6024205 6022156 6022156 6025314 6031932 6040970 
2332.646 6050949 6060356 6068387 6075913 6084481 6095906 6111230 6129846 
2336.504 6149909 6169199 6185903 6199145 6209430 6217598 6224388 6229631 
2340.361 6232858 6232790 6229228 6222774 6214841 6206909 6200019 6193700 
2344.219 6187046 6178475 6167519 6155286 6144465 6138180 6139524 6150615 
2348.076 6171720 6201968 6239648 6282608 6328497 6374929 6419988 6461823 
2351.933 6499154 6531477 6559161 6583415 6604911 6624054 6640539 6652753 
2355.791 6659179 6659011 6652719 6642423 6630984 6621093 6614163 6610058 
2359.648 6607401 6604339 6599697 6593069 6585097 6576687 6568479 6560203 
2363.506 6551760 6542477 6532218 6521891 6512036 6502887 6493908 6483683 
2367.363 6470701 6454424 6435827 6417197 6401560 6391204 6386463 6386160 
2371.220 6387337 6386833 6382562 6374257 6363128 6351326 6341340 6334549 
2375.078 6331153 6330615 6332128 6334313 6336667 6338617 6339962 6340500 
2378.935 6340164 6339592 6339525 6341139 6345409 6352873 6363128 6375232 
2382.793 6387841 6400148 6411749 6423149 6434885 6447530 6460982 6474670 
2386.650 6487450 6498785 6508404 6516745 6524549 6532386 6540256 6547825 
2390.508 6554418 6559901 6564745 6569723 6575745 6583280 6591690 6599360 
2394.365 6604878 6607165 6606425 6604171 6602422 6602960 6606694 6613221 
2398.222 6620959 6628091 6633239 6635291 6634214 6630177 6623280 6613793 
2402.080 6602119 6589403 6577628 6569320 6566460 6570631 6581295 6596535 
2405.937 6613423 6629336 6642726 6653425 6662611 6671594 6681689 6692961 
2409.795 6704536 6715775 6725669 6734182 6741518 6748283 6754610 6760297 
2413.652 6765210 6769080 6772446 6776384 6782139 6790283 6800650 6812026 
2417.510 6822897 6831750 6838044 6841881 6844541 6847233 6850802 6855481 
2421.367 6861001 6867262 6873860 6881098 6889244 6898266 6907658 6916411 
2425.224 6923482 6928397 6931494 6934087 6937823 6943715 6952301 6963142 
2429.082 6975230 6987419 6999271 7010585 7021462 7031463 7040454 7047257 
2432.939 7051500 7053151 7053049 7052847 7054296 7058135 7064095 7070831 
2436.797 7076758 7080564 7082248 7082821 7083999 7087738 7094945 7105588 
2440.654 7118858 7133241 7147320 7160154 7170428 7177805 7181881 7182623 
2444.511 7180837 7178142 7176222 7177064 7181646 7189326 7198455 7206608 
2448.369 7211897 7213683 7213076 7212099 7213379 7218129 7226384 7236457 
2452.226 7246868 7256099 7263916 7271261 7279313 7288950 7300002 7311122 
2456.084 7320625 7327263 7330700 7331711 7331509 7331206 7330869 7330531 
2459.941 7329285 7327128 7325174 7324803 7327701 7334609 7345190 7357794 
2463.799 7370365 7381385 7390215 7397765 7405011 7412965 7421627 7430087 
2467.656 7436896 7441345 7443468 7444682 7446671 7450850 7457390 7465379 
2471.513 7473232 7479604 7484053 7487391 7490863 7495751 7502830 7511393 
2475.371 7520293 7528722 7536341 7544129 7553232 7565032 7579598 7596423 
2479.228 7613249 7628086 7639518 7647106 7651085 7652535 7652535 7651590 
2483.086 7650241 7648926 7648151 7649331 7653681 7662281 7675332 7692937 
2486.943 7713949 7737694 7763599 7790855 7819361 7848409 7876683 7903170 
2490.801 7926385 7945687 7961211 7973630 7984024 7993103 8001000 8007784 
2494.658 8013117 8017369 8021487 8026887 8034954 8045822 8058953 8072759 
2498.515 8084911 8094059 8099831 8102735 8104423 8106347 8109588 8114246 
2502.373 8120155 8126299 8132814 8139938 8148007 8157291 8167825 8178765 
2506.230 8189299 8198922 8207566 8215940 8224652 8234276 8244643 8255112 
2510.088 8264905 8273078 8279494 8284864 8290132 8296516 8304486 8314483 
2513.945 8326270 8339578 8354407 8370552 8388016 8406292 8424805 8442339 
2517.802 8458150 8471699 8483321 8493491 8503188 8513359 8524477 8536810 
2521.660 8550496 8565500 8582026 8599938 8618459 8636204 8651684 8663345 
2525.517 8670714 8674331 8676156 8678759 8684674 8695222 8710264 8728892 
2529.375 8749209 8769427 8788801 8807397 8825387 8843816 8862787 8882232 
2533.232 8901881 8921531 8940945 8960293 8979506 8998313 9016005 9032109 
2537.090 9046250 9058801 9070846 9083737 9098556 9115644 9134897 9155066 
2540.947 9175370 9194863 9213714 9231957 9249828 9267394 9284184 9299146 
2544.804 9312043 9322673 9331848 9340683 9350163 9360251 9370374 9379347 
2548.662 9385780 9388996 9389741 9389199 9389199 9391434 9396547 9404436 
2552.519 9414424 9425497 9436468 9446931 9456311 9464168 9470026 9473718 
2556.377 9474734 9473447 9470636 9467317 9463694 9460240 9456481 9451977 
2560.234 9446254 9439752 9433217 9427732 9423837 9421738 9420553 9419030 
2564.092 9415846 9410598 9403183 9394718 9386389 9379008 9372812 9367666 
2567.949 9362689 9357644 9352228 9346675 9341360 9336757 9332693 9328631 
2571.806 9324061 9318644 9311840 9303750 9294305 9283338 9270983 9257172 
2575.664 9242246 9227150 9213206 9201462 9192934 9187926 9185658 9185116 
2579.521 9184947 9183729 9180751 9175709 9168365 9158889 9147621 9134965 
2583.379 9121497 9108233 9096222 9086342 9079237 9074736 9072673 9072436 
2587.236 9073756 9076632 9081402 9088237 9097068 9107591 9119162 9131006 
2591.094 9142714 9154084 9165488 9176892 9188196 9198958 9208536 9216523 
2594.951 9222886 9228538 9234529 9241941 9251520 9263434 9276906 9291394 
2598.808 9306119 9320913 9335571 9350332 9364957 9379177 9392416 9404368 
2602.666 9415101 9425497 9436468 9448895 9463253 9479068 9495425 9511275 
2606.523 9526041 9539624 9552325 9564722 9576916 9588771 9599916 9609774 
2610.381 9618751 9627254 9636265 9646801 9659031 9672346 9685729 9697757 
2614.238 9707617 9715375 9721780 9727879 9734860 9742958 9751802 9760817 
2618.095 9769220 9776540 9782775 9788232 9793350 9798501 9803787 9809515 
2621.953 9816565 9825444 9837002 9851812 9869675 9889674 9910928 9931980 
2625.810 9951914 9970900 9988835 10006228 10023081 10039086 10053565 
2629.186 10066009 10076861 10086560 10096497 10107553 10120678 10135431 
2632.561 10151168 10166839 10181763 10195772 10209375 10223011 10237667 
2635.936 10252628 10267624 10281703 10294257 10305860 10316752 10328153 
2639.311 10340504 10353704 10366973 10379257 10389403 10397073 10402706 
2642.687 10406949 10411191 10416417 10423137 10431385 10440718 10451036 
2646.062 10461999 10473302 10484707 10495977 10506805 10516819 10526697 
2649.437 10537085 10548492 10561902 10577179 10593646 10610249 10625427 
2652.812 10638363 10648550 10656462 10662914 10668891 10675037 10681760 
2656.188 10689164 10697076 10705736 10715313 10726046 10737797 10750432 
2659.563 10763032 10774818 10785009 10793398 10799445 10803691 10806341 
2662.938 10807700 10807903 10807564 10807190 10807461 10809160 10812523 
2666.313 10817109 10822001 10825533 10826451 10823971 10818094 10809704 
2669.688 10800260 10790817 10782326 10774649 10767312 10760009 10752368 
2673.064 10744624 10737593 10731854 10727880 10725604 10724347 10723532 
2676.439 10722480 10720374 10717148 10712529 10706619 10699691 10691880 
2679.814 10683934 10676158 10669434 10664000 10659654 10655817 10651844 
2683.189 10646852 10640774 10633745 10626886 10620843 10616395 10613373 
2686.565 10611437 10609807 10608143 10606649 10605834 10606820 10610113 
2689.940 10615953 10623457 10631504 10638533 10643388 10645766 10646003 
2693.315 10644712 10642880 10641215 10640061 10639654 10639891 10640943 
2696.690 10642845 10645663 10649365 10653745 10658669 10663729 10669162 
2700.066 10675172 10681998 10689911 10699284 10710152 10722480 10736336 
2703.441 10751722 10768840 10787624 10807665 10828659 10849891 10870546 
2706.816 10890353 10909007 10926709 10943528 10959635 10975063 10989913 
2710.191 11004458 11019309 11035317 11053364 11074267 11097993 11124065 
2713.567 11151330 11178527 11204536 11228982 11252003 11274411 11296958 
2716.942 11320662 11345863 11373073 11402291 11433484 11466585 11501254 
2720.317 11536537 11571789 11605989 11638626 11669769 11700471 11731720 
2723.692 11764945 11801068 11840053 11880983 11922325 11962343 11999741 
2727.068 12034112 12065588 12094990 12123133 12150664 12177924 12205117 
2730.443 12232109 12258999 12285686 12312308 12338759 12365043 12391089 
2733.818 12416830 12441994 12466680 12490687 12513842 12535736 12555688 
2737.193 12573662 12589591 12603746 12616946 12630011 12643212 12656857 
2740.569 12670367 12683092 12694589 12704688 12713592 12722122 12731061 
2743.944 12741059 12752524 12765251 12778832 12792720 12806336 12819167 
2747.319 12830873 12841317 12850190 12857323 12862886 12867186 12870668 
2750.694 12873876 12877119 12880600 12884354 12888109 12891420 12894355 
2754.070 12896369 12897803 12898280 12898042 12896847 12894901 12892205 
2757.445 12889167 12886300 12883638 12881692 12880225 12879167 12878279 
2760.820 12877665 12877562 12878382 12880361 12883774 12888143 12893161 
2764.195 12898212 12903025 12907462 12912105 12917293 12923472 12930946 
2767.571 12939242 12947844 12956072 12963547 12970340 12977100 12984543 
2770.946 12993522 13004822 13018274 13033741 13050471 13067510 13083935 
2774.321 13099165 13112722 13124299 13134476 13143253 13151313 13159100 
2777.696 13167160 13175767 13185159 13195509 13207224 13220443 13235337 
2781.072 13251904 13269634 13288082 13306462 13324195 13341141 13357371 
2784.447 13374080 13392225 13413002 13437163 13464778 13495230 13527258 
2787.822 13559493 13590192 13618364 13643323 13665069 13684012 13701315 
2791.197 13718106 13735205 13753672 13773851 13795433 13818179 13841234 
2794.573 13864188 13886321 13907840 13928607 13948760 13968195 13986740 
2797.948 14004124 14020037 14034854 14048852 14062678 14077361 14093276 
2801.323 14110493 14128942 14148111 14167589 14186965 14206137 14225001 
2804.698 14243832 14262767 14282078 14302179 14323479 14346560 14372007 
2808.073 14399921 14429823 14460618 14491141 14519953 14546300 14569839 
2811.449 14591427 14612089 14632788 14654618 14678060 14702874 14728992 
2814.824 14756209 14784456 14814179 14845275 14878226 14912619 14948215 
2818.199 14984637 15021474 15058520 15095981 15133719 15171872 15210200 
2821.574 15248326 15286009 15323283 15360458 15398047 15436601 15476601 
2824.950 15518184 15561110 15605003 15649518 15694208 15738836 15783366 
2828.325 15827589 15871439 15914710 15957469 16000060 16042657 16085772 
2831.700 16129443 16173702 16218139 16262304 16305717 16348755 16392142 
2835.075 16436806 16484331 16535202 16589968 16647942 16708059 16769079 
2838.451 16829972 16890354 16950918 17012524 17076964 17146240 17222146 
2841.826 17306446 17401104 17507446 17627546 17763248 17916464 18089526 
2845.201 18284462 18502306 18743266 19005094 19283462 19570570 19856134 
2848.576 20128212 20372714 20577712 20732272 20828898 20864600 20840128 
2851.952 20760458 20632990 20467802 20276084 20069182 19857836 19651790 
2855.327 19458524 19283842 19131184 19001908 18895686 18810696 18744788 
2858.702 18695112 18658930 18633924 18618222 18610510 18609956 18616458 
2862.077 18630014 18650768 18678682 18713584 18755306 18803500 18857998 
2865.453 18919012 18986436 19060932 19142854 19232478 19329428 19433368 
2868.828 19543086 19657198 19773490 19889572 20002978 20110756 20210230 
2872.203 20299312 20376118 20440470 20492916 20535226 20570210 20600956 
2875.578 20631254 20663882 20701306 20744818 20794696 20850452 20910772 
2878.954 20974368 21040060 21107048 21175438 21245616 21318344 21394494 
2882.329 21474178 21557110 21642358 21727868 21811442 21890258 21961420 
2885.704 22022452 22071778 22108942 22134744 22151514 22162882 22172506 
2889.079 22184920 22203856 22232694 22274266 22332030 22409300 22511396 
2892.455 22644478 22816430 23036248 23313226 23655982 24072132 24566018 
2895.830 25137312 25778480 26473910 27197616 27912460 28575790 29140162 
2899.205 29559082 29797596 29833510 29663440 29302158 28781262 28144418 
2902.580 27436496 26704076 25986256 25311942 24701518 24165826 23708924 
2905.956 23329834 23024368 22787412 22612818 22494716 22428316 22409406 
2909.331 22435292 22503754 22613552 22762620 22948560 23167324 23413858 
2912.706 23681596 23962980 24250570 24536214 24812014 25070436 25304426 
2916.081 25507934 25676808 25808788 25904196 25965256 25995896 26000504 
2919.457 25982986 25946192 25891182 25817862 25725636 25614102 25484042 
2922.832 25338038 25180358 25016872 24854712 24701098 24563144 24446822 
2926.207 24356780 24295350 24262624 24256702 24273416 24307756 24354608 
2929.582 24408580 24465612 24522192 24575204 24621174 24656488 24676478 
2932.958 24676268 24651438 24598558 24515356 24402272 24260592 24093530 
2936.333 23904824 23699160 23480618 23254182 23024892 22797784 22578020 
2939.708 22370786 22180212 22009904 21862590 21739606 21641314 21566790 
2943.083 21513830 21478528 21456248 21441140 21426416 21406156 21374864 
2946.458 21328540 21265658 21186884 21095152 20994710 20891302 20790454 
2949.834 20696268 20611622 20537414 20472806 20415500 20362784 20312332 
2953.209 20262058 20210926 20158650 20104822 20049020 19990696 19928944 
2956.584 19863038 19792770 19718252 19640106 19559272 19476858 19393106 
2959.959 19308678 19223714 19138246 19052694 18967708 18883746 18801390 
2963.335 18720952 18642502 18565792 18491036 18418192 18348054 18281388 
2966.710 18219012 18161864 18110702 18065934 18028182 17997824 17975720 
2970.085 17962736 17959662 17967466 17986770 18018130 18061270 18115744 
2973.460 18179762 18250734 18324552 18396206 18459400 18507666 18535086 
2976.836 18537022 18510606 18455632 18374566 18271952 18154092 18028594 
2980.211 17902756 17783752 17677204 17586832 17514552 17460086 17421556 
2983.586 17395484 17377480 17363308 17348444 17329374 17303926 17271172 
2986.961 17231318 17186190 17138072 17089888 17044088 17002944 16967422 
2990.337 16937998 16914158 16895040 16879332 16865964 16854598 16844816 
2993.712 16837204 16832382 16831176 16834104 16841508 16852978 16868032 
2997.087 16885358 16903754 16922116 16939858 16956982 16973622 16990506 
3000.462 17008080 17026616 17046328 17067108 17088682 17111118 17134384 
3003.838 17158580 17183916 17210252 17237558 17265104 17292548 17319202 
3007.213 17345098 17370066 17394588 17418972 17443598 17468606 17493994 
3010.588 17519728 17546016 17572686 17600046 17627962 17656464 17685176 
3013.963 17713718 17741330 17767770 17793038 17817444 17841920 17867538 
3017.339 17895574 17926824 17961734 18000032 18041236 18084378 18128354 
3020.714 18172852 18217562 18262934 18309518 18357940 18408028 18459712 
3024.089 18511782 18562888 18611754 18657512 18699816 18739114 18776132 
3027.464 18811564 18846026 18879974 18913162 18945350 18976328 19005924 
3030.840 19034414 19062282 19089774 19117056 19143962 19170278 19195212 
3034.215 19218382 19239404 19258038 19274698 19289836 19304350 19319522 
3037.590 19336288 19355724 19378348 19404160 19432538 19462684 19493386 
3040.965 19523746 19553240 19581904 19610296 19639100 19668812 19699704 
3044.341 19731672 19764198 19797038 19830296 19864286 19899666 19937026 
3047.716 19976714 20018280 20061028 20103676 20145254 20185308 20223804 
3051.091 20261850 20300702 20341636 20385250 20431474 20479752 20528868 
3054.466 20577992 20626598 20674792 20723340 20773284 20825528 20880348 
3057.842 20937612 20996102 21054250 21110770 21164098 21213398 21258038 
3061.217 21298054 21333552 21364806 21392302 21416460 21438182 21458406 
3064.592 21478564 21499696 21522988 21549066 21577864 21609204 21642428 
3067.967 21677014 21712924 21749952 21788588 21829002 21871442 21915384 
3071.343 21960412 22005652 22050688 22095520 22140602 22186768 22235346 
3074.718 22287138 22342774 22402078 22464428 22528950 22594772 22661060 
3078.093 22727390 22793592 22859666 22925400 22990932 23056022 23120528 
3081.468 23184692 23248554 23312738 23377806 23443968 23511538 23580448 
3084.844 23650386 23721068 23792460 23864322 23936860 24009864 24083164 
3088.219 24156156 24228218 24298364 24366068 24430804 24492954 24552836 
3091.594 24611392 24669112 24726526 24784160 24842116 24900852 24960858 
3094.969 25023084 25088408 25157710 25231588 25309764 25391642 25475750 
3098.344 25560892 25645770 25729926 25813360 25896880 25981718 26068932 
3101.720 26159398 26253896 26352182 26453978 26558932 26666376 26775786 
3105.095 26886774 26998638 27110388 27220828 27328332 27431204 27527920 
3108.470 27617350 27698782 27772244 27837984 27896950 27949634 27996740 
3111.845 28038338 28074638 28105284 28130346 28149614 28163402 28171956 
3115.221 28175740 28175208 28170402 28161210 28147564 28129110 28105424 
3118.596 28076544 28042614 28003986 27961260 27914792 27865116 27812338 
3121.971 27756986 27699628 27641184 27582890 27526262 27472498 27422732 
3125.346 27377876 27338458 27304620 27276606 27254624 27238820 27229120 
3128.722 27225238 27226436 27231412 27238784 27247428 27256566 27265952 
3132.097 27276182 27288214 27303174 27321874 27344564 27371276 27401556 
3135.472 27434838 27470840 27509282 27550374 27594398 27641290 27690588 
3138.847 27741938 27794322 27846816 27898468 27948714 27997200 28043958 
3142.223 28089588 28134588 28179982 28226514 28275170 28326272 28380352 
3145.598 28437020 28495678 28555690 28616132 28676372 28736160 28795706 
3148.973 28855262 28915536 28976878 29039506 29103278 29167694 29231872 
3152.348 29294820 29355756 29413760 29468754 29520954 29570786 29619346 
3155.724 29667378 29715878 29765268 29815660 29866766 29918270 29969674 
3159.099 30020762 30071468 30122214 30173356 30225358 30278324 30332434 
3162.474 30387368 30442738 30497826 30552390 30605896 30658162 30709368 
3165.849 30759514 30808916 30857544 30905536 30952500 30998512 31043742 
3169.225 31088446 31133720 31180568 31230128 31283182 31339802 31399280 
3172.600 31460158 31520862 31579688 31635388 31687598 31735898 31780850 
3175.975 31822920 31862744 31900794 31937700 31974256 32011386 32049838 
3179.350 32090008 32132070 32175102 32217886 32259174 32297936 32333876 
3182.726 32367398 32399598 32431946 32465578 32501214 32538958 32578174 
3186.101 32617782 32656576 32693404 32727454 32758322 32786156 32811706 
3189.476 32835826 32859594 32883790 32908808 32934614 32960530 32985910 
3192.851 33010326 33033244 33055090 33076256 33097032 33117450 33136866 
3196.227 33154604 33169948 33182464 33192228 33200242 33207536 33215012 
3199.602 33223488 33233076 33244162 33256576 33270850 33287160 33305726 
3202.977 33326048 33346872 33366550 33383332 33395820 33403978 33409022 
3206.352 33412602 33416898 33423052 33431352 33441014 33450640 33458658 
3209.728 33464600 33468534 33471148 33473510 33476230 33479198 33482172 
3213.103 33484388 33485714 33486646 33487756 33489652 33492800 33496380 
3216.478 33499602 33501140 33500426 33497344 33493016 33489150 33487432 
3219.853 33489294 33495486 33505470 33518534 33533208 33548314 33562528 
3223.229 33575412 33586580 33596388 33604944 33613076 33621448 33630580 
3226.604 33640532 33650844 33660832 33669892 33677804 33685144 33693056 
3229.979 33703480 33717728 33736924 33760668 33787812 33816004 33842828 
3233.354 33866468 33885924 33901360 33913828 33925112 33936720 33950048 
3236.729 33965816 33984484 34005444 34028268 34052100 34076324 34100408 
3240.105 34124352 34148296 34172816 34198156 34224724 34252580 34281516 
3243.480 34310920 34340176 34369404 34398564 34428008 34458068 34489348 
3246.855 34521632 34554712 34588044 34621628 34655108 34688452 34721972 
3250.230 34755640 34789024 34821584 34852600 34881144 34906960 34930088 
3253.606 34951272 34971420 34991640 35012544 35034700 35058084 35081864 
3256.981 35105576 35128532 35150160 35170636 35190076 35208976 35227948 
3260.356 35247280 35266796 35285768 35303020 35317252 35327640 35334144 
3263.731 35337484 35339104 35340972 35344532 35350496 35358552 35367428 
3267.107 35375516 35381160 35383100 35380980 35374544 35363976 35349492 
3270.482 35330944 35308268 35281636 35251484 35218464 35184292 35149868 
3273.857 35115956 35082908 35050364 35017496 34983268 34947288 34909116 
3277.232 34868868 34826932 34783888 34740492 34697676 34656440 34617612 
3280.608 34581908 34549296 34519196 34490316 34461012 34429944 34396192 
3283.983 34359724 34321136 34281692 34242508 34204432 34167508 34131916 
3287.358 34097040 34062924 34029776 33998420 33969324 33943064 33919384 
3290.733 33897920 33877612 33857480 33836812 33815536 33793828 33772232 
3294.109 33751428 33731912 33713756 33696780 33680452 33664232 33647908 
3297.484 33631620 33615648 33600868 33588404 33579280 33574192 33573624 
3300.859 33577452 33585832 33598216 33614504 33634624 33658504 33685500 
3304.234 33714652 33744444 33772700 33797520 33817364 33831688 33840896 
3307.610 33846552 33850780 33855616 33863032 33873708 33888252 33906520 
3310.985 33928408 33953992 33983692 34017772 34056436 34099408 34145572 
3314.360 34193604 34241968 34289332 34334872 34378480 34420944 34463304 
3317.735 34506636 34551700 34598376 34645852 34693080 34738304 34780944 
3321.111 34820432 34857232 34892780 34928616 34965924 35005504 35046484 
3324.486 35087540 35126556 35161296 35190612 35213792 35231288 35244012 
3327.861 35253068 35259604 35264172 35266688 35267080 35265464 35262016 
3331.236 35257452 35252420 35247028 35241388 35234596 35225324 35212640 
3334.612 35195716 35174412 35149044 35120088 35088080 35052736 35013584 
3337.987 34969228 34918524 34860428 34794620 34721504 34641724 34556292 
3341.362 34466032 34371376 34272480 34169552 34062888 33952988 33840896 
3344.737 33727432 33613432 33499240 33385050 33270348 33155356 33040180 
3348.113 32925606 32812848 32702946 32596712 32494142 32394208 32295506 
3351.488 32196116 32094930 31991628 31887028 31783096 31681650 31584930 
3354.863 31494286 31410038 31331718 31258114 31188186 31120620 31055238 
3358.238 30991642 30930156 30871026 30814786 30761576 30711858 30665948 
3361.614 30624170 30586698 30553670 30525160 30500954 30480658 30463884 
3364.989 30450058 30438506 30428662 30420382 30413202 30407448 30403324 
3368.364 30401584 30402650 30406878 30413772 30422620 30431932 30440178 
3371.739 30446220 30449348 30449454 30446966 30441814 30433888 30422408 
3375.115 30406062 30383070 30351870 30311614 30261982 30203156 30135566 
3378.490 30059394 29974252 29879650 29774566 29658260 29530106 29390430 
3381.865 29239704 29078724 28908488 28729680 28542880 28348872 28148482 
3385.240 27942744 27732898 27520082 27305890 27091522 26878246 26667222 
3388.615 26459612 26255938 26056266 25860236 25666402 25473782 25281246 
3391.991 25088516 24895694 24703834 24513988 24326782 24142846 23961998 
3395.366 23784270 23609486 23437882 23269912 23106130 22946672 22790974 
3398.741 22637566 22484490 22329622 22171146 22008092 21839872 21667016 
3402.116 21490434 21311176 21130702 20950652 20772276 20597170 20426544 
3405.492 20260914 20100414 19944172 19791212 19640316 19489990 19339650 
3408.867 19189082 19038708 18889110 18741122 18595258 18451414 18309276 
3412.242 18168638 18028286 17887804 17746990 17606326 17466294 17328168 
3415.617 17192430 17059698 16929798 16802312 16676726 16552893 16431300 
3418.993 16312769 16198328 16089074 15984900 15885221 15788553 15693488 
3422.368 15598546 15503590 15409136 15316487 15226637 15140478 15057765 
3425.743 14977778 14899177 14820830 14742121 14662637 14582483 14502103 
3429.118 14421808 14341937 14262869 14184877 14108610 14034615 13963130 
3432.494 13894156 13826867 13760204 13692630 13623458 13552110 13478927 
3435.869 13405210 13331609 13259659 13189770 13121977 13055593 12990073 
3439.244 12924495 12858313 12791526 12724306 12657335 12591296 12527142 
3442.619 12465282 12406193 12349634 12295060 12241686 12188726 12135195 
3445.995 12080885 12026004 11970756 11915684 11861096 11807332 11754358 
3449.370 11702139 11650505 11599251 11548378 11497477 11446480 11394978 
3452.745 11342666 11289510 11235171 11180295 11125323 11071005 11017916 
3456.120 10967009 10918350 10871973 10827232 10783310 10738646 10691711 
3459.496 10641011 10585973 10526935 10465461 10404064 10345696 10293103 
3462.871 10247879 10210427 10179660 10153509 10129292 10104941 10078862 
3466.246 10050377 10019079 9985648 9950219 9913607 9876522 9839950 9804262 
3470.104 9770440 9738349 9707481 9676919 9645548 9612111 9576543 9538776 
3473.961 9499930 9461323 9424075 9388793 9356087 9325652 9297216 9270881 
3477.818 9246341 9223902 9203290 9184135 9165420 9146504 9126573 9105256 
3481.676 9082925 9060324 9038333 9017765 8998956 8981569 8965062 8948691 
3485.533 8931678 8913921 8895929 8878241 8862313 8849530 8840975 8837357 
3489.391 8838574 8843849 8851796 8860420 8868298 8874285 8878208 8880339 
3493.248 8882130 8884328 8888218 8894001 8901238 8909558 8918351 8927687 
3497.105 8937529 8948793 8961882 8977679 8995844 9016242 9038231 9061846 
3500.963 9087052 9114730 9145794 9181495 9222548 9269900 9323824 9384154 
3504.820 9450081 9521198 9595918 9672786 9750345 9827036 9901776 9974494 
3508.678 10045731 10117218 10190887 10268675 10351906 10440888 10535082 
3512.053 10633134 10733687 10835385 10936971 11037628 11136576 11232961 
3515.428 11326239 11415999 11501968 11584789 11665208 11744043 11821632 
3518.803 11897328 11969428 12035679 12093559 12140816 12176220 12199733 
3522.179 12212138 12214455 12207742 12192100 12166849 12130356 12081397 
3525.554 12018306 11940988 11850064 11747447 11636075 11518707 11398413 
3528.929 11276792 11154626 11031205 10906187 10778148 10646343 10511014 
3532.304 10372198 10230984 10087883 9943337 9797789 9651883 9506398 9362588 
3536.162 9221634 9084785 8952513 8824541 8700596 8579728 8461900 8347178 
3540.019 8236302 8129978 8028777 7932155 7839367 7748420 7658133 7567156 
3543.877 7474952 7381756 7288479 7196063 7105958 7019139 6936881 6859553 
3547.734 6787423 6719779 6655377 6592632 6529896 6465757 6399711 6332364 
3551.592 6264926 6199381 6137340 6080013 6027497 5979725 5935854 5895380 
3555.449 5857999 5823073 5790232 5758333 5726437 5692999 5657516 5619618 
3559.306 5580550 5541485 5504403 5470847 5441791 5417232 5395995 5376672 
3563.164 5356846 5334036 5305692 5269235 5222921 5166149 5100233 5028763 
3567.021 4956835 4891286 4837138 4797671 4773316 4762093 4760251 4763400 
3570.879 4767520 4769128 4766080 4756968 4741827 4721963 4698918 4674903 
3574.736 4651861 4630896 4612042 4594729 4577317 4558465 4537471 4514503 
3578.594 4490365 4466830 4445071 4425924 4409555 4395799 4384017 4374578 
3582.451 4367583 4363835 4363165 4364705 4365675 4362663 4351083 4327656 
3586.308 4291180 4243799 4190903 4140054 4098476 4070948 4058340 4058105 
3590.166 4065631 4075430 4082722 4084528 4079377 4067270 4049544 4028340 
3594.023 4005700 3983596 3964001 3948286 3937319 3931468 3930632 3933540 
3597.881 3938088 3942167 3942869 3938656 3928793 3914115 3897131 3880883 
3601.738 3868313 3861560 3860991 3865939 3874363 3883992 3892183 3896429 
3605.595 3894657 3885496 3867711 3841970 3810214 3775954 3743835 3718737 
3609.453 3703364 3698118 3700290 3705771 3709948 3709714 3704334 3696213 
3613.310 3690131 3690499 3700557 3719940 3744938 3769604 3786416 3789123 
3617.168 3773414 3738956 3688928 3631155 3575126 3529794 3502036 3494219 
3621.025 3504374 3527789 3558623 3591763 3623737 3653909 3683114 3713189 
3624.883 3745038 3777291 3805000 3820309 3813055 3774650 3701961 3601686 
3628.740 3491714 3395495 3333887 3315090 3333887 3376161 3425952 3470004 
3632.597 3499597 3512491 3511622 3503739 3495823 3493251 3497426 3506645 
3636.455 3517000 3524650 3527489 3525117 3519405 3512290 3505910 3501100 
3640.312 3497593 3495155 3494153 3495155 3500132 3510987 3528558 3551975 
3644.170 3578734 3604259 3623570 3631890 3625675 3603357 3565338 3514261 
3648.027 3453672 3387548 3320632 3258301 3207060 3174149 3165471 3183327 
3651.885 3225552 3285309 3352686 3415299 3461955 3484166 3477552 3445022 
3655.742 3395562 3344138 3304539 3286244 3291151 3314021 3346308 3378899 
3659.599 3405580 3423313 3432598 3436104 3437574 3440079 3445589 3454507 
3663.457 3466664 3481126 3497326 3514729 3532767 3550572 3566240 3576896 
3667.314 3578166 3565805 3536107 3488374 3426954 3362436 3309915 3283172 
3671.172 3290283 3329213 3390086 3456344 3509685 3533802 3516365 3455141 
3675.029 3361468 3259402 3176452 3131295 3127323 3155158 3199483 3246483 
3678.886 3287312 3319263 3343904 3364941 3385844 3408152 3431262 3453906 
3682.744 3475181 3496023 3518670 3544893 3574725 3605161 3630052 3641546 
3686.601 3632625 3599381 3543223 3471975 3397432 3331283 3281503 3250589 
3690.459 3236368 3235300 3244346 3261773 3286511 3317093 3350816 3383607 
3694.316 3412126 3433867 3448395 3458114 3466898 3478721 3495288 3516299 
3698.174 3537878 3555349 3563300 3558289 3539515 3509351 3473110 3437173 
3702.031 3408118 3390586 3386746 3396530 3417603 3446825 3480625 3515430 
3705.888 3547899 3575894 3597577 3612244 3619995 3621098 3615317 3602922 
3709.746 3582743 3554581 3518771 3478220 3437774 3403810 3382472 3378030 
3713.603 3391288 3419774 3458047 3499998 3538980 3569781 3589291 3596474 
3717.461 3593234 3583211 3570382 3558723 3550137 3544793 3541452 3538546 
3721.318 3534771 3529994 3525017 3520942 3518503 3517000 3515130 3510620 
3725.176 3502704 3492048 3481894 3477485 3483731 3503806 3537377 3579770 
3729.033 3624673 3663900 3690399 3699856 3692036 3670717 3642415 3614148 
3732.890 3589893 3568946 3546396 3516499 3475715 3425952 3374925 3333387 
3736.748 3311350 3313521 3338095 3378999 3428991 3482395 3535606 3587454 
3740.605 3636467 3679772 3711285 3721477 3699221 3636501 3535239 3412427 
3744.463 3298730 3227789 3218376 3267214 3354656 3455342 3546229 3608736 
3748.320 3632391 3614349 3560360 3482062 3394894 3313354 3247484 3204022 
3752.177 3186765 3196679 3232229 3288180 3356526 3427354 3491247 3541652 
3756.035 3574992 3591797 3595138 3589959 3580104 3567843 3553311 3537210 
3759.892 3521209 3509251 3506278 3515864 3537811 3568210 3599682 3623771 
3763.750 3634596 3630019 3613614 3592632 3575828 3569513 3574424 3586318 
3767.607 3597410 3600851 3591864 3570716 3541920 3513459 3492917 3484900 
3771.465 3490412 3506745 3529527 3554280 3577531 3597810 3614783 3629751 
3775.322 3644119 3658520 3672588 3684417 3690699 3688694 3676731 3655981 
3779.179 3630587 3606931 3592264 3590360 3601385 3621732 3644921 3663900 
3783.037 3673891 3673056 3662931 3647728 3632391 3620897 3614716 3613446 
3786.894 3615084 3618091 3621499 3625308 3629885 3635465 3641914 3648930 
3790.752 3656114 3664201 3674025 3686389 3701293 3716832 3729398 3734778 
3794.609 3729966 3714393 3691501 3668411 3653742 3653508 3669146 3695946 
3798.467 3724652 3743835 3742298 3713189 3656783 3583278 3509484 3456177 
3802.324 3438041 3458414 3509251 3575460 3639808 3686088 3702897 3686054 
3806.181 3639875 3577999 3519038 3480725 3472542 3493819 3535974 3588356 
3810.039 3641279 3688861 3729899 3766027 3799284 3830170 3855509 3869115 
3813.896 3863766 3833981 3780366 3711719 3644653 3597744 3583578 3603791 
3817.754 3649031 3703665 3749316 3770707 3758106 3710416 3636968 3556451 
3821.611 3491380 3457245 3459517 3492282 3543323 3598980 3647861 3683314 
3825.469 3703565 3711752 3713824 3716999 3726189 3742465 3763186 3783240 
3829.326 3797312 3801423 3794605 3778728 3758675 3739658 3726457 3722012 
3833.183 3726423 3737552 3751255 3762485 3766027 3757070 3732606 3692337 
3837.041 3639541 3581307 3526988 3485802 3463291 3460552 3474112 3497860 
3840.898 3524783 3549369 3568378 3580839 3587955 3592298 3597075 3604994 
3844.756 3618458 3638338 3664969 3697282 3733943 3772946 3812822 3852066 
3848.613 3890277 3926485 3959253 3985402 3998644 3989950 3949790 3869315 
3852.470 3748447 3599448 3449230 3328812 3260604 3249387 3285108 3350015 
3856.328 3427087 3504708 3575761 3637336 3689730 3733876 3770606 3800086 
3860.185 3821947 3835853 3841201 3838861 3828866 3811919 3788588 3760680 
3864.043 3731236 3706272 3692537 3695277 3715295 3748280 3784377 3810950 
3867.900 3816666 3793903 3744069 3676999 3611308 3566273 3552810 3570014 
3871.758 3607165 3649632 3683582 3701493 3702930 3694910 3688160 3692337 
3875.615 3712788 3748447 3793067 3836922 3870720 3886833 3881317 3854740 
3879.472 3813055 3766295 3726457 3703866 3704334 3726791 3763788 3803997 
3883.330 3835218 3846984 3833881 3797914 3749082 3703164 3675762 3676598 
3887.187 3705771 3754797 3810214 3857983 3886733 3889441 3864970 3818905 
3891.045 3762251 3707542 3666306 3645789 3647427 3668377 3703130 3745908 
3894.902 3790928 3833413 3869683 3896997 3913747 3919230 3913747 3898869 
3898.760 3876904 3851464 3825490 3801423 3780266 3761449 3742900 3722647 
3902.617 3699421 3673858 3648830 3628849 3618926 3622133 3639241 3668244 
3906.474 3704935 3744805 3783173 3816699 3843642 3863365 3876403 3883658 
3910.332 3886633 3887168 3887235 3888906 3894021 3903583 3916789 3931434 
3914.189 3944207 3950994 3949155 3937018 3916288 3889943 3862696 3838861 
3918.047 3821078 3810649 3807005 3808978 3815596 3825724 3838494 3852467 
3921.904 3865772 3875734 3880013 3877272 3867945 3854640 3841068 3831641 
3925.761 3829401 3835385 3848656 3866708 3886934 3906726 3924212 3938522 
3929.619 3948620 3953469 3951931 3942802 3926419 3904185 3879713 3857749 
3933.476 3842438 3836956 3841837 3855208 3873127 3891548 3907160 3918160 
3937.334 3924914 3929361 3933908 3940228 3948720 3957681 3964235 3965673 
3941.191 3959621 3946246 3927689 3908130 3892116 3883892 3885429 3896061 
3945.049 3912944 3932170 3949456 3961360 3966475 3964704 3958216 3949356 
3948.906 3940830 3934376 3930665 3929495 3930030 3930899 3931735 3932136 
3952.763 3932704 3934209 3937085 3942000 3948954 3957080 3965673 3973798 
3956.621 3980587 3985569 3988980 3991488 3993862 3996905 4001152 4006703 
3960.478 4013158 4019980 4026601 4033023 4039142 4045564 4052754 4061015 
3964.336 4069711 4078541 4086301 4092288 4095800 4097171 4097071 4096402 
3968.193 4096168 4096870 4098610 4100884 4102724 4103426 4102055 4098141 
3972.051 4091753 4083224 4073758 4064560 4057102 4052554 4051885 4055229 
3975.908 4062086 4071116 4080682 4089579 4096703 4101820 4105065 4107072 
3979.765 4108176 4108577 4107707 4105065 4100014 4092656 4083558 4074327 
3983.623 4066668 4062420 4062554 4067303 4075899 4087003 4098843 4109648 
3987.480 4118211 4123897 4126807 4127409 4126607 4125202 4123696 4122358 
3991.338 4120853 4118746 4115535 4110918 4105266 4099580 4094729 4092187 
3995.195 4092421 4095800 4101586 4108510 4115267 4120619 4123930 4125135 
3999.052 4124867 4123696 4122258 4120953 
##END=
