
##TITLE=L1760A_7
##JCAMP-DX=5.01  $$ Nicolet v. 1
##DATATYPE=INFRARED SPECTRUM
##ORIGIN=UniL
##OWNER=Nicolet
##LONGDATE=2011/08/18
##TIME=15:11:23
##SPECTROMETER/DATA SYSTEM=Nicolet iS5
##DATA PROCESSING=
Ratio against background
%Transmittance->Absorbance
Truncated
ElementMultiply or ElementDivide
##COMMENTS=
Number of sample scans: 32
Collection length: 51.19 sec
Sample gain: 2.0
Background collected on: Jeu Aout 18 15:09:34 2011 (GMT+02:00);
Number of background scans: 32
Background gain: 2.0
Sample spacing:  1.000
Number of scan points: 12415
Resolution points: 8192
Number of FFT points: 65536
Apodization: N-B fort;
Phase correction: Mertz;
Laser frequency: 15798.0 cm-1
Number of rejected sample scans: 0
Number of rejected background scans: 0
Bench serial number: ASB1000141;
##RESOLUTION=4.000
##XUNITS=1/CM
##YUNITS=ABSORBANCE
##FIRSTX=649.893372
##LASTX=4000.122314
##FIRSTY=0.104055
##MAXX=4000.122314
##MINX=649.893372
##MAXY=0.223388
##MINY=-0.000455
##XFACTOR=1.000000
##YFACTOR=1.000000E-009
##NPOINTS=6950
##DELTAX=0.482117
##ZPD=6100
##XYDATA=(X++(Y..Y))
649.893 104055264 102963384 101980056 101114968 100366560 99728496 99195928 
653.268 98767208 98439848 98208240 98062120 97986920 97966944 97990040 
656.643 98049536 98143320 98272720 98438688 98638992 98870128 99127648 
660.018 99407736 99710568 100037672 100389864 100767616 101167080 101582608 
663.393 102010136 102446064 102888552 103335824 103779736 104205600 
666.285 104592600 104916104 105165168 105357144 105541024 105767280 
669.178 106064160 106422848 106808984 107179136 107495704 107736400 
672.071 107896096 107985136 108022400 108026056 108004512 107954544 
674.963 107868232 107740648 107575248 107384992 107184352 106980632 
677.856 106770216 106539536 106271952 105956824 105596120 105202064 
680.749 104791664 104376936 103960488 103536512 103097304 102639408 
683.642 102168400 101696952 101238648 100800256 100380176 99970016 99562064 
687.016 99156960 98767368 98413880 98118392 97896784 97753264 97683720 
690.391 97681768 97747496 97892840 98142816 98527640 99078488 99819248 
693.766 100760096 101898008 103217136 104691472 106284304 107950296 
696.659 109638912 111290672 112846800 114256416 115480832 116504480 
699.551 117335368 118002960 118547952 119012400 119433544 119834488 
702.444 120223216 120591688 120918408 121170824 121310992 121308024 
705.337 121143584 120822384 120373048 119844264 119293192 118767464 
708.229 118300064 117902880 117573168 117302776 117088128 116934392 
711.122 116853592 116856072 116944408 117108520 117328904 117583280 
714.015 117853240 118129544 118410720 118698736 118993312 119290224 
716.908 119583936 119872696 120166008 120485328 120857656 121310384 
719.800 121859912 122507592 123242680 124049536 124915808 125837328 
722.693 126816184 127854408 128946512 130077008 131221520 132354792 
725.586 133461280 134538048 135594496 136643280 137691312 138734816 
728.478 139760912 140756112 141717600 142658752 143610448 144611936 
731.371 145698960 146900512 148236480 149723616 151384816 153251296 
734.264 155358160 157736592 160399792 163337632 166515760 169888112 
737.156 173406784 177028608 180720720 184452896 188193344 191913616 
740.049 195597760 199259600 202943040 206708096 210578976 214484176 
742.942 218187024 221269456 223200656 223388096 221375792 216979552 
745.835 210342528 201916336 192336496 182326224 172510608 163373584 
748.727 155245040 148276208 142497776 137852304 134234736 131516680 
751.620 129568072 128284352 127588960 127450480 127882200 128927648 
754.513 130631152 132996336 135943952 139286112 142740496 145930544 
757.405 148474848 150055696 150457088 149624048 147654208 144780432 
760.298 141301584 137542848 133813384 130345088 127302008 124772696 
763.191 122774656 121274728 120200712 119465128 118971528 118633640 
766.083 118388304 118191960 118023920 117878056 117754632 117653400 
768.976 117569128 117492080 117411832 117321048 117218352 117108864 
771.869 117002192 116908624 116835816 116786904 116761800 116758376 
774.762 116772768 116799128 116827272 116836640 116792376 116647792 
777.654 116340296 115801304 114967944 113786136 112223256 110272680 
780.547 107952128 105302168 102380160 99261096 96025120 92754248 89528712 
783.922 86411192 83447184 80663816 78069832 75664352 73441560 71394208 
787.297 69514184 67791512 66213780 64765788 63432448 62201296 61062660 
790.671 60010312 59038004 58137648 57298960 56510828 55763984 55054336 
794.046 54383140 53755540 53176552 52648232 52168188 51731408 51332396 
797.421 50966980 50632892 50325916 50035924 49746316 49432544 49069428 
800.796 48639236 48136796 47572936 46970636 46360396 45769456 45215720 
804.171 44707124 44242708 43818144 43428896 43072304 42746388 42447308 
807.546 42168592 41901256 41636600 41368972 41098008 40827040 40560196 
810.920 40299816 40044380 39789240 39529500 39262876 38991668 38721280 
814.295 38458192 38206228 37965292 37732264 37503148 37276032 37052572 
817.670 36836728 36632024 36439560 36255824 36074796 35890388 35699044 
821.045 35501956 35303128 35107656 34918880 34737264 34560956 34388664 
824.420 34221640 34064572 33923824 33805220 33711068 33639028 33583684 
827.794 33537682 33494874 33451322 33403940 33349414 33282906 33198558 
831.169 33091452 32960386 32809920 32649216 32490574 32344944 32218490 
834.544 32112590 32024476 31950682 31889882 31843990 31816144 31809122 
837.919 31822242 31850978 31888276 31927180 31964198 31999364 32036248 
841.294 32078840 32130144 32191120 32261744 32342374 32436084 32547924 
844.669 32684226 32849334 33044506 33267162 33513416 33779288 34063532 
848.043 34368008 34695484 35048028 35425340 35822952 36234716 36654776 
851.418 37078628 37504268 37931444 38359264 38785616 39206660 39617768 
854.793 40015676 40399296 40769968 41129520 41478868 41815916 42135768 
858.168 42431892 42698384 42931900 43132680 43303864 43449884 43576060 
861.543 43687836 43791024 43894536 44010100 44152024 44336528 44577424 
864.917 44886168 45271136 45738680 46295812 46952696 47722252 48620892 
868.292 49666624 50876412 52267512 53856464 55657984 57684760 59941912 
871.667 62421436 65091500 67889984 70723688 73456944 75928600 77968232 
875.042 79401880 80092752 79955784 78970312 77185064 74709528 71703080 
878.417 68338904 64798056 61248308 57817716 54603264 51664524 49026768 
881.792 46695240 44661512 42910612 41423352 40178148 39152084 38319124 
885.166 37655212 37139112 36754180 36489072 36336840 36291808 36349520 
888.541 36505652 36756380 37101216 37542628 38086740 38741712 39516796 
891.916 40421840 41466948 42665084 44033420 45591960 47363776 49367644 
895.291 51610004 54074668 56712056 59437064 62115196 64579396 66646180 
898.666 68125120 68865168 68773616 67832920 66106624 63730300 60895808 
902.040 57805756 54662596 51642432 48867036 46417212 44330472 42610984 
905.415 41243760 40201736 39454308 38967744 38710376 38655248 38780836 
908.790 39075328 39536028 40167096 40975576 41965776 43133488 44461824 
912.165 45916416 47440460 48960632 50383436 51601496 52513560 53028500 
915.540 53083572 52658664 51777472 50508556 48947356 47212004 45418700 
918.914 43664420 42028480 40562128 39292400 38229676 37368972 36695836 
922.289 36186208 35811616 35541800 35346724 35203296 35095120 35012004 
925.664 34948472 34900464 34862944 34829592 34793436 34748856 34693440 
929.039 34627408 34553884 34475752 34396628 34319272 34246736 34183712 
932.414 34136216 34110660 34112668 34144676 34205832 34292376 34399888 
935.789 34524900 34665696 34822516 34995156 35182528 35381376 35587432 
939.163 35796828 36008232 36223300 36446156 36681020 36930404 37193652 
942.538 37467460 37747008 38028144 38309208 38590712 38874860 39164124 
945.913 39460476 39764948 40078972 40404456 40744712 41103040 41481932 
949.288 41880460 42294432 42716152 43136780 43547596 43942340 44317996 
952.663 44674256 45013608 45340092 45659536 45979800 46309744 46660484 
956.037 47042708 47465668 47936244 48457680 49030368 49653808 50327368 
959.412 51052204 51830816 52666820 53564184 54526320 55556524 56657880 
962.787 57834180 59089860 60429716 61858220 63379192 64995004 66707372 
966.162 68516632 70421432 72417536 74496800 76643336 78833584 81036056 
969.537 83209336 85308496 87286864 89098232 90705144 92078464 93199936 
972.912 94062800 94670512 95036272 95180464 95132864 94930216 94612128 
976.286 94223632 93809576 93411520 93072168 92831744 92727336 92796048 
979.661 93068344 93566808 94304856 95285760 96505632 97957936 99638536 
983.036 101547192 103685744 106051680 108624832 111353608 114151776 
985.929 116884344 119375968 121442144 122890856 123563952 123365816 
988.821 122268760 120326056 117658696 114452336 110922856 107288528 
991.714 103765464 100526904 97701272 95375144 93587528 92343512 91622416 
995.089 91389416 91601712 92214672 93190048 94493944 96098408 97982768 
998.464 100127832 102514024 105117600 107903064 110817896 113792728 
1001.356 116730024 119514560 122022944 124125904 125715520 126717392 
1004.249 127100512 126887368 126151952 125019368 123638776 122177000 
1007.142 120801024 119649008 118833632 118435432 118499896 119050056 
1010.035 120090600 121616904 123618080 126082168 128998992 132358224 
1012.927 136151760 140372832 145011520 150051296 155461232 161179200 
1015.820 167105152 173089040 178915856 184335120 189069360 192844352 
1018.713 195453680 196778960 196827792 195732752 193752000 191235936 
1021.605 188551344 186075088 184123168 182908960 182554240 183075312 
1024.498 184405984 186413984 188932864 191786480 194785712 197755856 
1027.391 200535136 202968736 204932320 206332256 207116656 207284528 
1030.284 206882400 205998896 204741728 203233264 201594208 199925152 
1033.177 198308368 196793296 195389968 194065984 192747440 191335360 
1036.070 189710192 187761328 185407552 182601472 179340032 175657104 
1038.963 171616320 167295504 162780560 158162208 153522608 148937840 
1041.856 144475552 140186880 136115440 132300376 128777328 125588608 
1044.750 122781864 120402296 118494200 117090472 116207696 115847680 
1047.643 115997736 116634920 117727872 119241784 121139816 123380656 
1050.536 125922872 128724024 131740240 134932848 138266112 141705792 
1053.429 145218384 148761104 152273680 155680592 158880784 161754944 
1056.322 164184448 166050064 167252688 167728928 167452800 166449632 
1059.215 164793504 162615056 160085632 157397104 154761120 152370336 
1062.108 150387424 148946848 148136880 148007632 148572896 149811472 
1065.001 151668688 154054096 156855344 159931616 163124224 166281424 
1067.894 169252704 171906592 174142112 175878208 177057248 177643440 
1070.787 177616640 176974912 175733328 173924464 171593552 168795744 
1073.680 165599904 162084944 158345088 154499344 150677440 147021952 
1076.573 143681616 140785424 138446688 136752720 135754320 135467120 
1079.466 135862864 136869904 138360672 140156992 142053568 143813104 
1082.359 145211120 146073616 146287568 145833376 144780320 143280640 
1085.252 141534832 139764336 138198432 137028368 136403264 136420496 
1088.146 137111824 138449424 140344896 142670176 145256912 147913712 
1091.039 150458304 152710704 154516112 155759520 156356848 156266912 
1093.932 155488208 154058048 152045152 149535728 146629200 143418592 
1096.825 139983488 136394368 132707448 128972408 125238552 121550360 
1099.718 117950608 114478384 111163968 108033448 105109792 102413048 
1102.611 99964928 97787624 95901304 94325888 93078568 92173128 91622416 
1105.986 91436576 91622984 92185832 93124016 94431096 96093040 98089112 
1109.361 100392040 102964104 105760304 108723856 111780368 114845256 
1112.254 117815472 120573368 123005016 124999088 126463456 127339360 
1115.147 127600744 127258208 126352456 124952696 123145824 121023432 
1118.041 118682928 116210288 113672480 111120224 108583008 106075416 
1120.934 103605776 101181168 98813712 96522888 94333624 92276136 90384288 
1124.309 88690856 87228936 86030280 85120496 84520360 84243232 84293800 
1127.684 84668840 85357536 86343200 87600808 89097656 90793912 92635696 
1131.059 94559192 96491944 98350376 100054648 101536048 102744000 103660120 
1134.435 104300080 104715416 104979768 105184664 105423664 105770872 
1137.328 106277024 106955576 107781760 108692880 109596952 110392248 
1140.221 110968624 111229152 111101824 110535992 109509752 108024232 
1143.114 106100592 103776200 101100832 98139032 94960112 91637928 88248016 
1146.489 84856968 81525680 78307968 75245816 72373536 69715736 67285352 
1149.864 65086148 63113348 61357820 59807772 58451712 57280132 56283892 
1153.240 55454304 54782752 54260396 53879572 53634808 53522544 53541692 
1156.615 53692544 53976244 54393960 54947872 55641072 56477356 57460576 
1159.990 58593168 59873868 61295772 62844716 64500012 66231764 68001640 
1163.365 69766664 71473960 73066440 74487512 75677800 76585704 77170416 
1166.740 77403472 77274440 76790048 75973440 74858272 73485712 71901968 
1170.116 70150512 68275232 66319152 64319620 62311888 60326452 58386592 
1173.491 56512868 54721936 53028200 51445624 49986292 48658876 47468176 
1176.866 46414996 45496144 44707236 44043796 43502472 43080024 42772276 
1180.241 42573448 42474016 42462912 42527184 42653272 42828476 43039964 
1183.617 43275236 43522616 43771236 44012296 44240836 44455252 44657548 
1186.992 44850712 45037936 45220756 45398284 45568116 45727524 45874468 
1190.367 46008388 46130408 46242364 46347528 46450468 46558304 46681848 
1193.742 46835756 47038092 47309388 47668516 48131876 48710804 49409892 
1197.118 50225364 51143596 52141436 53181308 54213656 55182200 56021444 
1200.493 56669020 57073648 57197836 57027700 56573328 55869108 54965736 
1203.868 53925860 52819576 51710804 50658876 49713028 48906600 48259972 
1207.243 47779760 47461636 47293572 47259180 47340904 47519668 47775544 
1210.619 48088936 48438524 48804188 49169192 49520876 49852928 50165148 
1213.994 50462700 50753388 51046280 51350372 51673224 52020592 52396048 
1217.369 52800304 53230036 53678000 54133856 54584668 55017404 55421816 
1220.744 55790620 56120412 56411132 56664488 56883508 57071532 57233520 
1224.120 57375900 57506760 57635684 57771044 57919060 58082308 58260168 
1227.495 58450576 58652404 58867756 59103984 59372972 59689300 60068824 
1230.870 60526528 61073528 61717760 62462332 63305280 64239012 65250224 
1234.245 66321620 67430416 68552016 69661624 70732736 71740288 72659064 
1237.621 73460752 74116248 74593336 74857760 74878816 74630272 74094784 
1240.996 73266792 72151888 70767248 69138400 67301024 65299480 63182324 
1244.371 61005460 58825756 56693556 54655196 52746988 50994856 49418728 
1247.746 48031012 46837752 45839008 45028048 44392124 43913524 43573200 
1251.122 43352480 43233948 43203608 43249068 43358704 43522544 43731624 
1254.497 43979520 44262848 44581832 44938088 45332844 45764008 46223496 
1257.872 46696604 47159552 47581996 47929624 48163712 48248496 48154640 
1261.247 47862436 47367028 46679336 45827444 44850896 43797804 42719624 
1264.623 41659976 40655552 39732704 38906676 38185820 37572580 37065312 
1267.998 36658380 36343576 36111200 35950996 35854832 35817660 35837236 
1271.373 35913132 36044876 36230612 36466732 36749348 37075488 37444016 
1274.748 37856788 38316776 38827428 39391468 40010484 40685064 41416096 
1278.124 42204192 43048816 43946520 44889216 45864120 46852220 47831064 
1281.499 48778460 49671712 50491136 51220312 51844184 52350184 52727088 
1284.874 52965084 53058336 53004244 52805620 52470000 52008752 51437008 
1288.249 50771300 50031352 49240812 48424928 47613792 46838452 46125584 
1291.625 45497096 44963844 44524924 44166624 43864144 43586608 43296504 
1295.000 42959408 42547868 42045124 41450180 40778300 40059420 39330380 
1298.375 38630656 37995740 37449800 37007036 36671752 36441688 36310468 
1301.750 36269620 36309208 36415960 36573808 36765068 36970236 37171276 
1305.125 37353444 37503512 37611092 37667104 37662912 37592160 37452432 
1308.501 37247004 36986508 36687728 36372328 36061472 35775888 35533456 
1311.876 35348596 35234092 35201356 35258816 35412364 35663320 36009060 
1315.251 36443776 36961072 37556504 38228080 38976696 39804600 40713524 
1318.626 41703704 42772748 43915872 45126160 46393616 47702460 49030588 
1322.002 50345148 51602060 52752300 53742900 54526996 55075252 55379728 
1325.377 55459876 55356432 55129760 54847444 54570800 54353624 54231560 
1328.752 54220188 54317536 54507428 54765872 55066036 55386844 55715916 
1332.127 56051452 56402268 56783952 57216432 57717532 58301624 58976748 
1335.503 59742676 60590904 61503508 62455640 63413432 64336180 65182000 
1338.878 65907016 66473888 66857576 67046492 67044712 66867508 66538380 
1342.253 66082636 65526440 64897544 64223224 63530772 62846056 62188180 
1345.628 61569100 60993752 60462468 59976488 59542316 59173352 58891660 
1349.004 58724772 58700532 58848292 59194996 59763704 60575896 61648596 
1352.379 62992164 64608508 66488056 68607928 70926744 73388160 75918616 
1355.754 78426000 80812704 82974312 84805400 86216048 87128784 87490112 
1359.129 87277584 86500672 85202736 83450440 81338840 78981280 76498760 
1362.505 74024368 71680680 69561776 67724592 66177280 64886652 63788548 
1365.880 62807836 61872892 60924744 59930044 58882100 57799696 56718400 
1369.255 55683408 54740616 53925300 53263668 52768916 52442220 52276252 
1372.630 52257792 52373020 52608620 52954008 53399664 53934976 54545896 
1376.006 55215724 55925368 56656940 57395412 58128744 58849128 59551056 
1379.381 60228964 60876632 61486216 62049024 62558180 63010512 63408636 
1382.756 63760804 64079076 64376412 64663336 64948104 65238020 65542200 
1386.131 65875204 66256388 66705832 67240512 67866040 68575448 69350312 
1389.507 70165272 70991776 71798600 72557040 73237208 73806864 74234600 
1392.882 74488416 74542784 74387464 74035296 73523264 72898440 72206160 
1396.257 71472872 70702632 69886400 69016112 68098952 67167880 66275576 
1399.632 65478624 64822792 64326116 63981168 63762800 63640288 63584320 
1403.008 63569628 63577184 63590960 63597748 63588536 63558124 63506076 
1406.383 63435980 63352428 63259588 63160056 63056484 62954248 62863596 
1409.758 62801444 62788084 62841652 62974504 63187532 63471636 63810544 
1413.133 64186884 64586820 65001824 65429120 65870224 66328064 66806912 
1416.509 67313512 67859840 68464024 69151728 69949104 70870880 71915064 
1419.884 73059856 74271976 75519984 76780248 78039216 79285856 80510040 
1423.259 81698976 82836400 83908552 84907640 85832688 86685184 87463040 
1426.634 88152856 88731416 89165960 89423584 89482896 89338752 89005168 
1430.010 88507440 87877168 87146640 86346632 85511256 84674832 83864976 
1433.385 83098752 82373488 81667024 80943624 80170976 79340384 78483752 
1436.760 77668744 76971472 76440360 76077136 75845144 75689280 75559568 
1440.135 75419064 75250504 75054120 74841656 74627480 74421360 74227952 
1443.510 74047400 73879648 73725816 73587864 73465888 73356224 73253728 
1446.886 73155840 73069576 73015048 73023160 73130000 73363680 73741248 
1450.261 74266792 74934648 75730456 76631280 77607768 78619064 79613056 
1453.636 80531296 81296768 81814408 81978056 81678744 80853888 79538552 
1457.011 77894296 76149968 74499432 73039976 71775152 70665984 69672824 
1460.387 68774200 67964752 67244728 66606128 66032364 65500356 64993776 
1463.762 64514196 64089292 63763568 63585816 63587548 63773200 64125776 
1467.137 64614540 65205716 65861276 66542664 67209728 67815064 68311568 
1470.512 68655928 68814736 68778472 68569592 68245376 67875608 67522024 
1473.888 67220672 66980840 66798172 66667660 66589704 66568776 66607320 
1477.263 66700228 66832572 66984088 67134928 67268640 67375344 67450960 
1480.638 67494312 67506072 67488504 67445424 67381768 67302568 67209496 
1484.013 67097916 66955016 66761160 66495092 66139692 65686600 65136956 
1487.389 64496480 63767864 62944940 62014244 60965424 59806744 58573412 
1490.764 57323536 56116900 54996684 53973020 53024492 52109608 51180200 
1494.139 50195048 49128528 47975540 46748964 45473148 44171944 42861864 
1497.514 41551380 40249572 38970316 37734576 36564760 35480456 34492644 
1500.890 33603372 32810740 32112342 31506222 30990326 30556194 30185254 
1504.265 29844016 29489286 29079610 28593624 28053890 27526968 27092084 
1507.640 26795170 26632096 26564214 26548998 26556042 26572210 26598348 
1511.015 26641044 26705204 26790342 26891004 27001140 27118254 27244360 
1514.391 27384510 27541758 27715628 27901366 28094432 28295894 28514606 
1517.766 28763880 29055024 29390466 29761188 30148104 30531914 30900804 
1521.141 31260498 31630862 32035962 32487250 32976578 33481382 33976888 
1524.516 34447560 34891556 35322784 35765024 36242284 36767488 37340264 
1527.892 37951588 38592376 39260516 39960672 40701620 41490680 42328692 
1531.267 43212572 44137204 45100680 46108376 47171704 48302004 49498632 
1534.642 50750892 52039116 53346684 54660152 55974592 57295632 58631204 
1538.017 59992620 61388848 62820092 64270324 65707528 67099856 68423920 
1541.393 69674656 70866160 72016240 73137216 74228384 75275800 76254624 
1544.768 77138952 77914120 78577920 79135624 79588456 79919904 80091712 
1548.143 80054984 79761488 79191768 78368208 77352152 76211888 74987376 
1551.518 73673408 72223888 70581384 68714696 66649964 64477792 62330896 
1554.894 60320588 58501904 56852608 55285752 53669708 51858820 49744272 
1558.269 47312712 44710432 42211276 40074576 38412256 37185892 36282120 
1561.644 35584376 35001948 34469476 33945968 33411920 32871030 32345656 
1565.019 31868308 31468530 31157962 30926456 30745606 30581188 30400836 
1568.395 30185078 29933854 29664398 29404576 29178714 29001568 28875094 
1571.770 28793724 28747984 28725928 28713610 28691980 28639100 28535200 
1575.145 28372324 28164496 27949492 27777330 27685644 27686102 27767334 
1578.520 27906102 28080292 28274992 28484712 28710316 28954814 29219682 
1581.896 29503188 29801962 30113016 30436198 30774272 31130696 31508182 
1585.271 31906926 32325704 32764290 33225600 33715832 34243796 34817492 
1588.646 35441340 36116276 36840664 37612760 38432560 39301284 40218892 
1592.021 41180516 42176844 43192404 44210128 45214836 46193496 47134992 
1595.396 48028792 48861436 49617704 50282688 50843484 51292048 51625416 
1598.772 51843212 51945708 51932376 51801920 51553812 51191604 50725568 
1602.147 50172656 49557644 48910272 48258640 47628360 47039092 46503352 
1605.522 46031116 45631492 45313168 45085056 44952088 44913100 44959912 
1608.897 45081128 45266540 45510488 45813488 46178828 46607732 47096440 
1612.273 47634128 48205400 48795404 49391180 49981868 50559176 51114816 
1615.648 51642992 52143680 52629940 53127420 53663412 54260020 54923128 
1619.023 55642804 56397100 57160228 57910656 58632568 59322904 59989764 
1622.398 60649232 61317100 62003008 62708720 63429996 64162992 64907932 
1625.774 65668024 66447132 67245976 68062408 68893784 69742936 70620328 
1629.149 71546464 72544352 73629824 74807448 76068016 77395040 78768944 
1632.524 80179744 81632672 83146984 84753208 86480696 88345056 90332728 
1635.899 92407288 94531472 96680744 98854688 101065912 103324392 105626328 
1639.275 107951280 110272888 112559112 114786336 116945536 119033624 
1642.168 121045888 122969616 124774296 126421824 127877000 129115584 
1645.061 130136016 130958128 131619680 132157656 132605328 132994904 
1647.954 133358392 133733120 134155344 134646736 135206624 135799936 
1650.847 136361296 136785184 136953008 136787904 136333232 135774704 
1653.740 135324560 135093536 135042448 135058096 135022192 134856992 
1656.633 134529120 134037856 133401808 132641744 131768824 130778048 
1659.526 129653272 128376248 126934048 125322728 123547480 121621120 
1662.419 119566440 117420472 115235112 113068688 110970000 108959872 
1665.312 107023488 105107384 103129912 100992992 98606096 95908616 92889800 
1668.688 89598704 86134224 82622536 79182944 75907288 72848712 70020968 
1672.063 67404408 64950256 62588000 60241828 57858408 55440640 53070656 
1675.438 50894332 49056184 47642448 46650452 46015680 45652360 45492796 
1678.813 45504460 45684748 46046588 46598732 47332480 48229208 49277336 
1682.188 50493632 51937980 53705556 55886176 58489736 61419796 64518160 
1685.564 67652568 70777152 73920976 77142600 80487232 83957392 87511184 
1688.939 91053480 94469600 97659944 100553512 103127048 105395792 107395816 
1692.314 109166112 110734768 112110608 113283336 114228144 114921104 
1695.207 115359072 115580608 115655800 115641536 115546928 115309160 
1698.100 114806576 113870752 112340704 110150376 107422248 104475416 
1700.993 101666216 99208552 97095728 95184432 93288360 91254200 88986504 
1704.369 86457248 83703400 80809992 77883312 75009864 72240832 69589240 
1707.744 67042156 64570056 62133696 59692492 57210988 54671464 52078712 
1711.119 49462652 46866688 44328744 41875460 39511896 37227728 35011644 
1714.494 32863990 30802052 28855368 27049486 25392732 23868278 22452146 
1717.870 21131884 19920236 18852532 17962632 17260554 16723657 16304443 
1721.245 15945027 15598511 15240913 14878981 14541469 14263554 14064732 
1724.620 13938085 13853891 13776143 13679738 13557306 13417923 13274827 
1727.995 13132392 12979866 12795177 12557086 12259749 11916127 11551577 
1731.371 11185735 10818841 10423103 9953846 9370882 8676291 7930468 7230089 
1735.228 6653594 6223043 5909386 5656978 5413709 5143316 4836569 4507807 
1739.085 4187055 3900942 3659756 3454273 3266380 3083272 2905012 2742964 
1742.943 2610708 2513718 2443672 2382265 2310674 2221144 2119879 2024529 
1746.800 1951999 1910163 1891161 1875687 1841645 1778394 1690936 1598308 
1750.658 1522258 1473947 1450177 1436547 1418363 1390041 1357001 1330977 
1754.515 1321571 1329814 1345967 1353977 1341912 1308876 1268764 1241582 
1758.373 1244141 1279664 1337491 1396822 1438541 1453402 1447717 1438874 
1762.230 1445689 1477472 1529041 1586170 1634392 1667353 1688907 1709098 
1766.087 1737707 1777296 1820916 1855787 1870795 1864106 1843908 1824476 
1769.945 1815925 1817122 1814793 1788542 1723303 1619792 1496988 1381232 
1773.802 1293289 1236997 1200712 1165229 1115696 1047137 966833 888137 
1777.660 822900 773008 729959 678286 605084 508242 398752 295059 212606 
1781.999 156487 118636 84334 38834 -22795 -94786 -163220 -215682 -248169 
1786.339 -267176 -284958 -311249 -347867 -387230 -416560 -425166 -411296 
1790.196 -384019 -360117 -354389 -372598 -406165 -438804 -454526 -447708 
1794.054 -425166 -400372 -384350 -380675 -383622 -383158 -371042 -346311 
1797.911 -316116 -292739 -286150 -297806 -319923 -338464 -341709 -327141 
1801.769 -302044 -278137 -266084 -268236 -277971 -284660 -279594 -261514 
1805.626 -237506 -218728 -213728 -223895 -242738 -259030 -263501 -254858 
1809.483 -239592 -229558 -233730 -253467 -281614 -306679 -319890 -319824 
1813.341 -312904 -309129 -315752 -332207 -349986 -356707 -343695 -310255 
1817.198 -265057 -221411 -190114 -173455 -164711 -152091 -125891 -84417 
1821.056 -34689 12359 46555 64583 70316 71476 74856 81285 85593 80556 63323 
1826.360 38205 15275 4937 11895 31180 50664 55005 35024 -5997 -54468 -93692 
1831.664 -113038 -112906 -103233 -97105 -103829 -124433 -150634 -170507 
1835.521 -175972 -166665 -151197 -141094 -144937 -162326 -185047 -199951 
1839.378 -197632 -176866 -144738 -112376 -88723 -76831 -72623 -69112 -60664 
1843.718 -48406 -40222 -45026 -65865 -97204 -126884 -142751 -139306 -119199 
1848.058 -91837 -68317 -55297 -51056 -47644 -35717 -11066 22366 54177 73928 
1852.879 76148 64914 51062 47715 61136 88907 119928 141604 146709 137130 
1857.701 122149 113764 119199 136235 155459 165403 159801 141604 121420 
1862.041 111344 118404 140511 167359 186584 190496 180286 165436 158078 
1866.380 165370 186153 211148 227955 228386 214065 194706 182673 184198 
1870.720 195833 206739 205612 186717 153437 116746 89471 79562 86289 100871 
1875.542 111543 111609 101700 89636 85129 93978 113697 135903 150056 150819 
1880.364 141173 131230 131064 147073 176540 209954 236309 249239 250267 
1884.703 248178 253284 270292 296916 323342 339325 338828 324337 305172 
1889.043 293169 296418 313461 337037 357796 370596 377129 383961 397326 
1893.382 418850 444223 463660 468768 458220 438485 422399 421072 438949 
1897.722 471156 506948 535046 549411 552961 554188 561487 578275 599742 
1902.062 616399 620347 609796 591182 576616 577412 596656 628775 661594 
1906.401 683264 688673 682069 673208 672876 685056 705433 722890 727569 
1910.741 715389 691826 667799 653264 652269 660864 669292 668761 657678 
1915.080 641086 629704 632060 648785 671350 686051 680907 653928 614507 
1919.420 578541 560326 565037 587267 613744 632492 637071 630965 624362 
1923.760 628211 646196 674337 703043 723786 735635 745492 764013 800261 
1928.099 854339 917190 974238 1013293 1030530 1032689 1032755 1041125 
1931.957 1061320 1086896 1106362 1110613 1100017 1084072 1078525 1095831 
1935.814 1137621 1194233 1249025 1287906 1305752 1309806 1313628 1330811 
1939.671 1365743 1411382 1453435 1479799 1485218 1476773 1467564 1469559 
1943.529 1485717 1508858 1526314 1528575 1517071 1504569 1508093 1541277 
1947.386 1604261 1684317 1761360 1817488 1845771 1854423 1861178 1882642 
1951.244 1926771 1988279 2052459 2104663 2137027 2151778 2159303 2169926 
1955.101 2186643 2204726 2215050 2211386 2197000 2185111 2191072 2225707 
1958.958 2286258 2356479 2413884 2442605 2440473 2421214 2406087 2412651 
1962.816 2446737 2499354 2554011 2594842 2618975 2633910 2654145 2691184 
1966.673 2744098 2800386 2843741 2862385 2858516 2847043 2848477 2876060 
1970.531 2929463 2992749 3044031 3067489 3061482 3038659 3021575 3029450 
1974.388 3068990 3135066 3216406 3304573 3401707 3518102 3661026 3827630 
1978.246 3996872 4137679 4219809 4227806 4167786 4064861 3951931 3852367 
1982.103 3777425 3721745 3672153 3618926 3563300 3515864 3490345 3493986 
1985.960 3519472 3547866 3558756 3538145 3487840 3423815 3367679 3336225 
1989.818 3332886 3346075 3357261 3351918 3326041 3287646 3251657 3228924 
1993.675 3220345 3217741 3208228 3183895 3147481 3111104 3088778 3089413 
1997.533 3109803 3136501 3154123 3152588 3133664 3111037 3101860 3116210 
2001.390 3152554 3197280 3233764 3250556 3249621 3244947 3256331 3298830 
2005.248 3373122 3466196 3558790 3633928 3684785 3716999 3740560 3764824 
2009.105 3789825 3808209 3811719 3799384 3779764 3769537 3784544 3830337 
2012.962 3897331 3966610 4015599 4031618 4016803 3986572 3961193 3954171 
2016.820 3966777 3987007 4000517 3997306 3978447 3956344 3945410 3952900 
2020.677 3975604 4001085 4015298 4013726 4002825 3997373 4013325 4056300 
2024.535 4117408 4178056 4217902 4226467 4208401 4181468 4162902 4164909 
2028.392 4184680 4207899 4217133 4204787 4175213 4145607 4135538 4155676 
2032.250 4202612 4262336 4315007 4348004 4360120 4360220 4360990 4369491 
2036.107 4383180 4391548 4385054 4360320 4323239 4287299 4263708 4255912 
2039.964 4256346 4250223 4223691 4173540 4108510 4045697 4002590 3988211 
2043.822 3997441 4017873 4033524 4036902 4031250 4029578 4045497 4086903 
2047.679 4149153 4217467 4271873 4296133 4282246 4231720 4151896 4050112 
2051.537 3933908 3809412 3684050 3569046 3477385 3419206 3397833 3405681 
2055.394 3426486 3440680 3435036 3406382 3363104 3319797 3289315 3276829 
2059.251 3277730 3280668 3275226 3258100 3235133 3217908 3217708 3238171 
2063.109 3273390 3311684 3339697 3349547 3343571 3330014 3318495 3314489 
2066.966 3316659 3317694 3311284 3294256 3269918 3247050 3233564 3232095 
2070.824 3239306 3246783 3246583 3235433 3217908 3201285 3194910 3203154 
2074.681 3224217 3251424 3278231 3300600 3319430 3338696 3361101 3385744 
2078.539 3408285 3421577 3421243 3408586 3389785 3374424 3369682 3377329 
2082.396 3391922 3405614 3410757 3404078 3389685 3374057 3363472 3360032 
2086.253 3359665 3354790 3339430 3311484 3274158 3234632 3199917 3171679 
2090.111 3148516 3124753 3095820 3062450 3030251 3007596 3002758 3018606 
2093.968 3051939 3095086 3140172 3181625 3219344 3256197 3294657 3334789 
2097.826 3372921 3403677 3422812 3430126 3428958 3425351 3423113 3422479 
2101.683 3419306 3409354 3389451 3361802 3332752 3309814 3298262 3297962 
2105.541 3303404 3306743 3303037 3291786 3277730 3268316 3268850 3279667 
2109.398 3296360 3311484 3318963 3317694 3310950 3303805 3299698 3297428 
2113.255 3290884 3273257 3239573 3190337 3132596 3076698 3030751 2998888 
2117.113 2979170 2965492 2952248 2937103 2920490 2906947 2899509 2898041 
2120.970 2899242 2898641 2893338 2884565 2877494 2877661 2888168 2907114 
2124.828 2926528 2937169 2932299 2910183 2875960 2837771 2802554 2772875 
2128.685 2746465 2717256 2680349 2635710 2588209 2546179 2517650 2506653 
2132.542 2512485 2531848 2561377 2600308 2650911 2715056 2790015 2869089 
2136.400 2939971 2990447 3014869 3014869 2999655 2982273 2972898 2974533 
2140.257 2983174 2991214 2992649 2987411 2981672 2982973 2997853 3026313 
2144.115 3062550 3099157 3131195 3160064 3192974 3237703 3297962 3367913 
2147.972 3436238 3488274 3513526 3511288 3488975 3459483 3433934 3415966 
2151.830 3402174 3384843 3356693 3315323 3265545 3214570 3169810 3136668 
2155.687 3120048 3127223 3173982 3281903 3470405 3746710 4094361 4470914 
2159.544 4823569 5099127 5265981 5322027 5290398 5205617 5103117 5006640 
2163.402 4923523 4851479 4784873 4719920 4659530 4608526 4568945 4538007 
2167.259 4508042 4470445 4420534 4360889 4298141 4240286 4191907 4149253 
2171.117 4104730 4051918 3988813 3923577 3870519 3843441 3849692 3886265 
2174.974 3939592 3991120 4027538 4041985 4037805 4023525 4007707 3994698 
2178.832 3984667 3975136 3965606 3959587 3962496 3977744 4004597 4034093 
2182.689 4053423 4052286 4026535 3981188 3928993 3884627 3856880 3847218 
2186.546 3849993 3856579 3861760 3866206 3874431 3892952 3924312 3964269 
2190.404 4004597 4035698 4052018 4054995 4051350 4048775 4052888 4064059 
2194.261 4077905 4087973 4092054 4091418 4091552 4098074 4113126 4132995 
2198.119 4151394 4160895 4158352 4146510 4131658 4120351 4115936 4116471 
2201.976 4114865 4105533 4085431 4056935 4027137 4003794 3991187 3990050 
2205.833 3996404 4006168 4018074 4033859 4056801 4089478 4129182 4168555 
2209.691 4198163 4210742 4203616 4182439 4157415 4137879 4129751 4132159 
2213.548 4138816 4141960 4136776 4122392 4102088 4080782 4059510 4036768 
2217.406 4008476 3970856 3924011 3873361 3826627 3791563 3771776 3764891 
2221.263 3764056 3762351 3754797 3741095 3724986 3710850 3700758 3694409 
2225.121 3687993 3677734 3663432 3647494 3634095 3628047 3629985 3636701 
2228.978 3643150 3643250 3634563 3618725 3600082 3582910 3570215 3561897 
2232.835 3555549 3549670 3545160 3543857 3549904 3564970 3587621 3613179 
2236.693 3636066 3652105 3661695 3668578 3678335 3695679 3721477 3752625 
2240.550 3783608 3810214 3830571 3846884 3863331 3882487 3904653 3926753 
2244.408 3943672 3951730 3951228 3945477 3940027 3939993 3946681 3957916 
2248.265 3969719 3978246 3982058 3983229 3985435 3990853 4000316 4010817 
2252.123 4018207 4020247 4017204 4012622 4011720 4018107 4031049 4046166 
2255.980 4056266 4054594 4038039 4007306 3966208 3919698 3871823 3824053 
2259.837 3776556 3730233 3686790 3649331 3622267 3606865 3602655 3606029 
2263.695 3611943 3616654 3619093 3620496 3623203 3628883 3636200 3641680 
2267.552 3641446 3632491 3614850 3591964 3567943 3546329 3528424 3512724 
2271.410 3496758 3479456 3461687 3446591 3438275 3439210 3448796 3463691 
2275.267 3479055 3490479 3496691 3499029 3499931 3502269 3507146 3513292 
2279.125 3519272 3524282 3528758 3535473 3547766 3566641 3592164 3621231 
2282.982 3649799 3674960 3695244 3711151 3724552 3736817 3747311 3754697 
2286.839 3756669 3752358 3742432 3729398 3715930 3703732 3692738 3680975 
2290.697 3666038 3646859 3623904 3600183 3579269 3563801 3554614 3550639 
2294.554 3549570 3548801 3547532 3546062 3545227 3545895 3547432 3548066 
2298.412 3546229 3540584 3531030 3519338 3507514 3496825 3487573 3479222 
2302.269 3470505 3461621 3453338 3447593 3445890 3448528 3454006 3459416 
2306.126 3461854 3459550 3452870 3443786 3434435 3426653 3420274 3413829 
2309.984 3405480 3394193 3380301 3365876 3352719 3341801 3332252 3321834 
2313.841 3308145 3289816 3267748 3244480 3223216 3206626 3195177 3187467 
2317.699 3181792 3176619 3172246 3170844 3175250 3187199 3206926 3231361 
2321.556 3255096 3272155 3275827 3261105 3224618 3164870 3082605 2981139 
2325.414 2866688 2746765 2630743 2527615 2443138 2379800 2335392 2305012 
2329.271 2282761 2264042 2247156 2233167 2224874 2224175 2231935 2246756 
2333.128 2266407 2288690 2312806 2338656 2366574 2396292 2426145 2453468 
2336.986 2476227 2493156 2504553 2512385 2518417 2523749 2528415 2531248 
2340.843 2531348 2529148 2526415 2525549 2528548 2535914 2546312 2557978 
2344.701 2570310 2584742 2605209 2636743 2682349 2742597 2814093 2890536 
2348.558 2965225 3031185 3083706 3120081 3139772 3143610 3133331 3111538 
2352.416 3080770 3044131 3005627 2967994 2933900 2904145 2877228 2851212 
2356.273 2824031 2794850 2764405 2735061 2708554 2685549 2664846 2643610 
2360.130 2619075 2590542 2559244 2528149 2501087 2480393 2466664 2458833 
2363.988 2454934 2453368 2454568 2459366 2468763 2483559 2502120 2522183 
2367.845 2542013 2560811 2579509 2600275 2626042 2657978 2696518 2740363 
2371.703 2787380 2836204 2885800 2935635 2985442 3034722 3082505 3128425 
2375.560 3172613 3215939 3260471 3307911 3359031 3413194 3468735 3523280 
2379.417 3575293 3624673 3672287 3719739 3768334 3817702 3866507 3912410 
2383.275 3953368 3988278 4017873 4043557 4067336 4090849 4114565 4138448 
2387.132 4162099 4185349 4208601 4232490 4257350 4282748 4307812 4331103 
2390.990 4351585 4369089 4383983 4396702 4407647 4416116 4420635 4420066 
2394.847 4414141 4403698 4391079 4379163 4370127 4364772 4362697 4362596 
2398.705 4362931 4363567 4364303 4366412 4370361 4375783 4381574 4386761 
2402.562 4390677 4394125 4399045 4407380 4420467 4438108 4458561 4479150 
2406.419 4498165 4514537 4528833 4542561 4556556 4570854 4584616 4596102 
2410.277 4604173 4609396 4613516 4619242 4628853 4643455 4662276 4684080 
2414.134 4706588 4728763 4750268 4771674 4792981 4813954 4833620 4850306 
2417.992 4863675 4874398 4883948 4894771 4908577 4925500 4944502 4963337 
2421.849 4979994 4993535 5004462 5014182 5024372 5036372 5050048 5065100 
2425.707 5080722 5096881 5113778 5132050 5151765 5172353 5192941 5212055 
2429.564 5229125 5244886 5260112 5276378 5294423 5313776 5332594 5348929 
2433.421 5361308 5368956 5373082 5375229 5377142 5379959 5384085 5389118 
2437.279 5395358 5402906 5412367 5424579 5439610 5456588 5474505 5492524 
2441.136 5510108 5527927 5547190 5568534 5592028 5616564 5640094 5660973 
2444.994 5678731 5693435 5707032 5720998 5736073 5751887 5767634 5781871 
2448.851 5794631 5806686 5819447 5834088 5850812 5868008 5883591 5895850 
2452.708 5904247 5909856 5915466 5923325 5934578 5948585 5963063 5974921 
2456.566 5982345 5985066 5984495 5982714 5981606 5981774 5982816 5983689 
2460.423 5983487 5982547 5982412 5984092 5988896 5996455 6005559 6015066 
2464.281 6024238 6033141 6043725 6057164 6073763 6092748 6111935 6128502 
2468.138 6140969 6149404 6154815 6159823 6166275 6174678 6184693 6195347 
2471.996 6205262 6214741 6224152 6234303 6246101 6259144 6272523 6285196 
2475.853 6297164 6309401 6323656 6342080 6365549 6393490 6423855 6453986 
2479.710 6481194 6504536 6524347 6541737 6558522 6575745 6594179 6614129 
2483.568 6635796 6659212 6684986 6712680 6741720 6770696 6798327 6823974 
2487.425 6848008 6871874 6897391 6925636 6956240 6987486 7016714 7042105 
2491.283 7062917 7080766 7098751 7119464 7144929 7174942 7207383 7239489 
2495.140 7268801 7294341 7316379 7336159 7354694 7372555 7389642 7405280 
2498.998 7419099 7431975 7444884 7458772 7474345 7490964 7507145 7521979 
2502.855 7534689 7546185 7558222 7572551 7590219 7611361 7634662 7658201 
2506.712 7680829 7702144 7722313 7742315 7762553 7782388 7801549 7818889 
2510.570 7834104 7847802 7861061 7874793 7889605 7905126 7920480 7934956 
2514.427 7948961 7963742 7981121 8003059 8030026 8061349 8095139 8128898 
2518.285 8161072 8190886 8218743 8245758 8273111 8301176 8329817 8358966 
2522.142 8388118 8417406 8447406 8478084 8509034 8539581 8568609 8595375 
2526.000 8620385 8644585 8669023 8694579 8720778 8746167 8769360 8789207 
2529.857 8805842 8821058 8837459 8857207 8882029 8911790 8945207 8980487 
2533.714 9016242 9051866 9087188 9122547 9157604 9191750 9224578 9254972 
2537.572 9283777 9311976 9340819 9371424 9403995 9437484 9470365 9501657 
2541.429 9530953 9558828 9586874 9615939 9646055 9676106 9704296 9728963 
2545.287 9749566 9766374 9781081 9795857 9811684 9828731 9846966 9865066 
2549.144 9882183 9898250 9913200 9927031 9939574 9950219 9957847 9962560 
2553.001 9964458 9964730 9965408 9967984 9973138 9981207 9991005 10001651 
2556.859 10012467 10022843 10032236 10040475 10046579 10049597 10049122 
2560.234 10045731 10040543 10035762 10033287 10033829 10037051 10041154 
2563.609 10044103 10044307 10041866 10037288 10032541 10028946 10026776 
2566.985 10025386 10023385 10019825 10014095 10007415 10000804 9995684 
2570.360 9992260 9989920 9987310 9983445 9977816 9970866 9963271 9955338 
2574.217 9946659 9936252 9922725 9905132 9884217 9861439 9838865 9818327 
2578.075 9800703 9785215 9770711 9755496 9739095 9721814 9705245 9690641 
2581.932 9679223 9671567 9666925 9665095 9665637 9668314 9673024 9679393 
2585.790 9685898 9691218 9694064 9693928 9691760 9690438 9692403 9700739 
2589.647 9716697 9739569 9767526 9798026 9827816 9855101 9879065 9899097 
2593.504 9915505 9929370 9941608 9953949 9968188 9986157 10008602 10035660 
2597.362 10065399 10095276 10122882 10146454 10165686 10182137 10198147 
2600.737 10215990 10237497 10262738 10290761 10320145 10349191 10376406 
2604.112 10401247 10423341 10442483 10459318 10474592 10489595 10506397 
2607.488 10526664 10551683 10581593 10615409 10650961 10686005 10718778 
2610.863 10748598 10775770 10801584 10826756 10851963 10877205 10901838 
2614.238 10925418 10947946 10969659 10990865 11011867 11032156 11050849 
2617.613 11067606 11082561 11096803 11111998 11130014 11152111 11178527 
2620.989 11208208 11239455 11271181 11302433 11333517 11365488 11399025 
2624.364 11434573 11471654 11509283 11545996 11580909 11613681 11644310 
2627.739 11673241 11700981 11727737 11754153 11780470 11807434 11835898 
2631.114 11866612 11899474 11934347 11970143 12005771 12040447 12073969 
2634.490 12106506 12138568 12170870 12203005 12234597 12264793 12292947 
2637.865 12319364 12344453 12368862 12393340 12418126 12443323 12468283 
2641.240 12493107 12517558 12542011 12567079 12592660 12618447 12643588 
2644.615 12667536 12689643 12710011 12729492 12748975 12769448 12791458 
2647.990 12814663 12839201 12864763 12891113 12918795 12948220 12978876 
2651.366 13010558 13042106 13072188 13100052 13125426 13148854 13171498 
2654.741 13194518 13218565 13244116 13270590 13297340 13323579 13348829 
2658.116 13372679 13394958 13415804 13434771 13451824 13466828 13479953 
2661.491 13491470 13501519 13510475 13518268 13524934 13530471 13535018 
2664.867 13538573 13541752 13544965 13548110 13551187 13553647 13555015 
2668.242 13555118 13553887 13551836 13549272 13546298 13542777 13538299 
2671.617 13532249 13524148 13514030 13502305 13489693 13477184 13465324 
2674.992 13454353 13444510 13435317 13426637 13418162 13409585 13400529 
2678.368 13390790 13380060 13368408 13356210 13343772 13331814 13321051 
2681.743 13311485 13303114 13295632 13288595 13281454 13274758 13268233 
2685.118 13262118 13256755 13251939 13247771 13244048 13240870 13238719 
2688.493 13237796 13238138 13239641 13241861 13244081 13245516 13246097 
2691.869 13245550 13244286 13242783 13241281 13240051 13239197 13239060 
2695.244 13239948 13242442 13247190 13254262 13263656 13274997 13287569 
2698.619 13300996 13315208 13330139 13346505 13364649 13384502 13406338 
2701.994 13429747 13454763 13481114 13509073 13538880 13570569 13603799 
2705.370 13638126 13672626 13706958 13741155 13775561 13810927 13847972 
2708.745 13886800 13927615 13969597 14012406 14055696 14099506 14143866 
2712.120 14189327 14235786 14283037 14330910 14378925 14426637 14474388 
2715.495 14522146 14570216 14618771 14667778 14717578 14768481 14821207 
2718.871 14876374 14934532 14996162 15060578 15127269 15195136 15263186 
2722.246 15331040 15398974 15467124 15535972 15605243 15674422 15742650 
2725.621 15809273 15873741 15936296 15997482 16058335 16119299 16180856 
2728.996 16242491 16303480 16363515 16421733 16477793 16531724 16583461 
2732.372 16633276 16681409 16728202 16773866 16818638 16862210 16904270 
2735.747 16944096 16980686 17013662 17043124 17069900 17095126 17120664 
2739.122 17147446 17175748 17205462 17235316 17264034 17290894 17315272 
2742.497 17337444 17358238 17378412 17398520 17419142 17440148 17461602 
2745.873 17483230 17505204 17527144 17549086 17570546 17590972 17609950 
2749.248 17627064 17642040 17654706 17665092 17673238 17679380 17684038 
2752.623 17687696 17691114 17695046 17699776 17705504 17712098 17719172 
2755.998 17726282 17733358 17740018 17746092 17751720 17756312 17759556 
2759.374 17761350 17761798 17761556 17761902 17763904 17768530 17775744 
2762.749 17784960 17795074 17805084 17814302 17822932 17831598 17841438 
2766.124 17852898 17866570 17881762 17898024 17914704 17931552 17948922 
2769.499 17967052 17986496 18007250 18029216 18052256 18075744 18099820 
2772.875 18124624 18150050 18176100 18202496 18228100 18252566 18275650 
2776.250 18297664 18319472 18342560 18367378 18394684 18424172 18455354 
2779.625 18487336 18519838 18552550 18585610 18619190 18653362 18687952 
2783.000 18722822 18758004 18793952 18831320 18870976 18913092 18958052 
2786.375 19005336 19054286 19104522 19155354 19206572 19258108 19309408 
2789.751 19359604 19408040 19453570 19495708 19534766 19571714 19608042 
2793.126 19645066 19683822 19724702 19767664 19812226 19857592 19903448 
2796.501 19949168 19994166 20037744 20079246 20118078 20154034 20187564 
2799.876 20219326 20250082 20281014 20312296 20343894 20375668 20407510 
2803.252 20439496 20472112 20505976 20541618 20579102 20618222 20658286 
2806.627 20698874 20739534 20780236 20821114 20862480 20904338 20946340 
2810.002 20988276 21029660 21070664 21111778 21153626 21197114 21242902 
2813.377 21291132 21342218 21395644 21451340 21508784 21567626 21627312 
2816.753 21687184 21746992 21806216 21865624 21926362 21989132 22055150 
2820.128 22124910 22198136 22273570 22349992 22426362 22501730 22576658 
2823.503 22651320 22726624 22802812 22879748 22956872 23033730 23110150 
2826.878 23186126 23262572 23339764 23418438 23498526 23579748 23661862 
2830.254 23744618 23828092 23912494 23998098 24084704 24171956 24259436 
2833.629 24346968 24434554 24523174 24614336 24709410 24809418 24914782 
2837.004 25024700 25138226 25254204 25371900 25491420 25613960 25740614 
2840.379 25873668 26015348 26167526 26332820 26513814 26713202 26934226 
2843.755 27180472 27454990 27761154 28101606 28477882 28889826 29334806 
2847.130 29806646 30294702 30784694 31258754 31695440 32074738 32377750 
2850.505 32589782 32702372 32713912 32629176 32458506 32216992 31922828 
2853.880 31593836 31248784 30904184 30573472 30267346 29993246 29755122 
2857.256 29554150 29389544 29258632 29157808 29083154 29031040 28998308 
2860.631 28982758 28983184 28999372 29031288 29079184 29142890 29221738 
2864.006 29314992 29421772 29541312 29673302 29817754 29974998 30145512 
2867.381 30329520 30526796 30736646 30957660 31187654 31423290 31660300 
2870.757 31893980 32118368 32328274 32519248 32687974 32834076 32958742 
2874.132 33065602 33159718 33246384 33330556 33416718 33507512 33604516 
2877.507 33708492 33819476 33936796 34060628 34190416 34326516 34468720 
2880.882 34617396 34772620 34934252 35101372 35272328 35444896 35615452 
2884.258 35779592 35933036 36071232 36190420 36288748 36365660 36423020 
2887.633 36464244 36494696 36519852 36546016 36579504 36626364 36692740 
2891.008 36785484 36912264 37082272 37306792 37597980 37970352 38439184 
2894.383 39019032 39723556 40561908 41535012 42632332 43829620 45085540 
2897.759 46340600 47526544 48566824 49386060 49925888 50146028 50033992 
2901.134 49604628 48898144 47972952 46893192 45727376 44536636 43369728 
2904.509 42265944 41251708 40342716 39547464 38868228 38303092 37847460 
2907.884 37495600 37241412 37078952 37003644 37011328 37098548 37261484 
2911.260 37495344 37793232 38147040 38546244 38978980 39433008 39894780 
2914.635 40351116 40789364 41197204 41564000 41881732 42144896 42351668 
2918.010 42504160 42607292 42667604 42691912 42686100 42653860 42596184 
2921.385 42512092 42400288 42259664 42091156 41898556 41688752 41470884 
2924.760 41255204 41052160 40871228 40719780 40603164 40524368 40484212 
2928.136 40481524 40512984 40574496 40659628 40761304 40871268 40979980 
2931.511 41077908 41155600 41203576 41213708 41179208 41095132 40958756 
2934.886 40769384 40528952 40240992 39910980 39546084 39153608 38742180 
2938.261 38321368 37899592 37486604 37090824 36719528 36379460 36074724 
2941.637 35807984 35579268 35386984 35227588 35095732 34985496 34890192 
2945.012 34802628 34716732 34626472 34527624 34417784 34296432 34165284 
2948.387 34027624 33888000 33751000 33620412 33498346 33385084 33279434 
2951.762 33178494 33079688 32980368 32878998 32774794 32667864 32558352 
2955.138 32446262 32330736 32211140 32086012 31954676 31816642 31672060 
2958.513 31521826 31367152 31209406 31050006 30890308 30731062 30572976 
2961.888 30416686 30262268 30110066 29960336 29813744 29670890 29532872 
2965.263 29400748 29275432 29158092 29049212 28949428 28859620 28780482 
2968.639 28713434 28659808 28621440 28600206 28598084 28616628 28657222 
2972.014 28720584 28805904 28910436 29030118 29157454 29283478 29398194 
2975.389 29490280 29549718 29568622 29541242 29465740 29343880 29181444 
2978.764 28986514 28770428 28545886 28324646 28118008 27934898 27780652 
2982.140 27657288 27563682 27495938 27448356 27414438 27388146 27363584 
2985.515 27336094 27302678 27261328 27212008 27155394 27093566 27029208 
2988.890 26964614 26902390 26844372 26791364 26743824 26701610 26664438 
2992.265 26631744 26603702 26580560 26562982 26551816 26548082 26552028 
2995.641 26563616 26582074 26605322 26631780 26659540 26687586 26716128 
2999.016 26746712 26781038 26821074 26867846 26921074 26979176 27039754 
3002.391 27099950 27158074 27213280 27265880 27317076 27368172 27420192 
3005.766 27473170 27527142 27581476 27635746 27690130 27745330 27802234 
3009.142 27861726 27923944 27988470 28054418 28120414 28185038 28247728 
3012.517 28308128 28366698 28424392 28482164 28540934 28601586 28664266 
3015.892 28728832 28795282 28863160 28932074 29001992 29073020 29145370 
3019.267 29219752 29296630 29376318 29459534 29546384 29636728 29730710 
3022.643 29827618 29926720 30027294 30128428 30229016 30328420 30425962 
3026.018 30521002 30613434 30703002 30789318 30872200 30951186 31026090 
3029.393 31097022 31164370 31228738 31291048 31352126 31412248 31471412 
3032.768 31529166 31584606 31636850 31685676 31731050 31773682 31815074 
3036.144 31856290 31898868 31943836 31991590 32042526 32096644 32153692 
3039.519 32213424 32275270 32338984 32403742 32469004 32534316 32599494 
3042.894 32664828 32730952 32798306 32867384 32938440 33011292 33085696 
3046.269 33161830 33239800 33320360 33404372 33492264 33583968 33678412 
3049.645 33773880 33868440 33960868 34050308 34137508 34223828 34310772 
3053.020 34399564 34490744 34583844 34678148 34772940 34867968 34963700 
3056.395 35061104 35160864 35263308 35368072 35474092 35579808 35684040 
3059.770 35785600 35883944 35978748 36069576 36155956 36237456 36314072 
3063.146 36386232 36455236 36522988 36591544 36662488 36736440 36813176 
3066.521 36891772 36970884 37049360 37126912 37203760 37280404 37357960 
3069.896 37437048 37518172 37602028 37689108 37779896 37874792 37974476 
3073.271 38078960 38187992 38301104 38417684 38537156 38659052 38783188 
3076.646 38909324 39037232 39166300 39296136 39426372 39557044 39688304 
3080.022 39821016 39955660 40092996 40233540 40377332 40524004 40673312 
3083.397 40824052 40975576 41126604 41276192 41423572 41568340 41710676 
3086.772 41851048 41990556 42129668 42268468 42406612 42543080 42676924 
3090.147 42807412 42934644 43059572 43183732 43308584 43435528 43564992 
3093.523 43696700 43830132 43964708 44100420 44237644 44377556 44521584 
3096.898 44670800 44825728 44986152 45151448 45320376 45491688 45664724 
3100.273 45839192 46015572 46194748 46377872 46565900 46759256 46957384 
3103.648 47159516 47364072 47569536 47774876 47979388 48182924 48385372 
3107.024 48585948 48782980 48974244 49156576 49326960 49483592 49625688 
3110.399 49753932 49870208 49976332 50073700 50163100 50243664 50314084 
3113.774 50373092 50419456 50452692 50473124 50481348 50478076 50463968 
3117.149 50439256 50404204 50359400 50305488 50243592 50175148 50101364 
3120.525 50023320 49942020 49858244 49772584 49685720 49598536 49511520 
3123.900 49425004 49339768 49256144 49174760 49097104 49024580 48959040 
3127.275 48902040 48854576 48816828 48788320 48767484 48752952 48743720 
3130.650 48738720 48737976 48742132 48752248 48769340 48794400 48827992 
3134.026 48870076 48920248 48977508 49040196 49107380 49177580 49250240 
3137.401 49325104 49402280 49482036 49564516 49649836 49737584 49827692 
3140.776 49919792 50013504 50108844 50205648 50303520 50401932 50500108 
3144.151 50597336 50693284 50788284 50882632 50977380 51073112 51170320 
3147.527 51268704 51367972 51467372 51566572 51665832 51765560 51866396 
3150.902 51968824 52072772 52177376 52281524 52383976 52483832 52580908 
3154.277 52675760 52768880 52861376 52953480 53045384 53136780 53226964 
3157.652 53315704 53402844 53488772 53574040 53659624 53746128 53833956 
3161.028 53923760 54015604 54109348 54204872 54301468 54398012 54493448 
3164.403 54586472 54676124 54761736 54843532 54922228 54998676 55074160 
3167.778 55149508 55225432 55302200 55379580 55457540 55535816 55614220 
3171.153 55692520 55771104 55849812 55929212 56009836 56091984 56175764 
3174.529 56261072 56346620 56431128 56512904 56590652 56663660 56732180 
3177.904 56797056 56859748 56921880 56984100 57046744 57109660 57172584 
3181.279 57235108 57297712 57360776 57424760 57490004 57555744 57620816 
3184.654 57683776 57743420 57798792 57850420 57899108 57946280 57993232 
3188.030 58040876 58089164 58137648 58185344 58231636 58275744 58317540 
3191.405 58356916 58394208 58429724 58463920 58497244 58529920 58562036 
3194.780 58593660 58624528 58654072 58682100 58708576 58733952 58758760 
3198.155 58784140 58810692 58838656 58868172 58898760 58929724 58960652 
3201.531 58991056 59020736 59049812 59078020 59105236 59131548 59156836 
3204.906 59181516 59206272 59231640 59257960 59285344 59313256 59340680 
3208.281 59367008 59391888 59415328 59438316 59461532 59485432 59509824 
3211.656 59533688 59555768 59574620 59589820 59601604 59611336 59620952 
3215.031 59631824 59645428 59661964 59680672 59701008 59721916 59742944 
3218.407 59764428 59787048 59811764 59839260 59870100 59903648 59939056 
3221.782 59975384 60011372 60046224 60079552 60111632 60143064 60174996 
3225.157 60208220 60243124 60279780 60317508 60355540 60393312 60430592 
3228.532 60467492 60505120 60544316 60585948 60630448 60677424 60725704 
3231.908 60774556 60822124 60867636 60910636 60951432 60990548 61029216 
3235.283 61068720 61109948 61153700 61200124 61248688 61298708 61349080 
3238.658 61398960 61447888 61496028 61544092 61593076 61643976 61697172 
3242.033 61752288 61809240 61866740 61924324 61981376 62038092 62094360 
3245.409 62150520 62206148 62260716 62313840 62364784 62413900 62462068 
3248.784 62510164 62559180 62609852 62661864 62713964 62765068 62813660 
3252.159 62858612 62900088 62938616 62975080 63010744 63046448 63082232 
3255.534 63117788 63152736 63185768 63216508 63244024 63268060 63288600 
3258.910 63305548 63319384 63330500 63339360 63346064 63350856 63353888 
3262.285 63355112 63354576 63352392 63348904 63344724 63339896 63334720 
3265.660 63329236 63322948 63315324 63305700 63293240 63277260 63257172 
3269.035 63232636 63203172 63168408 63128560 63083844 63034384 62981136 
3272.411 62924564 62865244 62803516 62739380 62672696 62603652 62532164 
3275.786 62459044 62385136 62311428 62239224 62169480 62102768 62039316 
3279.161 61979044 61921572 61865936 61811612 61757216 61701720 61644168 
3282.536 61583912 61520536 61454916 61387892 61321184 61256548 61195584 
3285.912 61139168 61087944 61041608 60999740 60961496 60926076 60892796 
3289.287 60860888 60829480 60798076 60765680 60732184 60697088 60660964 
3292.662 60624732 60588924 60554412 60521460 60489888 60458888 60427812 
3296.037 60396168 60364036 60331900 60301328 60273884 60251156 60234788 
3299.413 60225500 60223824 60229800 60242744 60262080 60286672 60315412 
3302.788 60346708 60379224 60411592 60442472 60471036 60495868 60516700 
3306.163 60532660 60543516 60549496 60551972 60552392 60553192 60556812 
3309.538 60565268 60579896 60600616 60626448 60656164 60687940 60720788 
3312.914 60753788 60787328 60821588 60856964 60894168 60933052 60973888 
3316.289 61016900 61062012 61108844 61157396 61206492 61254640 61300544 
3319.664 61343204 61381708 61416476 61448308 61478428 61507592 61536528 
3323.039 61564708 61591736 61615984 61636036 61651308 61660816 61664136 
3326.415 61661696 61653980 61642028 61627172 61610944 61594068 61577076 
3329.790 61559704 61540464 61518204 61491444 61459456 61421860 61379456 
3333.165 61332172 61280244 61223548 61161024 61092100 61016784 60935912 
3336.540 60851056 60764080 60676320 60588388 60499372 60407480 60310236 
3339.916 60205708 60092224 59969188 59837012 59696216 59547716 59392424 
3343.291 59231108 59064424 58893336 58718780 58541636 58363472 58185528 
3346.666 58009024 57835428 57665956 57501536 57342664 57189404 57040660 
3350.041 56895516 56752536 56610432 56468752 56327232 56185832 56045008 
3353.417 55904452 55764360 55624800 55486340 55350220 55218472 55092892 
3356.792 54975396 54866656 54766476 54673080 54584628 54499388 54415740 
3360.167 54333644 54253484 54176040 54102100 54032416 53966864 53904740 
3363.542 53845248 53787340 53729816 53671884 53612952 53552788 53491732 
3366.917 53430540 53369952 53310868 53253556 53197636 53142248 53085972 
3370.293 53027412 52966248 52902320 52836264 52768576 52699400 52627772 
3373.668 52551700 52468764 52376052 52271620 52154624 52025220 51884356 
3377.043 51733536 51573436 51404148 51225232 51035100 50832348 50615692 
3380.418 50384368 50138556 49878684 49605556 49320020 49023320 48715588 
3383.794 48397816 48070876 47735896 47394784 47050128 46704352 46360320 
3387.169 46020652 45686920 45359512 45037792 44719724 44402292 44082120 
3390.544 43756688 43423916 43083832 42737944 42388708 42039244 41692656 
3393.919 41350892 41014976 40684408 40358532 40036060 39716548 39399740 
3397.295 39086788 38778480 38475932 38179344 37888384 37600980 37314520 
3400.670 37025908 36731932 36430552 36121028 35804132 35482144 35158492 
3404.045 34836304 34518440 34206764 33901544 33601904 33306372 33012758 
3407.420 32719736 32426268 32131926 31837144 31543418 31252022 30964956 
3410.796 30683766 30409542 30142562 29882562 29628284 29378128 29130878 
3414.171 28885928 28643102 28403096 28166548 27933696 27704750 27479346 
3417.546 27256848 27037390 26821426 26609904 26403658 26202580 26005710 
3420.921 25811038 25616246 25419642 25220950 25021856 24824750 24632992 
3424.297 24449066 24273486 24105578 23942986 23783606 23625754 23469042 
3427.672 23314136 23162394 23015110 22872730 22734514 22599066 22464846 
3431.047 22330424 22194858 22057800 21919182 21779214 21637970 21495308 
3434.422 21351476 21206784 21061552 20916682 20772796 20630628 20490832 
3437.798 20353790 20219256 20087470 19957806 19829672 19702304 19575146 
3441.173 19448754 19323540 19201238 19083368 18971344 18865162 18763368 
3444.548 18663426 18562198 18456876 18345740 18229138 18108698 17987704 
3447.923 17868644 17753654 17643456 17537840 17435216 17334582 17235248 
3451.299 17136624 17039436 16944096 16850500 16759092 16669391 16581018 
3454.674 16493279 16405527 16317172 16227666 16136114 16042279 15945645 
3458.049 15846867 15746703 15646219 15547236 15450781 15357608 15268437 
3461.424 15182715 15099514 15018319 14938373 14858751 14779657 14701126 
3464.800 14623158 14546609 14471477 14398002 14326287 14255816 14186246 
3468.175 14117509 14049605 13982395 13916496 13852043 13788695 13725800 
3471.550 13662299 13596893 13528865 13458044 13385254 13311997 13240597 
3474.925 13172557 13109375 13051633 12998847 12949892 12903571 12858483 
3478.301 12813434 12767741 12720826 12672312 12622165 12570353 12517457 
3481.676 12464361 12412603 12363680 12319739 12282006 12250922 12226486 
3485.051 12207639 12192168 12178503 12165315 12152129 12139522 12129130 
3488.426 12122451 12120373 12122655 12127562 12132980 12136319 12135978 
3491.802 12132571 12128107 12125211 12127255 12136012 12151686 12173221 
3495.177 12198370 12224781 12251569 12279211 12309138 12343566 12383998 
3498.552 12431014 12483900 12541841 12603473 12668661 12737715 12812206 
3501.927 12893502 12982767 13080452 13186560 13300859 13422639 13551938 
3505.302 13687843 13829364 13974456 14120727 14265711 14407250 14546026 
3508.678 14683681 14823711 14969375 15123186 15284979 15452738 15622829 
3512.053 15791509 15956473 16117614 16276063 16434122 16593238 16753100 
3515.428 16911712 17066074 17213080 17350652 17478746 17598460 17711544 
3518.803 17818964 17920228 18013156 18094776 18161278 18210134 18239642 
3522.179 18249040 18238398 18208130 18158410 18089388 18001380 17894364 
3525.554 17768702 17624614 17462532 17282998 17087028 16876334 16652727 
3528.929 16418809 16177004 15929077 15677204 15422594 15166725 14911042 
3532.304 14656297 14402455 14148419 13891932 13630296 13361642 13085471 
3535.680 12804220 12522469 12245946 11979952 11728044 11491353 11267883 
3539.055 11055642 10851623 10654288 10462780 10277530 10097514 9921946 
3542.430 9748481 9574307 9396987 9215541 9030315 8843376 8657700 8475956 
3546.288 8300366 8132274 7972179 7819799 7675164 7537723 7407067 7282582 
3550.145 7163017 7047257 6934221 6822965 6713049 6604407 6497204 6392145 
3554.002 6289499 6190608 6095873 6006264 5921780 5841879 5765083 5689474 
3557.860 5613241 5535545 5456990 5379657 5306196 5239085 5179025 5125210 
3561.717 5074956 5025042 4972118 4914207 4850943 4782730 4709904 4632068 
3565.575 4547683 4455113 4353125 4243397 4130821 4021919 3924613 3844745 
3569.432 3784510 3742799 3715462 3696547 3679538 3659322 3631990 3596173 
3573.290 3552810 3504106 3453238 3403209 3356059 3312352 3271588 3232396 
3577.147 3192774 3151887 3109536 3066755 3025780 2989146 2958686 2935268 
3581.004 2918422 2906447 2897241 2888868 2879696 2868722 2855281 2837905 
3584.862 2814893 2783512 2740963 2685583 2617875 2541213 2462165 2388562 
3588.719 2326930 2281195 2251185 2233866 2223775 2215549 2204426 2187542 
3592.577 2164065 2135462 2104296 2073833 2047233 2026293 2012745 2006687 
3596.434 2007985 2015741 2027924 2041274 2051793 2054357 2044270 2019070 
3600.292 1978759 1927303 1870595 1816357 1771541 1740435 1724201 1720641 
3604.149 1726164 1735079 1742331 1743562 1735877 1717348 1688342 1651189 
3608.006 1609848 1569675 1535990 1511983 1498185 1491269 1485916 1475876 
3611.864 1456859 1427371 1390706 1353412 1323034 1305719 1303658 1314060 
3615.721 1330312 1343773 1346698 1332938 1300135 1250488 1189582 1125928 
3619.579 1067730 1022061 993101 981444 984666 999975 1023190 1051521 1083375 
3623.918 1118154 1155528 1195131 1233807 1265508 1282057 1272486 1227327 
3627.776 1143136 1027342 899625 786087 710510 682666 697468 739086 788775 
3632.115 830735 854704 858124 845309 825291 807730 799829 803713 816859 
3636.455 833158 846637 852812 850123 839997 824892 807962 791365 776195 
3640.794 763117 753524 749309 753458 768892 797572 839167 891092 947573 
3645.134 1001370 1044945 1070753 1073045 1049030 998647 925225 834287 733046 
3649.474 630302 535312 457789 405750 383828 391887 425118 475004 530402 
3653.813 580067 614408 627149 617328 590551 557440 528975 514080 515241 
3658.153 529672 550804 571606 587034 594732 595064 590020 582787 575986 
3662.492 571275 569649 571905 578507 590352 608170 631861 660465 691560 
3666.832 720932 742505 749873 736498 698563 637801 563279 491058 438684 
3671.172 419447 437224 484922 547354 603956 634814 622703 561122 458552 
3675.511 339922 237072 174253 159403 183932 231038 283554 329477 363997 
3679.851 388869 408734 429297 453941 482434 512554 541814 568819 594865 
3684.190 622272 652733 685454 716418 738755 744331 726906 684591 621741 
3688.530 547885 474639 411985 364561 332793 314555 307957 311836 325664 
3692.870 348942 379451 413146 445981 473577 493281 505588 513317 520682 
3697.209 531364 546989 566364 585541 599344 602761 593272 571042 540022 
3701.549 506318 477027 457291 449828 454240 467938 487509 509701 532326 
3705.888 554587 576251 597486 618124 637104 652202 660100 657446 641451 
3710.228 610957 567293 515341 461968 415732 383861 371127 378290 402599 
3714.568 438783 480344 520914 554951 579038 592111 595495 592177 585807 
3718.907 579370 574626 571606 569151 566298 562051 556909 552331 549378 
3723.247 548383 548383 546890 540951 528776 510730 490362 473677 467839 
3727.586 478420 507644 553492 609862 667899 717812 752396 767034 762188 
3731.926 742671 716086 688706 662324 634217 598282 548980 485552 414339 
3736.266 346786 296120 271651 275696 304774 352623 412980 481439 555648 
3740.605 633554 710942 780411 829540 843018 807962 720500 594997 463461 
3744.945 367015 333356 366849 450525 557838 663020 743401 784958 782634 
3749.284 740713 670155 585143 499186 421304 357796 314489 295656 304243 
3753.624 339292 395270 462532 530269 589224 632624 658275 667600 664149 
3757.964 651705 633056 609663 583351 558037 540221 536240 550705 582953 
3762.303 626950 672611 708353 726043 722458 702180 674503 651506 641451 
3766.643 646428 660996 675598 680907 669624 640854 599078 553757 514412 
3770.982 488073 477690 481837 496499 516634 537766 557075 573199 586006 
3775.322 596656 606312 615569 623499 627846 626154 616000 597585 573862 
3779.662 550506 534482 530236 538928 557606 580067 599178 609530 608535 
3784.001 597453 580133 561885 547221 538264 535245 536937 542444 550771 
3788.341 561587 574725 588859 602098 612284 618456 620613 620845 621907 
3792.680 625789 633189 641617 647524 647623 640157 627348 614939 610824 
3797.020 620845 647391 686483 729395 763681 776461 757308 702446 618091 
3801.360 520483 433244 378190 366086 395634 454837 526255 590518 631264 
3805.699 638100 609928 556013 493878 443327 417391 419281 443228 479648 
3810.039 519023 555914 589556 622803 659005 699127 739219 770652 782933 
3814.378 766270 718044 645101 566364 504493 477923 493812 545165 615868 
3818.718 684359 730523 739219 704371 631795 540653 456495 400874 384160 
3823.058 403926 448203 501342 549477 583484 600107 602230 596723 592509 
3827.397 596324 609796 630302 652169 669193 676626 673374 661693 646561 
3831.737 634184 629837 636540 654492 681272 712203 741642 763051 769822 
3836.076 757308 723786 671682 608037 543473 488803 451453 434107 434239 
3840.416 446644 464655 483330 499451 511459 519819 525425 529937 534681 
3844.756 541714 553127 570346 594632 625888 663153 705267 751068 799829 
3849.095 851318 904440 955974 998714 1021098 1008311 945746 826353 658474 
3853.435 470692 301558 184330 133617 143228 195435 269728 350301 426744 
3857.774 493646 550307 597021 635113 665443 688009 703176 711241 712867 
3862.114 708054 696339 676759 648917 615602 583219 560625 557108 577313 
3866.454 618555 670587 717845 743932 736298 691925 619949 541349 480643 
3870.793 455102 468138 509469 561819 606776 632359 635014 620646 601467 
3875.133 590352 596225 620679 658574 700023 735402 755947 757010 738954 
3879.472 706627 669525 638398 622968 628643 654492 694182 736697 770054 
3883.812 782435 766835 723089 660366 595097 545762 526520 541416 584712 
3888.152 643575 703010 749442 772610 768428 739485 694647 645599 604122 
3892.491 577910 570213 579470 602197 633952 670587 708685 745393 777888 
3896.831 803912 820909 827515 823266 809522 789373 767200 746687 730258 
3901.170 718111 707457 694149 674303 645765 609829 570677 535046 510166 
3905.510 500711 508407 531463 566132 607539 650676 692058 729096 760661 
3909.850 786286 806634 822369 834885 846039 857194 869345 882194 894213 
3914.189 902348 903610 895143 876151 848164 814137 778684 746189 719405 
3918.529 699757 687578 683264 687279 700322 722292 751301 783033 811614 
3922.868 830403 835051 824129 801655 775066 753226 744231 751765 774734 
3927.208 807763 844180 877148 901617 915430 918219 911080 895143 871703 
3931.548 841989 808493 774867 745924 726142 718442 723288 737958 758171 
3935.887 779249 797539 812045 823764 835648 850488 869478 891823 914899 
3940.227 934888 948370 953649 950960 942392 931667 921971 916194 915198 
3944.566 918618 924760 931601 936781 938839 936449 929642 919448 907528 
3948.906 896205 888071 884751 887241 895242 907826 923399 940168 956671 
3953.246 972080 985529 997053 1006418 1014223 1020633 1026046 1030663 
3957.103 1034947 1038833 1042288 1045244 1047768 1049894 1051887 1054178 
3960.960 1057500 1061984 1068062 1075635 1084438 1094137 1104236 1113935 
3964.818 1122938 1130080 1135030 1137688 1138286 1137754 1137189 1137455 
3968.675 1139216 1142438 1146358 1150113 1152970 1154531 1155461 1156458 
3972.533 1158584 1162438 1167721 1174199 1180611 1186293 1190811 1194400 
3976.390 1197921 1202008 1206826 1212342 1217193 1220216 1220117 1216030 
3980.248 1207823 1196792 1184897 1173867 1166026 1162372 1162903 1166525 
3984.105 1171143 1175196 1177090 1177289 1176658 1177422 1181741 1190512 
3987.962 1203138 1217459 1230351 1238990 1241715 1238126 1229553 1218223 
3991.820 1205929 1193802 1182538 1172073 1163302 1157820 1157421 1164199 
3995.677 1178385 1198088 1219087 1237163 1247497 1248294 1240286 1226829 
3999.535 1212807 1202473 1198619 
##END=
