
##TITLE=L1760A_6
##JCAMP-DX=5.01  $$ Nicolet v. 1
##DATATYPE=INFRARED SPECTRUM
##ORIGIN=UniL
##OWNER=Nicolet
##LONGDATE=2011/08/18
##TIME=15:05:52
##SPECTROMETER/DATA SYSTEM=Nicolet iS5
##DATA PROCESSING=
Ratio against background
%Transmittance->Absorbance
Truncated
ElementMultiply or ElementDivide
##COMMENTS=
Number of sample scans: 32
Collection length: 51.18 sec
Sample gain: 2.0
Background collected on: Jeu Aout 18 15:04:06 2011 (GMT+02:00);
Number of background scans: 32
Background gain: 2.0
Sample spacing:  1.000
Number of scan points: 12415
Resolution points: 8192
Number of FFT points: 65536
Apodization: N-B fort;
Phase correction: Mertz;
Laser frequency: 15798.0 cm-1
Number of rejected sample scans: 0
Number of rejected background scans: 0
Bench serial number: ASB1000141;
##RESOLUTION=4.000
##XUNITS=1/CM
##YUNITS=ABSORBANCE
##FIRSTX=649.893372
##LASTX=4000.122314
##FIRSTY=0.092750
##MAXX=4000.122314
##MINX=649.893372
##MAXY=0.214549
##MINY=0.000481
##XFACTOR=1.000000
##YFACTOR=1.000000E-009
##NPOINTS=6950
##DELTAX=0.482117
##ZPD=6100
##XYDATA=(X++(Y..Y))
649.893 92749568 91730904 90798608 89965240 89239728 88631560 88149408 
653.268 87794704 87559176 87423808 87362224 87348368 87360432 87385440 
656.643 87419960 87468136 87536072 87632632 87766440 87944600 88172544 
660.018 88452032 88778440 89141272 89528864 89929776 90338640 90758992 
663.393 91198608 91665664 92159976 92668264 93157440 93582792 93890592 
666.767 94037864 94024168 93912928 93823928 93863112 94072760 94421336 
670.142 94838944 95249120 95592576 95841672 95992672 96065376 96090056 
673.517 96094608 96093240 96085136 96059344 96003832 95912872 95787144 
676.892 95630024 95443088 95221144 94956480 94643976 94287184 93898816 
680.267 93499568 93108664 92735328 92377856 92024976 91664192 91288464 
683.642 90899984 90508304 90125856 89760952 89414792 89084400 88766736 
687.016 88463528 88184560 87944312 87757400 87636072 87586296 87610616 
690.391 87712752 87900128 88187520 88596008 89147944 89865672 90767448 
693.766 91864912 93160808 94646488 96300112 98082840 99938896 101804304 
697.141 103604512 105268344 106740008 107981272 108981120 109754472 
700.034 110337776 110776672 111118088 111403536 111660032 111898768 
702.926 112113784 112281992 112367048 112326280 112124720 111743640 
705.819 111191992 110504928 109741200 108967624 108238560 107592008 
708.712 107042096 106585352 106212408 105917536 105703160 105578576 
711.604 105553400 105629288 105797384 106039416 106332096 106652696 
714.497 106985328 107319360 107647328 107963640 108262960 108543232 
717.390 108810176 109079592 109377728 109733568 110173392 110712408 
720.282 111352408 112084488 112896384 113779504 114730584 115751128 
723.175 116841672 117995264 119196440 120423896 121655136 122875200 
726.068 124079248 125269456 126449000 127615136 128755760 129854160 
728.961 130896048 131879952 132821664 133754272 134720384 135759760 
731.853 136909056 138199392 139659392 141325488 143238976 145440640 
734.746 147962720 150814944 153979632 157411104 161049648 164829776 
737.639 168688336 172573856 176438928 180239904 183945616 187544896 
740.531 191065200 194569136 198140384 201827664 205582992 209191680 
743.424 212251232 214237136 214548720 212705744 208487232 201992928 
746.317 193636432 184030848 173892560 163856528 154426752 145958560 
749.209 138626032 132478848 127473368 123511816 120470632 118223144 
752.102 116665696 115723664 115367760 115613776 116512192 118118408 
754.995 120449696 123441536 126914784 130583752 134051752 136902048 
757.888 138771392 139397184 138691280 136735824 133770360 130116744 
760.780 126131832 122157864 118453240 115200768 112499944 110372720 
763.673 108784720 107657936 106897640 106396600 106058240 105811832 
766.566 105609552 105430296 105271984 105139880 105037960 104964032 
769.458 104909224 104862568 104816296 104768976 104724992 104692944 
772.351 104679864 104688552 104717184 104761464 104816632 104879656 
775.244 104947112 105011408 105055224 105046440 104941536 104683752 
778.136 104212760 103475664 102429032 101048144 99328976 97286992 94955776 
781.511 92383672 89635320 86782240 83898136 81054664 78306984 75692552 
784.886 73232040 70931344 68790232 66807292 64982192 63313328 61794688 
788.261 60414408 59154556 57995012 56919916 55918172 54984988 54119028 
791.636 53317948 52576380 51886784 51241040 50634456 50066972 49542380 
795.010 49064384 48634680 48250716 47907164 47598412 47320140 47068852 
798.385 46839448 46620052 46392324 46130592 45809736 45413400 44939480 
801.760 44403756 43833324 43262244 42719444 42221648 41774068 41372472 
805.135 41008784 40675860 40369804 40088020 39826536 39579256 39337448 
808.510 39092696 38841308 38584228 38326980 38076392 37836396 37606616 
811.885 37383380 37161852 36939644 36718556 36502912 36296960 36101836 
815.259 35913924 35726956 35535108 35335868 35131404 34927396 34730048 
818.634 34542548 34364136 34191204 34020420 33851428 33687544 33533820 
822.009 33394460 33269774 33155318 33044436 32931682 32815530 32700014 
825.384 32592780 32500320 32426160 32368324 32321278 32278304 32234908 
828.759 32189980 32144238 32098356 32050338 31995512 31928894 31847414 
832.133 31753436 31653706 31558524 31476792 31413280 31367548 31335492 
835.508 31312808 31297422 31290658 31295500 31314838 31347636 31390126 
838.883 31436502 31481850 31525246 31569570 31619422 31679224 31750016 
842.258 31830084 31916696 32008924 32109770 32226164 32366968 32538172 
845.633 32741208 32972470 33225384 33493660 33775208 34072096 34389632 
849.008 34733564 35105968 35505196 35926560 36364256 36813684 37272132 
852.382 37738224 38209268 38681036 39146648 39598712 40031736 40443512 
855.757 40835044 41208824 41566148 41904652 42219312 42502300 42747116 
859.132 42950884 43115080 43245292 43347648 43428716 43492804 43544412 
862.507 43589612 43637788 43702272 43799752 43946116 44155216 44437928 
865.882 44802000 45254584 45804396 46462160 47241040 48155532 49219104 
869.256 50445732 51849708 53443992 55241160 57247240 59456172 61839576 
872.631 64340444 66872104 69308568 71500792 73292088 74523392 75070984 
876.006 74859216 73871944 72156984 69818064 67005196 63881316 60615892 
879.381 57365352 54247668 51350520 48724932 46390112 44345628 42578272 
882.756 41069896 39798248 38739428 37869584 37163440 36598608 36157648 
886.131 35828348 35604228 35481860 35458488 35530436 35692888 35941276 
889.505 36273076 36689528 37195204 37796924 38502508 39320616 40260076 
892.880 41333548 42558176 43953924 45543464 47344636 49361484 51575752 
896.255 53937716 56363936 58727804 60874916 62638780 63849532 64375952 
899.630 64141756 63141508 61443884 59182920 56543056 53714628 50883640 
903.005 48205880 45784440 43680980 41917200 40487228 39369552 38535708 
906.379 37957156 37603616 37447016 37463848 37635052 37950684 38409432 
909.754 39017072 39781724 40708900 41795304 43025148 44366140 45765444 
913.129 47155048 48449008 49548468 50361000 50803404 50819828 50394340 
916.504 49553520 48365888 46924452 45342004 43727372 42168372 40734192 
919.879 39467012 38386988 37499352 36797272 36265336 35879952 35613472 
923.254 35436160 35318544 35238404 35180376 35136180 35102412 35076764 
926.628 35055320 35032620 35001588 34956696 34895364 34818568 34729364 
930.003 34631676 34529240 34425388 34323864 34230816 34153672 34100732 
933.378 34078868 34091056 34135752 34207696 34300664 34410004 34533652 
936.753 34671832 34825784 34995124 35177248 35367500 35561684 35757536 
940.128 35956324 36161932 36378452 36608412 36850796 37101868 37356152 
943.502 37609616 37860692 38110504 38362156 38618560 38881784 39152884 
946.877 39432720 39723264 40028028 40351076 40695328 41060572 41442600 
950.252 41833100 42223400 42604516 42970676 43319568 43652260 43971892 
953.627 44282956 44591448 44904316 45230280 45579416 45961976 46386020 
957.002 46857680 47379184 47951008 48573088 49246456 49974172 50761244 
960.377 51612728 52532704 53523736 54586768 55722924 56933968 58223340 
963.751 59596168 61058008 62613636 64267060 66020636 67875456 69830480 
967.126 71881408 74018992 76224800 78471840 80723104 82931120 85045128 
970.501 87013304 88786008 90324688 91600728 92597312 93310136 93744768 
973.876 93916880 93849136 93573512 93128856 92556592 91902824 91213032 
977.251 90528784 89892648 89344448 88921592 88661232 88594552 88744704 
980.625 89126584 89744944 90598096 91681912 92993968 94534680 96305280 
984.000 98300968 100500432 102853112 105277936 107650984 109814584 111603352 
987.375 112846752 113404768 113192936 112187688 110438264 108054904 
990.268 105206408 102088336 98897248 95826056 93027992 90613728 88655584 
993.643 87183048 86195600 85669928 85571464 85858736 86489752 87429360 
997.017 88647576 90121584 91835640 93775936 95927744 98272008 100776688 
1000.392 103394008 106059928 108685128 111164560 113386824 115235760 
1003.285 116615208 117460160 117746160 117497896 116788336 115736632 
1006.178 114483136 113182232 111986320 111017656 110374520 110123896 
1009.070 110301040 110921568 111985336 113484232 115405832 117736952 
1011.963 120467048 123586680 127090168 130974248 135234720 139862080 
1014.856 144833696 150098480 155569664 161113936 166536896 171610608 
1017.748 176080352 179692752 182255440 183656176 183898544 183101584 
1020.641 181500352 179414544 177177648 175129824 173552624 172631296 
1023.534 172466144 173061168 174348976 176204912 178477664 181010448 
1026.427 183636704 186203264 188567712 190593280 192169664 193214400 
1029.320 193683312 193578272 192945488 191870544 190456624 188822192 
1032.213 187084656 185342064 183674528 182129632 180715392 179398480 
1035.106 178106352 176743344 175195952 173360944 171162896 168558048 
1037.999 165543568 162150016 158435552 154472048 150339456 146123296 
1040.892 141901312 137745696 133719520 129870920 126239984 122862800 
1043.785 119772448 117007784 114611496 112623648 111081328 110009656 
1046.678 109419288 109306040 109653584 110437240 111624904 113181800 
1049.571 115072008 117255240 119692168 122343848 125171272 128141416 
1052.464 131224648 134392272 137614928 140853856 144052928 147141616 
1055.357 150027376 152601648 154758032 156390480 157412000 157767840 
1058.250 157438096 156448896 154871040 152826816 150475072 147991792 
1061.144 145570976 143387520 141588448 140294368 139583312 139498000 
1064.037 140047072 141207008 142923024 145108048 147656768 150439792 
1066.930 153314048 156144880 158799584 161162720 163146128 164677680 
1069.823 165706400 166200256 166141504 165529120 164376960 162713424 
1072.716 160578080 158018288 155094736 151877904 148454128 144933696 
1075.609 141436928 138095776 135046384 132405592 130275128 128733024 
1078.502 127824200 127563088 127924856 128845304 130209792 131856976 
1081.395 133600024 135222000 136517360 137325088 137540032 137142368 
1084.288 136193648 134833680 133248360 131644352 130236624 129204304 
1087.181 128685384 128766416 129470512 130763576 132555184 134720432 
1090.074 137099968 139516816 141805680 143804608 145375632 146417312 
1092.967 146856496 146659760 145830784 144409376 142463776 140077664 
1095.860 137345200 134352736 131173328 127870280 124493824 121087576 
1098.753 117694328 114352600 111098576 107965216 104978080 102160024 
1101.646 99531688 97111680 94920032 92976728 91298928 89903360 88804256 
1105.022 88013368 87541944 87399736 87593544 88127000 88998416 90200608 
1108.397 91719808 93537544 95629280 97962296 100496960 103182128 105949968 
1111.772 108722536 111405072 113890824 116077208 117865416 119174072 
1114.665 119952080 120176584 119857496 119031360 117760416 116123568 
1117.558 114203704 112089072 109856400 107564928 105259064 102964520 
1120.451 100694872 98459176 96266488 94129832 92069200 90107960 88273832 
1123.827 86598088 85111064 83844240 82827776 82085072 81633632 81482392 
1127.202 81631080 82071784 82790488 83769256 84984200 86405296 87996040 
1130.577 89706768 91478128 93243184 94925352 96453328 97767208 98825240 
1133.952 99615488 100156288 100498176 100711088 100879912 101091384 
1136.845 101413248 101890552 102532992 103314648 104174312 105024792 
1139.739 105771800 106315080 106567568 106465056 105962192 105038000 
1142.632 103691760 101940248 99815840 97364272 94646152 91727664 88679112 
1146.007 85571744 82466984 79420104 76479120 73680904 71055776 68625160 
1149.382 66399948 64382560 62567832 60946704 59508572 58244180 57146208 
1152.757 56207704 55421664 54780120 54274284 53896224 53640544 53504548 
1156.133 53487988 53592408 53819104 54168608 54641288 55237964 55960456 
1159.508 56811708 57793984 58907488 60147060 61500604 62949724 64467228 
1162.883 66018476 67564800 69059072 70450232 71687096 72715544 73487360 
1166.258 73964536 74120056 73944224 73443096 72638144 71560216 70246824 
1169.634 68739808 67079240 65306796 63463888 61587844 59714240 57873512 
1173.009 56088252 54377168 52754732 51232688 49822528 48534328 47375044 
1176.384 46348784 45454972 44690636 44050872 43531700 43129716 42841640 
1179.759 42663216 42587412 42603856 42700356 42863544 43079696 43337364 
1183.135 43624600 43929692 44241420 44548200 44840316 45111380 45359252 
1186.510 45585376 45793276 45986912 46168032 46335844 46487828 46620752 
1189.885 46732800 46823432 46893928 46946384 46983708 47009368 47029492 
1193.260 47054412 47098284 47180092 47321656 47543140 47861808 48290152 
1196.635 48833180 49489388 50248576 51092080 51989216 52897564 53766976 
1200.011 54537816 55151540 55559124 55724164 55632296 55291584 54732608 
1203.386 54000372 53150900 52246056 51342800 50493632 49742600 49119400 
1206.761 48641944 48315188 48133580 48084604 48151460 48317892 48566232 
1210.136 48879048 49238808 49625688 50019976 50404536 50765344 51095400 
1213.512 51394600 51669156 51929276 52186684 52453248 52738684 53050736 
1216.887 53394604 53772380 54182500 54618856 55072168 55530204 55980092 
1220.262 56411512 56816848 57192768 57539324 57858560 58153368 58426844 
1223.637 58682708 58925624 59161240 59395764 59634676 59880560 60133016 
1227.013 60389048 60645384 60901068 61159952 61431324 61730208 62073376 
1230.388 62478252 62960408 63531160 64198256 64965144 65830200 66786544 
1233.763 67820872 68915176 70044864 71182696 72301368 73372112 74368072 
1237.138 75263232 76028224 76632264 77041144 77217672 77128504 76745920 
1240.514 76052536 75044752 73732184 72137568 70291928 68237424 66024376 
1243.889 63706472 61344424 58997656 56717948 54551076 52531508 50682076 
1247.264 49019460 47552604 46284788 45213144 44328712 43616720 43058000 
1250.639 42632768 42322664 42111528 41986872 41937640 41953220 42023368 
1254.015 42138284 42290452 42476248 42695972 42952348 43248260 43583128 
1257.390 43950184 44335976 44718288 45068888 45355944 45544160 45600500 
1260.765 45497872 45217080 44752924 44115128 43330368 42435764 41477264 
1264.140 40503200 39553308 38659812 37844748 37119696 36491308 35961828 
1267.516 35530648 35194028 34945060 34774484 34671692 34628020 34637992 
1270.891 34699864 34814548 34983128 35205128 35477972 35797872 36161392 
1274.266 36568256 37020708 37523884 38083268 38703348 39386388 40133264 
1277.641 40943680 41817116 42752312 43745584 44788736 45868060 46963288 
1281.017 48049484 49101000 50091400 50997984 51801996 52487048 53039732 
1284.392 53448600 53703496 53797916 53729404 53500764 53119896 52599048 
1287.767 51953924 51200852 50359364 49452404 48505616 47550352 46619904 
1291.142 45744272 44948672 44246816 43639764 43115192 42649912 42214344 
1294.518 41774144 41298236 40762904 40154816 39475064 38739136 37975636 
1297.893 37219136 36505760 35866888 35323472 34886100 34556580 34330672 
1301.268 34200808 34157832 34191956 34290476 34438232 34619260 34816020 
1304.643 35012652 35196580 35356896 35484520 35570748 35606172 35582760 
1308.019 35495844 35346976 35144516 34904128 34646176 34390816 34156864 
1311.394 33960332 33813348 33726936 33710928 33773740 33921712 34157148 
1314.769 34478836 34882112 35361856 35914392 36538848 37236932 38011400 
1318.144 38864568 39796392 40804144 41882756 43025696 44223776 45463212 
1321.520 46724168 47976724 49179284 50285252 51243728 52008752 52551028 
1324.895 52861000 52954232 52866540 52651712 52371116 52081248 51833204 
1328.270 51662472 51586536 51607320 51711888 51879688 52086444 52313068 
1331.645 52549156 52794808 53059952 53360996 53716844 54143464 54652376 
1335.021 55248612 55930724 56689932 57510160 58369500 59237412 60077348 
1338.396 60851320 61520116 62051244 62424232 62630860 62676028 62573188 
1341.771 62341072 61999144 61567684 61069676 60529348 59972684 59425968 
1345.146 58908396 58432268 58002132 57617940 57280320 56995584 56777380 
1348.521 56648032 56635120 56765864 57068208 57567132 58283700 59236960 
1351.897 60441636 61905600 63627972 65596416 67785120 70150968 72637040 
1355.272 75171552 77665696 80026816 82155528 83950880 85325600 86203688 
1358.647 86531280 86284224 85469304 84126224 82317968 80136304 77693544 
1362.022 75112416 72531040 70079680 67859840 65934664 64314736 62965812 
1365.398 61820284 60799408 59828536 58847836 57825284 56756236 55661596 
1368.773 54577792 53549152 52618980 51819540 51172968 50688440 50363272 
1372.148 50185864 50139668 50209700 50383920 50656308 51024404 51484532 
1375.523 52027836 52638920 53296896 53979996 54670000 55352892 56021184 
1378.899 56671248 57299716 57901492 58468316 58990448 59460924 59878124 
1382.274 60248492 60583932 60899620 61208172 61516528 61827196 62141612 
1385.649 62465628 62814116 63210560 63681224 64248660 64921512 65692344 
1389.024 66539228 67433120 68341848 69230528 70067256 70817912 71445368 
1392.400 71914368 72191640 72255152 72103848 71764280 71286856 70726616 
1395.775 70128192 69508896 68860272 68159616 67389664 66555372 65693460 
1399.150 64865224 64136380 63558468 63149824 62897792 62768400 62721616 
1402.525 62719860 62732340 62738768 62726216 62688200 62623784 62535992 
1405.901 62430540 62313188 62187988 62055984 61915800 61766724 61612092 
1409.276 61462432 61336564 61257768 61246820 61317292 61470716 61697552 
1412.651 61981376 62306536 62661900 63042240 63447556 63878784 64334528 
1416.026 64811288 65304488 65814160 66350380 66937468 67611872 68408752 
1419.402 69351984 70440456 71649464 72942416 74281576 75636744 76981800 
1422.777 78297176 79569432 80788952 81953920 83068056 84137168 85161288 
1426.152 86128448 87010472 87768752 88357888 88736904 88882888 88794912 
1429.527 88494280 88013728 87391960 86666448 85872056 85046464 84225688 
1432.903 83435904 82687824 81967000 81236912 80447112 79558168 78568872 
1436.278 77536656 76565824 75765096 75198928 74863272 74702368 74637432 
1439.653 74599784 74540656 74438744 74297104 74133384 73968616 73817160 
1443.028 73686168 73575424 73483744 73409624 73351672 73306320 73266120 
1446.404 73223608 73177288 73139648 73138552 73212864 73402560 73733672 
1449.779 74216160 74845200 75608816 76491800 77476816 78543296 79657952 
1453.154 80769080 81808808 82678928 83255496 83401888 82986664 81948480 
1456.529 80354488 78429168 76463984 74686504 73193912 71965168 70932048 
1459.905 70029568 69220544 68489784 67830592 67229608 66663912 66105896 
1463.280 65539272 64972764 64449428 64033040 63789740 63760764 63951032 
1466.655 64337140 64880268 65540464 66275492 67043088 67798720 68487144 
1470.030 69051424 69438208 69609184 69558904 69326024 68992768 68651080 
1473.406 68373536 68192488 68102488 68081944 68112136 68186944 68310752 
1476.781 68489672 68721952 68993424 69280080 69556064 69798528 69993208 
1480.156 70135592 70228672 70280320 70300072 70297736 70280360 70251616 
1483.531 70208888 70142752 70036152 69865616 69608216 69245528 68768648 
1486.906 68177600 67476584 66666076 65738716 64681984 63491500 62187148 
1490.282 60820292 59464952 58191368 57045156 56028984 55109032 54226832 
1493.657 53318696 52330896 51230268 50011316 48693940 47315112 45911924 
1497.032 44510424 43122472 41755212 40418168 39128520 37907436 36775564 
1500.407 35746564 34824852 34010172 33300396 32691620 32178346 31746450 
1503.783 31369112 31002140 30590252 30082404 29456450 28749858 28057918 
1507.158 27493184 27120158 26934154 26881382 26901192 26946916 26995572 
1510.533 27044124 27100126 27172326 27264786 27375018 27497456 27627836 
1513.908 27764438 27908540 28061276 28221846 28388628 28562800 28752126 
1517.284 28970148 29231306 29543050 29899846 30282802 30664028 31018830 
1520.659 31339128 31643226 31968836 32355260 32818888 33344724 33896956 
1524.034 34435612 34934504 35386768 35809312 36233460 36694000 37212676 
1527.409 37792624 38424488 39096468 39803220 40547284 41335480 42171624 
1530.785 43050608 43960928 44889144 45829840 46794128 47812088 48922104 
1534.160 50147368 51488260 52919872 54408492 55917644 57418860 58898000 
1537.535 60343856 61754428 63133196 64488136 65826536 67149784 68460808 
1540.910 69756976 71036072 72299328 73543992 74761400 75934872 77043320 
1544.286 78065712 78988600 79812888 80548616 81202680 81766648 82204968 
1547.661 82457488 82458048 82150800 81523088 80616144 79515864 78308488 
1551.036 77038608 75691168 74202600 72499128 70541544 68362056 66069512 
1554.411 63819632 61739532 59885732 58220916 56632252 54953924 53007348 
1557.787 50665580 47928144 44997032 42223220 39924856 38223412 37051600 
1561.162 36254168 35679260 35213360 34776384 34320780 33826816 33302866 
1564.537 32779832 32300398 31902254 31600182 31381472 31210722 31044918 
1567.912 30844772 30588582 30280170 29948196 29634458 29374442 29187822 
1571.288 29074296 29021228 29009574 29017968 29023706 28999266 28915536 
1574.663 28749434 28495750 28180230 27859500 27604074 27463074 27449308 
1578.038 27542216 27706622 27908892 28126246 28349970 28581344 28826334 
1581.413 29089850 29373022 29673444 29988098 30316340 30661148 31026802 
1584.789 31416982 31832260 32270704 32730382 33212292 33722240 34269860 
1588.164 34865600 35517132 36228416 36999384 37828700 38714976 39657916 
1591.539 40655264 41700352 42781192 43880240 44977440 46055872 47100980 
1594.914 48102372 49050472 49933728 50737896 51447456 52047408 52526908 
1598.290 52879936 53104056 53198836 53164048 52998852 52703480 52281452 
1601.665 51743500 51108592 50405132 49668372 48932964 48229760 47580924 
1605.040 46998992 46490664 46061400 45717180 45465460 45311332 45254400 
1608.415 45286876 45396296 45571684 45807856 46107640 46479308 46930288 
1611.791 47460600 48059736 48706580 49376368 50042992 50681332 51272396 
1615.166 51802816 52272108 52696076 53113416 53576180 54127172 54791884 
1618.541 55566880 56426604 57330752 58235692 59105920 59914104 60652700 
1621.916 61333776 61987376 62648736 63346944 64096896 64895624 65729848 
1625.292 66584260 67447752 68313040 69176008 70037200 70902440 71786720 
1628.667 72713584 73714784 74821192 76052064 77410912 78882336 80438976 
1632.042 82042840 83659768 85267368 86855200 88431392 90020720 91665336 
1635.417 93408152 95285632 97321152 99509728 101832952 104262080 106763608 
1638.792 109297808 111823016 114308192 116730504 119085144 121382152 
1641.686 123631824 125830832 127954528 129948096 131740872 133263216 
1644.579 134457568 135302528 135821088 136090160 136219456 136332864 
1647.472 136545072 136929440 137517936 138300752 139234752 140238448 
1650.365 141183840 141907840 142196944 141851248 140800512 139255392 
1653.258 137698960 136599904 136153440 136230688 136569216 136913648 
1656.151 137098512 137048544 136750944 136235184 135542816 134706192 
1659.044 133732944 132608384 131305072 129796520 128067808 126122832 
1661.937 123986448 121708768 119362488 117030296 114789624 112690048 
1664.830 110737888 108893368 107074232 105171792 103063616 100641776 
1667.723 97838968 94650976 91146656 87454528 83733528 80128776 76744064 
1671.098 73630456 70789288 68181368 65735632 63361668 60967748 58493868 
1674.474 55950360 53442340 51147656 49236992 47808280 46851776 46285192 
1677.849 46002680 45922860 46008756 46262820 46707564 47359044 48207768 
1681.224 49223112 50372500 51647320 53089340 54793728 56882032 59420004 
1684.599 62371096 65608128 68987448 72427048 75914712 79477912 83139840 
1687.975 86891216 90685208 94427672 98011168 101348224 104385440 107117056 
1691.350 109568896 111776816 113764224 115528856 117035592 118229456 
1694.243 119053064 119484976 119575032 119458544 119307104 119226176 
1697.136 119202712 119093552 118678664 117690112 115903144 113255896 
1700.029 109966888 106512392 103377736 100817808 98774568 97016920 95271936 
1703.404 93328208 91064304 88454424 85561656 82509368 79439752 76458808 
1706.780 73619272 70924280 68347784 65850944 63390040 60923256 58415096 
1710.155 55846800 53221796 50569228 47933764 45355540 42864020 40465412 
1713.530 38147616 35895208 33703552 31586782 29574830 27698462 25973524 
1716.905 24392250 22937416 21599524 20390288 19342352 18485850 17827352 
1720.281 17341408 16976104 16668083 16365889 16041178 15699981 15373502 
1723.656 15102636 14912585 14800740 14737939 14685806 14615139 14514917 
1727.031 14392146 14260061 14124390 13975654 13792492 13553374 13251016 
1730.406 12897188 12515888 12125075 11722767 11278866 10747273 10090630 
1733.781 9320439 8510927 7771897 7186665 6773489 6492360 6276826 6065228 
1737.639 5815316 5516316 5185329 4858616 4569046 4330267 4132260 3953970 
1741.496 3777859 3602488 3440179 3308145 3215572 3156559 3112005 3060081 
1745.354 2989412 2903545 2819228 2755468 2722825 2714923 2712989 2693484 
1749.211 2642910 2564977 2478827 2407387 2364908 2349050 2344819 2336125 
1753.069 2315305 2287324 2264342 2258080 2271769 2297384 2318702 2322233 
1756.926 2304712 2277698 2259978 2267972 2305078 2360677 2414017 2445937 
1760.783 2448403 2430343 2413484 2419914 2460999 2530348 2609875 2679782 
1764.641 2729593 2760070 2780844 2803187 2832435 2864453 2888802 2894705 
1768.498 2880196 2853146 2827266 2812625 2808356 2800586 2768873 2697919 
1772.356 2588709 2461332 2343987 2258580 2208456 2180349 2152710 2107992 
1776.213 2039875 1956059 1871560 1800586 1747355 1703776 1653417 1581547 
1780.071 1484520 1372923 1266671 1182771 1128353 1095566 1068029 1028803 
1783.928 970486 897965 826054 769722 735568 718708 707324 689835 662390 
1788.268 630468 605714 598050 609364 630766 645134 638000 604553 554520 
1792.607 507313 481074 482102 503133 528842 545463 548283 542511 539359 
1796.947 548814 573431 606013 634084 645931 638133 618423 601501 600074 
1801.286 618622 650576 682932 704205 711141 709150 710079 723255 750504 
1805.626 784991 814502 828976 825457 810385 794452 788178 793688 804443 
1809.966 808560 796709 767233 728764 694447 674735 671582 677489 680244 
1814.305 669591 644338 612915 589655 586603 608070 647557 692091 728963 
1818.645 753325 769224 787149 815962 857759 905668 948336 975766 984500 
1822.984 979352 969888 965206 967895 972877 971449 957867 933327 906266 
1827.324 886112 879073 882327 885946 876450 846736 800261 750670 714526 
1831.664 701218 708884 726043 737892 733544 712336 682832 658939 651008 
1836.003 660897 680542 697501 702047 692888 677589 668231 673872 694879 
1840.343 722392 743003 745990 727835 693950 656019 625789 608269 600671 
1844.682 594865 585077 572602 564739 569118 589324 620712 653098 675199 
1849.022 681538 675033 667036 670222 691461 728333 769888 803116 819282 
1853.362 819216 811348 808095 816892 836611 858024 869777 865129 846272 
1857.701 823166 807730 807132 819548 834586 840097 829274 804643 777622 
1862.041 760959 763051 782369 809224 830735 838835 834287 826054 825058 
1866.380 837175 858987 878376 881331 859784 817589 769324 732946 718608 
1870.720 724881 739750 749243 743799 724284 698861 679514 673607 679812 
1875.060 688374 687744 670952 640588 607904 585840 583119 599012 623898 
1879.399 644703 653729 650676 644769 646661 663386 693186 727138 753790 
1883.739 765839 764976 759964 761988 777290 803116 829407 844612 841657 
1888.078 822203 797008 779116 777490 792128 814734 834121 844081 845176 
1892.418 844545 850388 866756 890827 914069 928579 931302 927882 929276 
1896.758 944684 976829 1018640 1057400 1080983 1084803 1073742 1060589 
1900.615 1058131 1071882 1096861 1121277 1132505 1124400 1101512 1075802 
1904.472 1060921 1063844 1081349 1102342 1114500 1110879 1094004 1073443 
1908.330 1060821 1061984 1073975 1086265 1088225 1074805 1049993 1024286 
1912.187 1007680 1004758 1011334 1017212 1012496 993433 964608 936449 918850 
1916.527 915198 919381 920842 909354 884020 852546 829341 824925 840595 
1920.866 866656 887739 890926 871968 839898 810219 798667 811448 842122 
1925.206 875753 898463 903676 896305 888536 892619 913272 944684 974338 
1929.546 989282 985762 970386 956904 958066 978024 1009441 1038867 1052850 
1933.885 1047336 1030132 1016249 1019304 1043450 1080485 1114035 1129383 
1937.743 1120712 1094237 1065106 1048864 1051554 1068560 1086464 1092377 
1941.600 1082146 1063777 1052484 1062847 1099120 1152770 1207424 1248859 
1945.458 1272386 1286244 1306217 1345834 1408889 1486315 1560896 1615136 
1949.315 1641876 1644736 1636887 1631366 1632729 1636388 1631765 1610979 
1953.172 1574730 1534394 1506132 1500745 1517370 1541477 1552550 1536423 
1957.030 1490937 1430264 1376645 1349789 1355373 1383526 1414340 1430762 
1960.887 1428934 1419327 1419061 1442165 1487579 1540280 1577623 1582245 
1964.745 1552151 1502707 1460383 1446021 1466234 1509988 1555642 1582844 
1968.602 1585970 1574065 1566217 1578754 1614437 1661067 1700516 1718147 
1972.459 1712724 1698787 1696924 1723768 1781821 1858982 1936090 2002060 
1976.317 2058851 2123741 2216515 2345752 2499388 2650944 2767306 2826899 
1980.174 2830801 2797985 2757369 2731294 2727259 2735061 2737896 2720824 
1984.032 2681649 2633176 2594442 2579742 2591375 2617542 2639843 2644310 
1987.889 2628376 2600908 2577909 2570276 2577709 2588842 2588309 2566310 
1991.747 2527015 2486291 2462598 2467863 2499388 2541646 2573410 2581442 
1995.604 2564377 2535681 2513318 2509719 2525282 2547745 2559611 2548745 
1999.461 2516784 2477161 2448803 2442838 2457733 2476861 2481126 2456800 
2003.319 2405854 2346518 2304445 2300781 2340655 2412384 2493423 2563610 
2007.176 2613542 2647644 2678782 2716923 2762404 2804321 2828600 2826766 
2011.034 2803587 2775576 2761537 2773775 2810557 2857182 2893538 2907281 
2014.891 2897807 2879829 2872091 2886967 2923759 2969262 3005827 3021475 
2018.749 3017939 3008129 3009564 3031218 3069357 3106999 3125921 3114274 
2022.606 3076332 3029116 2993516 2983707 2999121 3025713 3043464 3042229 
2026.463 3022443 2998921 2989679 3006461 3046066 3094185 3131195 3144778 
2030.321 3137702 3125655 3127724 3157861 3215772 3287646 3355257 3403677 
2034.178 3429893 3441214 3449330 3460418 3472976 3476951 3462355 3426686 
2038.036 3377563 3329313 3296927 3286444 3292487 3301568 3300132 3282404 
2041.893 3254895 3232663 3228991 3249988 3288280 3327410 3350215 3349147 
2045.750 3329113 3307043 3301568 3324739 3376294 3444253 3510787 3560393 
2049.608 3586418 3589358 3574257 3545661 3505509 3453739 3392390 3328245 
2053.465 3272856 3238438 3232095 3250656 3282037 3308713 3316926 3303271 
2057.323 3275493 3248052 3235567 3245682 3274392 3310783 3342135 3361568 
2061.180 3371419 3380902 3399202 3431229 3473678 3516065 3547198 3560861 
2065.038 3558189 3547031 3536274 3531497 3531330 3530596 3523547 3508983 
2068.895 3491881 3480659 3482629 3499965 3527088 3553311 3570583 3574257 
2072.752 3567977 3559859 3558489 3567309 3584480 3603624 3618692 3628983 
2076.610 3638706 3654945 3683481 3724017 3769136 3808342 3832410 3838260 
2080.467 3830404 3818571 3811384 3813691 3823251 3833212 3837357 3833212 
2084.325 3823719 3816031 3816298 3825524 3839563 3850027 3849391 3835118 
2088.182 3810916 3783608 3760880 3745573 3735280 3723883 3706773 3683448 
2092.040 3659756 3644286 3644887 3663499 3696079 3732539 3762719 3781402 
2095.897 3788488 3789257 3789457 3792666 3797813 3801290 3800287 3795106 
2099.754 3790159 3791296 3802359 3821880 3843475 3858752 3861794 3852133 
2103.612 3835652 3821111 3815863 3821981 3835184 3847553 3852300 3847285 
2107.469 3835853 3824454 3819039 3821546 3828064 3832109 3828165 3814760 
2111.327 3795541 3776455 3762351 3753527 3746175 3733976 3712588 3682847 
2115.184 3650066 3622568 3606130 3601252 3602154 3601085 3590494 3568444 
2119.042 3538579 3508349 3484433 3469837 3462355 3456277 3447426 3434802 
2122.899 3421276 3412126 3410757 3415432 3420107 3416067 3397900 3365542 
2126.756 3325874 3287779 3259169 3241642 3229558 3213669 3185230 3141240 
2130.614 3086643 3031585 2986576 2959253 2950546 2956551 2971797 2993416 
2134.471 3021075 3057111 3100792 3148115 3189502 3215672 3220646 3206159 
2138.329 3180958 3156660 3143209 3143176 3151319 3158395 3156860 3144744 
2142.186 3127323 3113974 3113306 3127790 3153956 3183661 3210398 3232262 
2146.043 3252692 3277931 3311050 3350549 3387882 3414363 3423447 3415733 
2149.901 3397365 3377964 3362403 3349314 3330983 3298029 3245481 3175951 
2153.758 3099057 3026847 2968995 2928129 2902244 2890769 2899675 2945309 
2157.616 3047701 3219577 3455609 3728796 3996103 4213586 4354095 4412769 
2161.473 4406777 4364470 4312363 4266619 4231185 4200773 4170295 4139619 
2165.331 4113895 4099345 4098375 4104831 4105065 4086669 4041651 3971892 
2169.188 3888773 3807239 3737619 3683281 3638973 3596675 3551775 3506845 
2173.045 3470705 3454807 3466363 3503171 3556117 3610406 3654510 3682512 
2176.903 3695211 3697082 3692036 3680641 3659957 3628482 3588790 3547966 
2180.760 3517234 3504808 3511655 3530128 3548400 3555182 3546930 3528357 
2184.618 3510921 3506578 3520341 3549035 3581941 3610072 3627847 3638906 
2188.475 3651938 3675762 3713423 3759844 3803295 3832544 3843374 3839697 
2192.333 3833312 3836321 3856412 3891280 3932504 3968315 3991221 4001186 
2196.190 4005198 4011519 4025330 4044862 4062018 4068005 4057437 4032387 
2200.047 4001119 3974802 3960055 3958016 3962931 3966910 3964871 3956511 
2203.905 3947717 3945611 3955508 3977243 4006603 4038507 4069310 4099513 
2207.762 4132527 4170931 4212783 4252934 4281543 4291214 4280003 4253335 
2211.620 4221783 4196691 4184379 4184814 4191806 4197126 4194684 4184279 
2215.477 4169592 4155475 4144570 4135036 4121723 4100148 4068942 4031451 
2219.334 3995701 3969151 3955040 3952298 3954639 3955542 3951094 3941799 
2223.192 3931033 3922841 3917993 3913212 3902915 3882955 3853135 3819039 
2227.049 3789357 3771709 3769136 3778828 3793067 3803429 3805100 3797680 
2230.907 3786349 3776890 3773447 3776556 3784076 3793401 3803630 3817133 
2234.764 3837858 3868045 3906860 3948754 3986740 4015365 4033056 4044192 
2238.622 4055497 4074260 4103192 4141024 4181836 4219976 4251830 4278364 
2242.479 4302625 4328493 4357208 4386460 4411865 4429271 4437539 4439179 
2246.336 4439246 4442326 4450226 4460904 4470144 4473659 4470077 4461139 
2250.194 4450895 4443330 4439715 4438610 4437238 4433254 4427363 4423212 
2254.051 4425355 4436300 4455046 4475869 4490867 4493947 4482966 4460536 
2257.909 4433154 4407179 4386427 4370528 4355635 4337128 4312497 4281944 
2261.766 4247814 4213653 4181636 4151896 4123797 4096770 4072086 4052587 
2265.624 4041885 4040949 4048440 4059543 4068875 4071985 4067972 4058708 
2269.481 4048240 4039644 4033123 4026501 4016669 4001186 3981222 3960791 
2273.338 3944808 3937486 3939459 3947985 3958384 3966175 3969719 3970254 
2277.196 3971291 3975337 3983697 3995166 4007372 4018609 4029143 4041885 
2281.053 4060280 4086301 4119448 4155943 4190535 4218371 4237074 4247480 
2284.911 4252332 4254975 4257785 4261098 4263875 4265314 4265414 4265414 
2288.768 4266820 4270199 4274282 4276758 4274750 4266619 4253134 4237375 
2292.625 4222954 4212850 4207798 4206125 4205256 4202679 4197761 4191605 
2296.483 4186420 4183576 4183242 4183677 4181970 4175714 4164307 4148550 
2300.340 4130855 4113561 4097372 4082220 4067270 4051818 4036668 4023391 
2304.198 4013960 4009144 4008342 4008977 4007841 4003058 3994230 3982794 
2308.055 3971190 3961226 3953502 3946581 3938455 3927154 3912376 3894991 
2311.913 3876403 3857983 3839630 3820142 3798181 3773080 3745506 3717734 
2315.770 3692170 3670082 3651002 3632859 3613213 3590494 3565137 3539782 
2319.627 3518069 3503271 3496791 3497092 3500733 3502804 3497660 3480625 
2323.485 3447660 3395863 3324572 3234899 3131495 3021108 2912518 2814459 
2327.342 2733194 2670980 2625709 2592442 2564844 2538947 2513618 2491023 
2331.200 2474461 2466930 2468929 2478827 2493922 2511818 2531781 2554711 
2335.057 2581409 2612209 2645510 2678081 2706721 2729060 2745531 2757869 
2338.915 2768873 2780444 2792416 2803221 2810824 2813992 2813459 2811825 
2342.772 2811725 2815993 2826098 2842641 2866688 2900509 2947210 3009564 
2346.629 3088445 3181058 3281035 3380234 3469937 3542287 3592264 3617656 
2350.487 3618358 3596240 3554213 3496023 3425551 3347678 3267381 3189636 
2354.344 3118313 3055042 2999422 2948778 2900543 2853146 2807022 2764405 
2358.202 2728393 2700419 2679915 2664213 2649977 2634943 2618675 2602809 
2362.059 2589175 2579342 2572843 2568243 2563777 2559244 2556344 2558444 
2365.917 2569377 2591175 2623875 2665179 2711822 2760470 2809857 2859450 
2369.774 2910083 2962723 3018005 3075898 3136835 3201452 3270553 3344505 
2373.631 3422545 3502436 3581674 3657284 3728262 3795574 3861894 3930464 
2377.489 4003426 4081116 4161330 4241457 4318721 4392117 4462043 4530373 
2381.346 4598480 4666999 4734591 4798877 4857744 4909817 4955595 4996686 
2385.204 5035065 5071905 5107676 5141606 5173224 5202599 5230868 5259609 
2389.061 5289928 5321860 5353894 5383481 5408173 5426995 5440046 5449038 
2392.918 5455614 5460916 5464607 5466150 5464506 5460144 5454339 5449172 
2396.776 5446656 5447327 5450380 5454172 5456923 5457661 5456822 5455514 
2400.633 5455111 5455547 5455782 5454172 5449709 5443133 5436691 5433839 
2404.491 5437697 5449474 5468331 5491081 5514067 5534404 5550646 5562896 
2408.348 5572260 5579845 5586121 5591089 5594949 5598372 5602970 5611059 
2412.206 5623949 5641605 5662685 5684539 5704883 5722475 5737718 5752055 
2416.063 5766929 5783282 5800272 5816458 5830293 5841476 5850880 5860249 
2419.920 5871769 5886412 5903810 5922317 5940120 5955941 5969781 5982379 
2423.778 5994976 6007978 6021147 6033478 6044296 6053603 6062272 6072150 
2427.635 6084683 6100409 6118656 6137743 6156126 6172796 6187819 6202002 
2431.493 6216052 6230068 6243244 6254472 6263077 6268926 6273262 6277498 
2435.350 6283179 6290609 6299349 6308527 6317638 6327051 6338146 6352166 
2439.208 6369953 6390766 6412825 6433708 6451464 6465892 6477865 6489569 
2443.065 6502652 6517889 6534774 6551794 6567335 6580992 6593137 6605180 
2446.922 6618133 6632767 6648547 6664629 6680107 6694744 6709079 6724053 
2450.780 6740307 6757706 6775542 6792404 6807617 6821114 6833332 6844742 
2454.637 6855682 6865511 6873052 6877462 6878573 6877529 6876048 6875812 
2458.495 6877664 6881030 6884329 6886248 6886315 6885642 6886719 6891903 
2462.352 6902642 6918095 6935972 6953344 6968024 6979203 6987856 6996207 
2466.209 7005669 7016815 7028500 7038973 7046886 7052073 7055844 7060593 
2470.067 7068541 7080598 7096259 7114008 7131994 7148971 7164668 7179793 
2473.924 7195120 7210987 7227259 7243229 7258323 7272507 7285951 7299531 
2477.782 7313615 7328072 7342629 7357019 7371275 7386575 7403865 7423885 
2481.639 7446873 7471379 7495751 7518607 7539442 7558997 7578924 7600470 
2485.497 7624242 7649432 7674186 7697321 7718637 7739515 7762149 7788764 
2489.354 7819732 7853841 7888188 7919400 7945181 7965293 7981493 7996308 
2493.211 8012509 8031275 8052405 8074649 8096523 8117656 8138047 8158540 
2497.069 8179473 8200543 8220533 8238092 8252275 8263216 8271795 8279900 
2500.926 8288882 8299284 8311106 8323940 8337619 8352549 8369505 8388929 
2504.784 8410785 8433791 8456325 8477037 8495349 8511805 8527923 8544954 
2508.641 8563203 8581756 8599160 8613897 8625489 8634986 8644585 8656686 
2512.499 8672776 8693024 8715876 8739540 8762226 8783357 8803036 8822242 
2516.356 8841482 8861029 8880541 8900123 8920077 8941520 8966246 8995201 
2520.213 9028455 9064858 9102042 9138349 9172527 9204915 9236559 9269188 
2524.071 9302869 9337366 9371120 9402675 9431388 9457937 9483945 9510869 
2527.928 9539488 9569498 9599645 9628371 9654627 9678681 9701484 9724355 
2531.786 9748007 9772778 9798060 9823918 9850321 9878319 9909301 9944015 
2535.643 9981986 10021961 10061669 10099515 10134888 10168568 10201471 
2539.018 10234987 10269014 10302196 10332597 10358421 10379664 10397684 
2542.394 10415569 10435831 10459997 10488000 10517735 10546998 10573920 
2545.769 10598196 10620231 10641997 10664171 10686787 10708929 10729272 
2549.144 10746866 10761368 10773562 10784261 10793806 10802230 10808786 
2552.519 10813135 10815614 10817449 10820302 10825533 10833245 10842179 
2555.895 10850434 10856108 10858282 10857568 10855836 10854885 10855836 
2559.270 10858452 10861441 10863038 10862392 10859437 10855360 10851488 
2562.645 10848531 10846595 10844319 10840311 10833721 10824583 10813644 
2566.020 10801992 10790681 10779303 10767720 10755322 10742178 10729340 
2569.396 10718268 10710389 10705872 10704004 10702612 10699794 10693952 
2572.771 10685191 10674221 10662744 10652184 10643083 10635035 10627192 
2576.146 10618330 10607668 10594563 10579115 10560985 10540073 10516955 
2579.521 10492242 10467566 10444927 10426124 10412209 10402842 10396428 
2582.896 10391100 10385196 10378476 10371282 10365208 10361339 10359982 
2586.272 10360457 10361101 10361000 10359948 10359269 10360966 10367413 
2589.647 10380275 10399313 10423171 10449543 10476288 10502086 10526154 
2593.022 10548628 10569812 10589911 10608993 10627226 10644747 10662302 
2596.397 10680606 10699895 10720442 10741295 10762183 10782733 10803419 
2599.773 10825296 10849653 10877545 10909108 10943664 10979752 11015979 
2603.148 11051189 11085111 11117538 11148677 11178153 11205862 11231464 
2606.523 11255301 11278050 11301107 11325559 11351882 11379978 11408652 
2609.898 11436580 11463081 11488291 11513060 11538545 11565698 11594113 
2613.274 11622665 11649620 11673615 11694174 11711942 11728248 11744621 
2616.649 11762052 11780504 11799195 11817444 11834707 11851051 11867089 
2620.024 11883604 11901245 11919941 11939864 11961014 11983597 12008189 
2623.399 12035270 12064805 12096285 12128278 12159557 12189373 12217455 
2626.775 12244855 12272803 12302388 12333851 12366714 12399886 12432344 
2630.150 12463543 12493551 12523288 12553164 12583314 12613024 12641541 
2633.525 12667842 12692099 12714650 12737066 12761020 12787329 12816199 
2636.900 12847289 12879132 12910705 12941290 12970239 12997584 13023498 
2640.276 13047910 13070754 13092540 13113439 13133929 13154591 13175460 
2643.651 13196294 13216515 13235610 13253168 13269327 13284563 13299903 
2647.026 13316097 13333898 13353270 13374456 13397248 13421647 13447313 
2650.401 13474177 13501759 13529104 13555357 13579902 13602774 13624586 
2653.777 13646400 13669138 13693689 13719679 13746217 13772107 13796254 
2657.152 13818008 13837916 13856525 13874656 13893163 13912048 13930763 
2660.527 13948931 13965799 13980649 13993106 14002892 14009839 14014014 
2663.902 14015999 14016580 14017162 14018805 14022158 14027360 14033143 
2667.278 14038105 14040604 14039885 14035676 14029071 14021611 14014288 
2670.653 14007922 14002071 13995980 13988691 13979658 13969050 13957382 
2674.028 13945647 13934492 13923920 13913759 13903597 13892958 13882216 
2677.403 13871645 13861861 13853343 13846262 13839968 13833879 13827449 
2680.779 13819855 13810927 13800769 13789686 13778263 13766908 13756682 
2684.154 13748133 13741566 13737154 13734350 13732264 13729870 13726553 
2687.529 13721731 13715780 13709556 13703914 13699537 13696938 13695571 
2690.904 13695023 13694476 13693450 13691672 13689416 13686988 13684765 
2694.280 13683192 13682815 13683978 13687227 13692937 13701008 13711096 
2697.655 13722654 13735102 13747722 13760478 13773817 13788045 13803950 
2701.030 13821770 13841610 13862853 13885226 13908148 13931481 13955330 
2704.405 13979726 14005185 14031911 14060693 14091942 14126374 14164508 
2707.781 14206308 14251160 14297556 14343787 14387898 14429069 14467127 
2711.156 14503337 14539139 14576280 14615722 14657770 14701846 14747092 
2714.531 14792718 14838384 14884192 14930794 14978773 15028677 15080680 
2717.906 15135023 15191567 15250282 15310995 15373056 15435880 15498439 
2721.281 15560355 15621420 15682563 15744848 15809309 15876835 15946848 
2724.657 16018109 16088592 16156266 16220167 16279915 16336506 16391350 
2728.032 16445925 16501231 16557574 16614787 16672317 16729752 16786780 
2731.407 16843094 16898588 16952778 17005150 17055184 17102536 17147068 
2734.782 17188776 17227696 17263862 17297032 17326996 17353928 17378068 
2738.158 17400554 17422282 17444424 17467742 17492164 17517484 17543464 
2741.533 17569718 17596286 17623200 17650702 17678584 17706332 17733046 
2744.908 17758242 17781162 17802150 17821346 17839228 17855696 17870610 
2748.283 17883316 17893398 17900754 17905552 17908694 17911112 17913390 
2751.659 17916290 17919812 17923922 17928410 17933246 17938426 17943708 
2755.034 17948990 17953688 17957348 17959560 17960422 17960110 17959110 
2758.409 17958072 17957106 17956382 17955726 17955000 17954620 17955034 
2761.784 17956624 17960146 17965258 17971576 17978242 17984562 17990122 
2765.160 17995198 18000308 18006214 18013674 18022828 18033708 18045970 
2768.535 18059302 18073670 18089318 18106382 18125246 18146078 18168706 
2771.910 18192892 18218632 18245344 18272402 18299220 18324208 18346500 
2775.285 18365510 18380720 18393404 18405056 18417742 18433332 18452970 
2778.661 18476688 18503864 18533496 18564168 18595154 18625832 18656198 
2782.036 18686360 18716490 18746898 18777966 18809936 18843568 18879592 
2785.411 18918286 18959714 19003502 19049266 19096144 19143684 19191472 
2788.786 19239300 19286892 19334174 19380632 19426334 19470896 19514770 
2792.162 19557920 19600762 19643226 19685038 19725882 19765168 19803140 
2795.537 19840008 19876322 19912812 19949514 19985804 20021228 20054608 
2798.912 20085736 20114712 20142582 20170452 20199540 20230330 20262822 
2802.287 20296500 20330664 20365006 20399350 20434184 20469958 20507020 
2805.663 20545404 20584904 20625694 20667424 20710378 20754376 20799006 
2809.038 20843256 20886330 20927008 20964942 21000830 21035746 21071674 
2812.413 21110248 21152758 21198854 21248364 21300004 21353110 21407304 
2815.788 21462548 21519506 21578386 21639398 21702614 21767546 21834020 
2819.164 21901932 21970938 22040684 22110582 22179968 22248250 22314972 
2822.539 22380554 22446040 22512478 22580776 22651494 22724180 22797680 
2825.914 22871122 22943704 23015494 23087122 23159354 23232928 23308088 
2829.289 23384414 23461068 23537318 23612948 23688174 23763272 23838838 
2832.665 23915152 23991972 24068978 24146140 24223698 24302534 24383766 
2836.040 24468204 24556516 24648352 24742628 24838116 24934082 25029824 
2839.415 25126290 25224952 25328098 25438332 25558362 25690482 25837130 
2842.790 26000292 26182238 26385596 26613284 26868198 27153666 27471616 
2846.166 27822830 28205474 28614328 29039612 29468044 29883272 30265640 
2849.541 30596652 30859002 31038724 31128098 31125000 31034346 30866116 
2852.916 30634872 30358658 30055096 29742204 29435708 29147532 28887204 
2856.291 28660374 28469816 28315910 28196634 28108676 28047456 28007766 
2859.667 27985078 27975606 27977090 27988858 28011300 28045830 28093546 
2863.042 28155198 28231108 28320472 28422586 28536758 28663064 28801408 
2866.417 28951978 29115040 29290354 29477230 29674792 29881460 30095330 
2869.792 30313816 30533338 30749768 30957588 31151662 31327694 31482388 
2873.167 31614934 31726558 31820816 31902290 31976432 32048020 32121542 
2876.543 32199900 32284942 32377214 32476644 32582246 32693296 32808990 
2879.918 32929360 33054732 33185862 33323400 33467748 33618372 33773700 
2883.293 33931096 34086864 34236912 34376972 34502404 34609860 34696560 
2886.668 34761672 34806148 34832748 34847072 34855148 34864268 34881972 
2890.044 34914396 34967720 35047816 35160256 35312724 35514364 35776208 
2893.419 36112024 36536432 37064048 37708408 38478864 39377176 40394604 
2896.794 41508836 42681932 43857476 44970496 45946504 46711768 47208164 
2900.169 47395556 47260988 46819112 46110660 45194908 44136288 43003928 
2903.545 41858528 40747040 39706712 38760476 37920780 37192644 36575288 
2906.920 36065112 35656128 35342268 35117824 34977416 34917340 34934216 
2910.295 35024932 35186232 35413404 35699692 36037212 36415600 36823492 
2913.670 37248956 37679460 38102216 38505440 38877216 39207276 39488056 
2917.046 39714332 39884576 40001324 40069668 40096560 40088856 40052808 
2920.421 39991808 39907348 39798864 39665504 39507036 39325336 39124528 
2923.796 38911748 38696176 38487588 38296504 38132460 38002940 37913188 
2927.171 37865864 37860616 37894420 37961676 38055848 38169104 38293432 
2930.547 38421556 38545808 38659520 38755656 38827064 38867068 38869096 
2933.922 38827680 38739176 38602084 38417248 38187668 37918428 37616336 
2937.297 37288600 36943788 36590388 36236700 35891216 35561468 35254144 
2940.672 34974940 34728216 34516504 34340932 34200420 34092024 34010816 
2944.048 33950800 33904624 33864428 33823060 33773988 33712036 33634088 
2947.423 33538938 33427808 33303938 33172094 33038248 32907412 32783940 
2950.798 32669648 32564316 32465220 32368824 32271664 32170888 32065354 
2954.173 31955246 31841602 31725526 31607486 31487056 31363166 31234720 
2957.549 31100830 30961540 30817668 30670750 30522068 30372798 30223544 
2960.924 30074484 29925192 29775702 29625730 29475526 29325518 29176162 
2964.299 29028170 28882564 28740230 28602400 28470560 28345902 28229872 
2967.674 28123772 28028652 27945746 27876068 27821452 27783584 27764544 
2971.050 27766558 27791426 27840280 27912814 28006810 28118434 28240904 
2974.425 28365674 28483154 28582370 28653188 28686778 28676442 28618858 
2977.800 28514184 28366698 28183518 27974900 27753382 27531168 27319970 
2981.175 27129856 26967470 26835982 26735296 26662430 26611770 26576368 
2984.551 26549174 26523040 26492152 26452252 26400982 26338488 26266182 
2987.926 26187552 26106720 26027592 25953930 25887808 25830484 25781644 
2991.301 25740438 25705670 25676106 25650692 25629180 25611606 25598356 
2994.676 25589992 25587214 25590308 25599198 25613328 25631922 25653818 
2998.052 25678144 25704262 25732070 25761534 25793002 25826616 25862274 
3001.427 25899942 25939296 25980276 26023054 26067594 26113758 26161158 
3004.802 26208950 26256220 26302264 26346830 26390418 26434116 26479370 
3008.177 26527160 26578058 26631568 26686564 26741710 26795908 26848318 
3011.552 26899042 26948222 26996524 27044338 27092084 27139804 27187844 
3014.928 27236740 27287120 27339658 27394816 27453014 27514082 27578088 
3018.303 27644468 27713402 27784748 27858546 27935110 28014268 28096446 
3021.678 28181680 28269936 28361394 28455630 28551868 28648940 28745362 
3025.053 28839648 28930694 29018004 29101718 29182330 29260228 29335266 
3028.429 29406810 29473790 29535248 29591038 29641658 29688808 29734364 
3031.804 29779782 29825704 29871558 29915786 29956466 29991862 30021436 
3035.179 30045618 30066034 30084818 30104100 30126048 30152152 30183514 
3038.554 30220846 30264222 30313248 30366830 30423296 30480944 30537780 
3041.930 30592884 30645540 30696388 30746424 30797072 30849220 30903542 
3045.305 30960258 31019116 31079866 31142798 31207804 31275276 31345214 
3048.680 31417410 31491294 31566400 31642374 31719324 31797640 31878114 
3052.055 31961094 32046594 32133960 32221918 32309606 32396100 32481146 
3055.431 32565314 32649540 32734704 32821640 32910344 33000566 33091418 
3058.806 33182144 33271708 33359502 33444914 33527054 33605592 33680024 
3062.181 33750352 33816968 33880872 33942880 34004260 34065288 34126180 
3065.556 34186076 34244192 34299804 34353016 34404588 34455808 34508536 
3068.932 34564364 34624248 34688628 34757576 34830668 34907716 34988516 
3072.307 35072992 35161224 35253316 35348988 35448204 35550752 35656956 
3075.682 35766892 35880528 35997936 36118220 36240520 36363496 36486264 
3079.057 36607908 36728936 36850184 36972796 37098080 37226932 37359332 
3082.433 37494840 37632052 37769560 37905884 38039972 38171352 38300452 
3085.808 38428256 38556204 38685924 38818224 38953212 39089688 39225880 
3089.183 39359108 39487148 39608584 39723448 39833072 39939640 40045652 
3092.558 40153360 40263932 40377732 40494504 40614152 40736812 40863368 
3095.934 40994656 41132216 41276304 41427036 41583252 41743720 41907204 
3099.309 42072648 42239872 42409348 42581416 42757028 42936476 43119980 
3102.684 43307636 43499288 43694540 43893220 44094772 44298328 44503080 
3106.059 44707676 44910672 45110536 45305484 45493640 45672936 45841400 
3109.435 45997336 46139544 46267428 46381116 46481112 46568412 46643144 
3112.810 46705644 46755492 46791916 46814388 46823024 46818488 46802136 
3116.185 46775532 46740216 46697160 46646576 46588072 46521052 46444904 
3119.560 46359364 46264552 46161324 46050860 45934612 45814228 45691524 
3122.936 45568260 45445848 45325456 45208072 45094284 44984904 44880988 
3126.311 44783484 44693864 44613664 44543868 44484984 44436864 44398620 
3129.686 44368856 44346212 44329664 44318656 44312932 44312856 44319096 
3133.061 44331904 44351684 44378692 44412564 44452976 44499156 44550440 
3136.437 44605700 44664304 44725744 44789656 44856036 44925004 44996552 
3139.812 45070356 45146232 45223440 45301732 45380552 45459792 45539668 
3143.187 45620744 45703448 45788308 45875388 45964884 46056280 46149088 
3146.562 46242440 46335880 46428824 46521088 46612860 46704428 46796380 
3149.938 46888908 46982008 47075572 47168752 47261244 47351768 47440348 
3153.313 47526952 47611576 47694880 47777024 47858404 47939428 48020280 
3156.688 48101596 48183740 48267160 48352184 48438820 48526660 48614964 
3160.063 48703244 48791172 48878492 48965348 49051768 49137656 49222556 
3163.438 49305616 49386060 49463248 49537292 49608492 49677804 49745980 
3166.814 49813980 49882064 49950680 50020012 50090324 50162504 50236744 
3170.189 50313264 50391552 50470480 50548604 50625108 50699464 50772456 
3173.564 50845200 50919180 50995264 51073296 51151980 51229484 51303792 
3176.939 51374088 51440328 51503484 51565340 51626984 51688820 51750632 
3180.315 51811180 51869532 51925284 51978460 52030116 52081440 52133180 
3183.690 52185636 52238620 52291576 52343788 52395264 52446072 52496284 
3187.065 52546204 52595308 52643180 52689304 52733220 52774940 52815124 
3190.440 52854268 52893036 52931700 52969912 53007200 53042952 53076796 
3193.816 53108700 53138992 53167752 53195088 53220896 53245164 53267868 
3197.191 53289292 53309932 53330352 53351140 53372424 53393664 53414500 
3200.566 53434324 53452272 53468796 53484128 53499116 53514896 53532436 
3203.941 53552564 53575988 53602644 53631808 53662212 53691756 53718116 
3207.317 53739412 53754268 53762852 53767016 53769300 53772824 53780180 
3210.692 53792592 53809432 53828748 53847724 53863964 53875632 53882872 
3214.067 53886624 53888836 53891684 53896560 53904140 53914380 53926496 
3217.442 53939704 53953472 53967428 53981876 53997032 54013428 54031740 
3220.818 54051852 54073580 54096584 54120080 54143464 54166056 54187752 
3224.193 54209000 54230096 54251836 54274624 54298612 54323208 54348028 
3227.568 54372324 54396024 54419608 54443980 54470500 54500328 54534020 
3230.943 54572004 54613636 54658236 54704612 54751212 54796432 54838948 
3234.319 54877484 54911624 54941744 54969116 54996192 55025376 55058660 
3237.694 55096992 55139648 55184948 55230812 55275216 55317364 55357900 
3241.069 55398288 55440372 55485440 55533744 55584544 55636324 55687436 
3244.444 55737236 55785908 55833988 55882632 55932456 55983452 56035016 
3247.820 56086364 56137036 56186888 56236444 56286040 56336208 56386608 
3251.195 56436412 56484412 56529960 56572424 56612056 56649652 56685932 
3254.570 56721572 56756728 56791088 56824396 56856348 56887020 56916516 
3257.945 56944808 56971596 56996152 57017652 57035520 57049692 57060800 
3261.321 57070096 57079432 57089784 57101648 57114496 57127160 57137740 
3264.696 57144656 57147148 57145148 57139440 57131352 57122548 57113968 
3268.071 57106296 57099040 57091144 57080636 57065372 57043268 57012700 
3271.446 56973220 56925584 56871380 56813372 56753896 56694992 56637952 
3274.822 56582464 56527772 56472412 56415588 56356432 56295092 56232372 
3278.197 56168860 56105704 56043120 55981188 55920056 55859272 55798756 
3281.572 55738552 55678772 55619528 55561384 55504600 55449672 55396972 
3284.947 55346380 55297796 55250832 55204848 55159552 55115012 55071752 
3288.323 55030608 54992208 54956936 54923992 54892636 54861280 54828836 
3291.698 54794776 54759784 54724832 54691380 54660264 54631860 54605068 
3295.073 54578920 54551904 54523916 54495292 54467272 54441728 54420508 
3298.448 54404324 54393508 54387948 54386708 54389524 54396324 54407324 
3301.823 54423176 54444512 54471140 54502768 54538380 54576364 54614536 
3305.199 54650756 54682964 54709308 54729264 54743284 54753020 54760648 
3308.574 54768840 54779632 54794252 54812336 54833084 54855752 54879816 
3311.949 54905720 54934976 54969080 55009468 55056256 55108200 55163352 
3315.324 55219264 55274124 55327188 55378640 55429792 55481596 55535024 
3318.700 55590116 55646116 55702052 55757128 55810776 55862852 55913196 
3322.075 55961928 56008440 56052172 56092396 56127952 56158604 56183568 
3325.450 56202500 56215472 56222224 56223208 56219432 56211968 56202576 
3328.825 56192580 56183004 56173764 56164452 56153776 56140128 56122636 
3332.201 56100388 56072828 56039992 56001692 55958008 55908976 55854896 
3335.576 55796196 55733356 55666456 55595424 55519212 55436460 55345932 
3338.951 55246956 55139840 55025680 54906244 54782864 54656244 54525984 
3342.326 54390612 54248908 54099664 53942928 53779276 53610928 53439828 
3345.702 53267712 53096192 52926084 52758252 52593288 52432124 52275132 
3349.077 52122380 51973416 51826600 51680088 51532356 51382404 51230228 
3352.452 51076876 50924024 50773536 50626600 50484176 50346788 50214836 
3355.827 50088652 49969080 49856720 49752224 49655292 49564888 49479360 
3359.203 49396712 49315268 49234244 49153944 49075360 49000356 48930556 
3362.578 48866960 48810232 48760184 48716180 48677560 48643792 48614592 
3365.953 48589652 48567828 48548300 48528960 48507952 48483348 48454232 
3369.328 48420524 48383040 48343516 48303040 48262752 48222724 48182332 
3372.704 48140092 48095232 48046484 47993488 47935948 47873272 47804100 
3376.079 47726908 47639120 47538336 47422904 47291688 47144560 46982156 
3379.454 46804944 46613376 46407512 46187228 45952140 45702604 45439412 
3382.829 45163696 44877352 44582012 44279104 43970132 43656176 43338572 
3386.205 43018888 42699044 42380968 42066660 41757252 41453024 41153052 
3389.580 40854920 40555544 40251936 39941564 39623648 39299580 38972600 
3392.955 38646556 38326040 38014328 37712492 37420040 37135072 36855160 
3396.330 36578672 36304704 36033968 35767324 35505336 35247352 34991172 
3399.706 34733600 34471232 34201276 33923356 33637988 33348054 33056628 
3403.081 32766576 32480146 32198008 31919620 31644012 31370148 31097484 
3406.456 30825564 30554668 30285288 30017602 29751644 29487372 29224572 
3409.831 28963384 28704086 28447138 28193240 27943096 27697332 27456122 
3413.207 27219842 26988448 26762148 26541320 26326202 26116996 25913552 
3416.582 25715406 25521148 25329294 25138226 24946224 24752728 24557604 
3419.957 24361898 24167508 23976530 23791062 23612948 23443058 23281100 
3423.332 23126400 22976926 22830610 22685672 22540606 22394822 22248772 
3426.708 22103294 21959680 21819002 21681958 21548578 21418062 21289356 
3430.083 21160654 21031120 20899506 20765636 20629552 20492152 20354866 
3433.458 20219082 20086532 19958084 19834736 19715930 19600968 19488396 
3436.833 19376996 19265692 19154002 19042376 18930536 18819104 18707806 
3440.208 18596226 18484328 18372320 18260894 18151640 18046038 17944642 
3443.584 17847272 17751720 17654808 17553260 17444942 17329134 17207910 
3446.959 17085134 16965388 16852910 16750069 16656961 16571999 16492419 
3450.334 16415058 16337711 16258795 16177554 16094094 16008345 15920451 
3453.709 15830476 15738904 15646597 15554791 15464824 15378136 15295035 
3457.085 15215588 15138660 15062808 14986489 14908264 14827516 14743766 
3460.460 14657908 14570730 14483946 14399475 14318753 14242976 14172792 
3463.835 14107959 14047038 13988657 13931070 13872773 13813117 13751929 
3467.210 13689416 13626022 13562262 13497896 13433267 13367997 13302499 
3470.586 13237420 13173581 13111698 13052656 12996662 12943134 12891795 
3473.961 12841317 12790604 12739114 12686333 12632092 12577209 12522504 
3477.336 12469135 12418263 12370600 12325908 12283778 12242571 12200551 
3480.711 12156695 12110901 12064328 12019601 11979713 11946880 11921951 
3484.087 11904071 11890177 11876896 11860517 11839270 11812610 11782240 
3487.462 11750817 11721746 11697476 11679606 11668714 11664188 11664766 
3490.837 11669497 11676713 11685188 11693663 11701288 11707551 11712555 
3494.212 11717661 11724128 11734307 11749558 11770937 11799024 11833414 
3497.588 11873559 11918919 11969359 12024472 12083883 12146847 12212104 
3500.963 12277915 12343362 12408239 12473159 12540033 12611454 12689881 
3504.338 12776819 12873193 12978602 13091549 13210777 13334410 13460984 
3507.713 13589406 13718653 13848554 13979555 14112307 14248249 14388515 
3511.089 14533554 14683303 14836739 14992457 15148780 15305161 15460978 
3514.464 15616475 15772128 15927428 16081819 16233994 16382439 16525840 
3517.839 16663194 16793944 16916950 17031028 17133900 17222456 17293998 
3521.214 17346236 17377688 17389276 17382068 17358238 17319306 17266172 
3524.590 17198118 17113944 17012042 16890732 16749967 16590519 16414026 
3527.965 16223881 16023267 15814910 15601706 15385482 15167446 14948901 
3531.340 14730432 14512347 14294474 14075547 13853617 13626467 13392122 
3534.715 13149980 12901558 12650342 12400704 12158296 11926616 11707312 
3538.091 11499484 11300835 11107680 10917195 10727337 10538171 10350718 
3541.466 10166839 9987988 9815412 9649003 9487568 9329512 9172256 9013874 
3545.323 8853588 8691536 8530356 8373728 8225834 8090514 7969175 7860926 
3549.181 7762047 7667340 7571472 7469862 7361063 7246059 7128693 7014020 
3553.038 6906446 6809165 6722337 6644577 6572953 6504738 6437340 6369684 
3556.896 6300963 6231379 6161167 6090228 6018796 5947208 5875866 5805880 
3560.753 5739229 5677556 5622807 5576321 5538129 5506551 5478028 5446891 
3564.610 5405959 5348527 5269469 5167390 5046227 4915514 4788123 4676176 
3568.468 4588668 4528397 4492474 4473692 4463214 4453138 4437472 4412501 
3572.325 4378561 4337362 4291883 4245706 4201375 4160326 4123061 4088843 
3576.183 4056132 4023692 3990418 3955274 3918260 3879813 3840332 3801022 
3580.040 3762953 3726958 3694342 3666573 3644453 3629250 3620931 3618324 
3583.897 3618224 3616587 3607132 3584046 3542822 3481527 3403343 3314989 
3587.755 3226754 3149250 3090581 3054141 3038792 3040060 3051372 3065453 
3591.612 3077132 3081470 3075964 3060081 3034788 3002891 2968194 2934934 
3595.470 2906981 2886834 2875493 2871491 2872358 2873992 2872725 2865520 
3599.327 2851178 2830401 2806122 2782378 2762904 2750666 2747032 2751267 
3603.185 2761437 2774742 2788314 2798518 2802487 2796684 2777676 2743431 
3607.042 2693251 2629576 2558078 2487058 2425679 2380999 2355480 2346785 
3610.899 2349450 2356013 2359144 2355546 2344620 2329695 2316038 2308043 
3614.757 2309009 2317636 2330561 2342054 2346119 2337224 2311374 2268838 
3618.614 2213018 2150679 2091112 2043138 2012645 2001527 2007985 2026959 
3622.472 2053059 2081590 2110389 2140123 2173322 2211619 2254882 2298050 
3626.329 2331561 2342021 2315738 2243825 2129668 1991242 1855954 1752944 
3630.187 1698653 1693198 1724766 1776332 1831164 1876818 1906469 1918650 
3634.044 1916354 1904506 1888066 1870529 1853225 1836754 1821215 1807473 
3637.901 1797359 1792534 1793699 1800020 1809636 1819851 1828236 1833926 
3641.759 1837719 1842211 1850496 1865338 1888366 1919382 1956292 1994637 
3645.616 2029156 2053458 2061248 2047233 2007952 1943445 1857018 1756603 
3649.474 1653883 1562060 1494561 1461613 1466933 1507794 1575894 1658606 
3653.331 1741134 1809237 1851195 1859414 1833393 1780856 1716250 1656477 
3657.188 1614770 1596911 1601600 1621555 1647630 1672875 1692034 1703377 
3661.046 1707801 1707369 1704641 1701947 1700915 1702811 1709132 1721107 
3664.903 1739537 1764521 1794531 1826139 1854190 1871527 1870229 1844008 
3668.761 1790239 1713124 1625812 1548726 1501610 1498152 1539049 1613440 
3672.618 1700882 1776598 1817022 1803148 1728459 1604227 1461580 1338754 
3676.476 1263813 1246101 1275311 1331509 1394229 1449778 1491735 1521160 
3680.333 1543638 1565286 1589927 1618428 1648993 1679527 1709464 1739869 
3684.190 1772805 1809270 1846936 1880212 1900812 1900080 1871960 1816424 
3688.048 1740701 1656909 1578853 1516472 1473482 1447983 1435682 1432757 
3691.905 1437477 1449379 1468196 1492267 1518700 1543705 1563723 1577490 
3695.763 1585804 1592089 1600536 1614072 1633528 1656477 1678696 1694263 
3699.620 1698487 1688608 1665191 1632364 1596146 1563922 1542341 1535093 
3703.478 1543405 1565751 1598574 1637219 1678064 1717182 1752478 1783052 
3707.335 1809137 1830698 1847768 1858749 1860479 1849764 1823477 1780490 
3711.192 1724001 1660934 1600237 1551519 1521526 1512349 1522224 1546165 
3715.050 1577623 1610646 1640446 1663595 1679195 1687976 1691868 1692466 
3718.907 1692167 1691402 1690105 1688109 1684616 1680192 1676168 1673740 
3722.765 1674072 1677032 1680758 1682221 1678030 1666222 1647696 1626510 
3726.622 1609948 1606256 1621754 1657940 1711360 1774169 1835356 1883540 
3730.479 1911129 1914224 1895620 1863374 1827670 1795762 1769678 1744527 
3734.337 1711959 1665823 1605258 1537886 1476807 1436646 1425576 1444592 
3738.194 1487679 1546963 1615269 1688408 1765186 1844707 1923609 1993804 
3742.052 2041274 2048797 2001061 1893857 1744094 1588398 1473715 1431560 
3745.909 1465603 1555875 1671577 1782686 1864073 1901511 1891261 1841213 
3749.767 1766916 1686413 1614338 1558369 1521194 1503571 1506231 1529905 
3753.624 1572801 1630734 1695859 1758632 1811266 1847834 1866070 1867933 
3757.481 1857318 1838451 1814627 1787910 1760329 1735944 1720409 1719211 
3761.339 1735711 1769112 1812597 1856453 1890096 1905771 1901145 1880778 
3765.196 1853491 1830199 1818121 1817721 1823710 1827437 1820550 1798556 
3769.054 1762591 1718945 1677531 1647563 1634293 1638749 1657841 1686446 
3772.911 1719510 1752877 1783817 1811533 1836288 1858949 1880146 1899814 
3776.769 1916054 1925606 1925007 1911528 1885537 1851095 1815825 1788242 
3780.626 1774968 1777762 1793300 1814627 1832994 1841479 1836920 1820916 
3784.483 1798224 1775400 1758200 1749317 1748419 1753309 1761028 1769511 
3788.341 1777796 1785115 1791303 1795928 1798789 1800353 1802516 1807773 
3792.198 1818786 1836088 1857717 1878449 1892026 1892758 1878582 1852792 
3796.056 1824143 1804346 1803314 1824908 1865204 1913591 1954695 1972502 
3799.913 1955027 1898216 1809769 1708932 1622253 1572070 1569010 1609183 
3803.771 1677265 1753775 1817522 1851694 1847568 1806076 1739869 1669848 
3807.628 1617963 1597144 1609648 1647264 1698188 1751513 1800586 1844440 
3811.485 1886302 1929866 1976063 2021034 2055455 2067674 2047033 1990210 
3815.343 1904606 1810667 1733615 1693897 1699751 1744427 1810468 1874755 
3819.200 1916154 1918850 1877184 1798224 1703044 1619326 1569576 1564188 
3823.058 1598773 1660003 1730122 1793100 1838517 1861844 1865970 1858815 
3826.915 1851395 1852659 1866536 1891627 1922078 1950468 1970338 1978160 
3830.772 1974332 1963215 1950301 1941348 1940350 1947772 1962183 1979658 
3834.630 1995336 2004223 2001827 1985017 1952964 1907701 1854756 1801917 
3838.487 1757202 1726463 1711327 1710529 1719145 1731885 1744128 1752378 
3842.345 1755372 1753908 1750216 1747521 1749284 1758699 1777762 1806841 
3846.202 1845006 1889730 1938819 1989743 2041640 2094841 2150146 2206857 
3850.060 2261777 2306711 2328363 2310908 2239395 2107959 1927969 1731519 
3853.917 1559367 1445356 1401775 1420158 1480530 1561794 1647995 1729623 
3857.774 1802383 1865504 1920081 1966211 2003624 2031487 2048731 2055189 
3861.632 2051793 2039143 2017472 1986715 1947372 1902476 1859248 1827404 
3865.489 1816523 1832195 1872059 1926105 1978094 2011413 2012179 1975264 
3869.347 1907734 1828502 1761261 1723369 1720309 1744094 1780424 1813263 
3873.204 1832495 1835423 1827703 1819851 1823078 1844241 1883474 1935257 
3877.062 1990276 2038311 2070936 2081989 2069871 2038211 1996035 1955094 
3880.919 1927935 1923842 1945275 1987280 2038444 2084819 2111322 2107393 
3884.776 2070437 2008650 1939751 1884505 1859714 1871228 1913059 1971104 
3888.634 2028790 2070537 2085751 2070770 2029955 1974332 1917785 1872825 
3892.491 1846969 1842178 1855554 1882375 1918118 1958922 2001460 2043171 
3896.349 2081224 2112421 2133664 2142687 2138958 2124674 2104163 2082089 
3900.206 2063212 2049197 2038610 2027658 2011081 1985217 1949669 1907601 
3904.063 1865803 1832561 1814560 1814860 1832528 1863374 1901677 1942014 
3907.921 1979858 2013011 2040508 2062180 2078926 2091711 2102299 2112221 
3911.778 2124174 2139724 2159903 2183512 2207590 2227172 2237131 2233800 
3915.636 2216182 2186976 2151578 2116882 2088548 2069571 2059783 2056954 
3919.493 2058518 2062447 2068206 2076396 2087316 2100201 2113086 2122975 
3923.351 2127570 2125939 2120012 2112887 2109157 2111988 2122043 2137726 
3927.208 2155774 2172457 2185344 2193236 2196234 2195334 2190672 2181781 
3931.065 2167561 2147715 2123208 2097538 2075464 2061481 2058651 2067174 
3934.923 2084253 2105395 2125939 2142621 2154608 2163066 2170725 2179916 
3938.780 2191838 2205625 2218213 2226706 2228005 2220911 2206025 2186110 
3942.638 2164997 2146716 2134529 2130001 2132865 2141822 2153842 2166363 
3946.495 2176286 2181648 2181448 2176219 2167195 2156673 2146816 2139025 
3950.353 2134529 2133664 2136261 2142288 2151744 2164365 2179982 2197532 
3954.210 2215616 2232701 2247255 2258513 2266740 2272902 2278331 2284326 
3958.067 2291355 2299049 2306511 2312840 2317337 2319702 2320668 2321134 
3961.925 2321967 2323866 2326597 2329729 2332827 2335192 2336624 2337124 
3965.782 2336924 2336491 2336424 2337257 2339589 2343653 2349550 2356979 
3969.640 2365508 2374403 2383398 2392160 2400656 2409019 2416916 2424046 
3973.497 2429710 2433109 2433842 2432376 2429644 2426978 2425579 2426112 
3977.354 2428544 2431776 2435008 2437474 2439040 2440140 2442106 2445004 
3981.212 2448970 2453202 2456267 2456934 2454434 2449036 2441606 2433742 
3985.069 2426845 2421880 2419248 2418881 2420148 2422746 2426212 2429710 
3988.927 2432976 2434942 2435041 2432876 2428777 2423513 2418282 2414383 
3992.784 2412684 2413317 2416083 2420014 2424046 2427511 2429577 2430010 
3996.642 2428377 2424912 2419848 2413950 2408353 2404654 2404421 2408219 
4000.499 2415883 
##END=
