
##TITLE=L1760A_9
##JCAMP-DX=5.01  $$ Nicolet v. 1
##DATATYPE=INFRARED SPECTRUM
##ORIGIN=UniL
##OWNER=Nicolet
##LONGDATE=2011/08/18
##TIME=15:21:15
##SPECTROMETER/DATA SYSTEM=Nicolet iS5
##DATA PROCESSING=
Ratio against background
%Transmittance->Absorbance
Truncated
ElementMultiply or ElementDivide
##COMMENTS=
Number of sample scans: 32
Collection length: 51.19 sec
Sample gain: 2.0
Background collected on: Jeu Aout 18 15:19:26 2011 (GMT+02:00);
Number of background scans: 32
Background gain: 2.0
Sample spacing:  1.000
Number of scan points: 12415
Resolution points: 8192
Number of FFT points: 65536
Apodization: N-B fort;
Phase correction: Mertz;
Laser frequency: 15798.0 cm-1
Number of rejected sample scans: 0
Number of rejected background scans: 0
Bench serial number: ASB1000141;
##RESOLUTION=4.000
##XUNITS=1/CM
##YUNITS=ABSORBANCE
##FIRSTX=649.893372
##LASTX=4000.122314
##FIRSTY=0.075990
##MAXX=4000.122314
##MINX=649.893372
##MAXY=0.170644
##MINY=-0.004189
##XFACTOR=1.000000
##YFACTOR=1.000000E-009
##NPOINTS=6950
##DELTAX=0.482117
##ZPD=6100
##XYDATA=(X++(Y..Y))
649.893 75990136 75146376 74400128 73759080 73220352 72777048 72421256 
653.268 72146960 71948352 71817872 71746656 71724656 71741224 71788992 
656.643 71863144 71962664 72087888 72240240 72419304 72624320 72853488 
660.018 73106472 73382896 73684480 74012704 74368472 74750144 75154800 
663.393 75576880 76008248 76438416 76854632 77236440 77559840 77796824 
666.767 77927392 77955152 77924184 77912328 77987904 78179024 78465888 
670.142 78802712 79138928 79432640 79662640 79822448 79921256 79975152 
673.517 79998176 79995544 79962200 79888440 79767344 79600072 79397384 
676.892 79172688 78936296 78689984 78427152 78136896 77811808 77450952 
680.267 77061632 76654600 76238352 75816104 75386896 74948152 74501912 
683.642 74055648 73620840 73208936 72825592 72470232 72136944 71819872 
687.016 71517320 71234888 70982568 70771504 70609496 70501168 70447392 
690.391 70451088 70520192 70669336 70918624 71288456 71796488 72454768 
693.766 73266984 74229872 75332712 76558832 77882520 79269704 80680376 
697.141 82066264 83378968 84577520 85631784 86530920 87283944 87916560 
700.516 88463080 88957784 89429240 89892368 90347984 90781656 91168280 
703.890 91474160 91664072 91711824 91604776 91351392 90979072 90532424 
707.265 90060544 89604128 89191352 88834632 88534664 88289872 88101832 
710.640 87978312 87929504 87962368 88074600 88253008 88477056 88724744 
714.015 88978240 89229112 89475448 89718664 89958592 90192208 90415424 
717.390 90628424 90839904 91068232 91335728 91664232 92065688 92540528 
720.765 93079104 93668336 94299128 94969512 95682760 96442824 97247744 
724.139 98086328 98940696 99790776 100622808 101432208 102222576 103000096 
727.514 103766688 104516640 105238576 105921928 106565248 107179728 
730.407 107789960 108426424 109117160 109885672 110750336 111728168 
733.300 112843400 114126176 115608712 117317880 119264624 121439640 
736.192 123814344 126351832 129013496 131765816 134582288 137437712 
739.085 140304672 143159552 145991616 148820064 151695616 154690752 
741.978 157856752 161169744 164472288 167448896 169674208 170644048 
744.870 169935216 167322240 162835312 156770816 149605760 141923168 
747.763 134255280 127034056 120567896 115009304 110399720 106696664 
750.656 103812048 101635616 100056320 98984928 98355616 98138448 98339320 
754.031 98991256 100132040 101773424 103870248 106296320 108852368 111263144 
757.405 113241624 114539544 114977784 114494984 113145640 111091088 
760.298 108551056 105771632 102992576 100397208 98117152 96224600 94736520 
763.673 93628176 92843928 92315640 91967480 91730936 91556544 91410320 
767.048 91277504 91156344 91051392 90966040 90900272 90848760 90804568 
770.423 90761160 90716616 90672184 90633736 90606832 90595568 90601560 
773.797 90624424 90663000 90715912 90780024 90847904 90901824 90910688 
777.172 90831768 90608264 90178952 89488808 88491928 87163328 85500408 
780.547 83522192 81266600 78784280 76139352 73400088 70635032 67911168 
783.922 65281340 62783680 60441140 58262064 56246588 54390840 52689904 
787.297 51137256 49723688 48437008 47261468 46180304 45180016 44250084 
790.671 43384556 42579592 41831272 41134144 40482540 39871064 39297660 
794.046 38763376 38271684 37825336 37424300 37064628 36739720 36442192 
797.421 36165752 35905788 35657388 35412504 35159608 34883588 34570356 
800.796 34211888 33809732 33376068 32929752 32491788 32078128 31695868 
804.171 31344004 31016338 30706062 30409436 30126262 29858534 29606822 
807.546 29369584 29142004 28918298 28694954 28470948 28248470 28029536 
810.920 27815518 27604038 27392134 27176522 26956928 26736530 26520926 
814.295 26314796 26119986 25933634 25750494 25564758 25373834 25178988 
817.670 24984968 24797068 24618894 24450186 24288238 24129922 23973624 
821.045 23820742 23674422 23537422 23410046 23289700 23171762 23052354 
824.420 22930744 22810494 22698030 22599380 22518516 22455390 22406684 
827.794 22367158 22332446 22299274 22265200 22227290 22180840 22119752 
831.169 22038940 21935702 21812488 21676698 21538028 21406712 21289076 
834.544 21187826 21102214 21030530 20971898 20926972 20897524 20883410 
837.919 20882122 20888834 20897352 20903226 20905590 20907330 20913656 
841.294 20929512 20957328 20996762 21045902 21103290 21169734 21249164 
844.669 21346498 21465578 21607080 21768764 21946854 22138196 22342354 
848.043 22561756 22799948 23059446 23339380 23635234 23940220 24248048 
851.418 24554728 24859764 25165120 25473078 25784282 26096796 26406686 
854.793 26710312 27005162 27291106 27569578 27841270 28105000 28357112 
858.168 28591854 28803602 28988922 29147568 29282238 29397272 29497690 
861.543 29588202 29673196 29758988 29853458 29967648 30114222 30305644 
864.917 30552568 30864054 31246542 31706848 32253430 32896728 33649696 
868.292 34527016 35543060 36712568 38050532 39569892 41282568 43193868 
871.667 45297172 47565584 49944920 52352948 54669248 56750684 58445572 
875.042 59600276 60096336 59864128 58893788 57238964 55007552 52350596 
878.417 49428088 46402500 43419928 40587520 37981240 35642104 33581460 
881.792 31792614 30258216 28957718 27868366 26968176 26236088 25650550 
885.166 25192578 24846292 24599154 24442440 24369958 24376442 24457162 
888.541 24608340 24827836 25116530 25479404 25924420 26461126 27099528 
891.916 27849500 28720512 29724002 30874868 32190230 33688908 35385328 
895.291 37281556 39358708 41567464 43826944 46013728 47978832 49563176 
898.666 50607424 50992844 50656644 49605668 47916524 45725904 43214512 
902.040 40563692 37947104 35506880 33333312 31476472 29948124 28733966 
905.415 27805484 27128588 26671696 26404256 26300748 26342114 26514728 
908.790 26813180 27239068 27800008 28504984 29360472 30365266 31505934 
912.165 32752820 34055148 35346184 36540684 37541112 38257284 38610776 
915.540 38551712 38070352 37197984 36005168 34583772 33042148 31482990 
918.914 29987566 28618538 27412496 26384960 25537488 24860640 24338172 
922.289 23947644 23664346 23462852 23318682 23213388 23133982 23072900 
925.664 23026534 22991982 22965432 22942306 22917296 22886524 22848420 
929.039 22803512 22753962 22701730 22648388 22594876 22542944 22496076 
932.414 22459438 22439272 22441154 22467742 22518166 22588454 22673800 
935.789 22770094 22874824 22987964 23110114 23241738 23381860 23528958 
939.163 23681210 23838244 24001006 24172130 24352926 24544070 24743188 
942.538 24946856 25151040 25353036 25552142 25749754 25948338 26149790 
945.913 26355704 26567104 26785478 27013340 27254484 27512598 27789518 
949.288 28084462 28392236 28704972 29013824 29310878 29590470 29850618 
952.663 30091992 30317120 30529818 30735152 30939158 31149668 31375632 
956.037 31625730 31907282 32225416 32581888 32976616 33408918 33878864 
959.412 34388340 34940932 35540036 36188800 36889032 37640796 38444072 
962.787 39299544 40208788 41175304 42203684 43298224 44462996 45701276 
966.162 47015052 48404816 49868648 51400940 52990092 54618932 56263712 
969.537 57893576 59475744 60975604 62359352 63599856 64675256 65571404 
972.912 66282748 66810892 67165056 67360800 67420392 67371976 67246016 
976.286 67076340 66896924 66739560 66637024 66620612 66719464 66962132 
979.661 67371320 67962552 68742992 69711144 70860504 72183112 73673640 
983.036 75331880 77159768 79155432 81302520 83557576 85847704 88059264 
986.411 90045344 91652120 92722576 93130176 92802776 91727832 89961776 
989.786 87616864 84858408 81873496 78847016 75957096 73342528 71101160 
993.160 69294112 67942864 67042084 66566148 66480912 66747248 67326976 
996.535 68188696 69305616 70656744 72226856 74001696 75965856 78099688 
999.910 80371592 82735320 85129048 87467288 89649496 91570864 93123440 
1003.285 94220704 94808200 94871712 94443864 93601296 92462752 91163128 
1006.660 89847536 88656352 87699368 87062504 86800728 86939920 87486704 
1010.035 88434808 89771744 91482912 93555096 95978368 98745040 101849784 
1013.409 105289416 109058592 113146544 117530512 122160672 126955136 
1016.302 131788480 136478560 140813520 144557120 147477776 149403760 
1019.195 150241568 150009120 148832464 146945952 144659744 142293664 
1022.087 140169584 138551808 137612432 137442992 138044592 139352048 
1024.980 141245808 143581040 146208144 148967952 151713648 154309552 
1027.873 156624224 158550208 160004592 160937696 161341824 161249984 
1030.766 160732224 159877408 158789504 157574000 156318944 155097120 
1033.659 153951024 152886928 151872976 150841408 149703232 148353584 
1036.552 146697888 144667968 142226080 139373520 136143200 132593896 
1039.446 128797112 124831792 120781552 116722872 112726168 108854152 
1042.339 105154152 101665672 98423472 95458232 92805072 90502056 88584512 
1045.714 87084808 86024424 85410936 85238216 85488432 86136288 87150328 
1049.089 88497240 90144416 92056344 94198936 96538904 99042320 101680456 
1052.464 104427040 107256880 110144344 113055144 115939704 118733664 
1055.357 121351392 123691464 125652672 127134216 128053560 128359672 
1058.250 128035504 127108560 125647992 123770856 121627168 119381944 
1061.144 117214968 115287904 113735288 112666120 112149296 112219824 
1064.037 112880360 114104032 115835128 117989304 120466088 123143760 
1066.930 125888912 128576816 131085680 133310424 135172160 136608288 
1069.823 137575728 138049200 138015680 137476544 136445584 134949072 
1072.716 133022624 130709184 128063008 125147744 122041992 118846176 
1075.609 115671200 112639280 109877736 107496600 105592352 104238840 
1078.502 103478896 103325904 103755832 104707864 106073720 107701288 
1081.395 109415360 111012136 112298520 113123928 113390176 113080120 
1084.288 112253640 111044992 109631408 108208928 106980584 106113736 
1087.181 105736168 105925912 106701328 108025888 109810016 111931864 
1090.074 114236936 116555448 118729136 120606296 122059192 122996744 
1092.967 123356008 123110976 122270080 120874024 118989216 116695216 
1095.860 114081368 111229024 108207104 105075432 101880368 98663232 95464256 
1099.236 92320352 89267280 86338464 83560264 80955760 78545008 76344712 
1102.611 74371528 72641240 71166616 69959888 69030792 68386840 68035824 
1105.986 67984056 68236456 68796056 69661696 70828136 72283208 74010072 
1109.361 75985360 78177240 80547888 83048808 85617136 88180992 90653528 
1112.737 92935888 94933016 96552392 97718408 98383784 98528928 98165328 
1116.112 97329776 96082368 94497488 92652808 90629328 88497528 86311552 
1119.487 84112072 81922424 79755360 77619416 75523448 73481072 71512872 
1122.862 69642952 67900016 66315248 64917548 63735904 62796316 62118024 
1126.238 61714896 61592732 61749536 62176328 62858196 63776576 64906932 
1129.613 66220076 67681176 69245256 70859296 72463688 73990704 75376616 
1132.988 76567488 77526560 78244208 78739632 79061688 79276784 79464344 
1136.363 79703608 80055104 80557104 81215184 82002504 82860496 83707496 
1139.739 84455920 85012848 85297768 85251240 84831664 84020024 82816024 
1143.114 81235512 79307888 77074656 74590936 71917296 69119560 66265924 
1146.489 63416116 60624888 57939428 55395616 53021424 50835700 48846640 
1149.864 47054968 45454344 44035068 42785984 41696812 40758828 39963904 
1153.240 39304444 38772976 38361976 38065540 37879528 37802092 37832996 
1156.615 37973064 38223124 38584048 39057024 39644556 40349948 41177600 
1159.990 42130584 43209428 44409372 45719020 47121400 48591132 50095676 
1163.365 51598588 53054968 54416264 55633464 56655128 57435160 57937348 
1166.740 58135604 58020084 57595920 56883240 55911464 54716824 53339904 
1170.116 51819316 50194268 48503428 46780916 45059144 43365920 41722348 
1173.491 40146200 38651264 37248524 35947900 34757576 33682496 32724522 
1176.866 31881538 31149204 30521286 29992394 29558160 29214754 28958496 
1180.241 28784272 28684936 28652480 28677716 28751486 28865496 29011450 
1183.617 29180486 29364266 29554186 29742878 29926008 30101758 30271148 
1186.992 30436766 30601060 30764778 30927204 31085738 31237498 31380582 
1190.367 31514310 31639236 31756860 31869698 31981140 32096644 32225274 
1193.742 32378748 32572460 32823284 33146560 33555116 34057440 34655828 
1197.118 35346584 36118544 36953168 37821284 38684116 39496076 40203588 
1200.493 40753992 41102636 41216040 41080092 40701984 40109640 39345900 
1203.868 38464060 37523376 36578312 35678216 34863732 34162132 33589732 
1207.243 33151388 32843474 32656144 32576424 32591100 32685798 32845798 
1210.619 33056806 33302650 33567752 33838676 34104712 34359972 34603832 
1213.994 34839208 35071664 35307476 35552552 35810824 36084772 36374668 
1217.369 36678784 36992892 37310188 37622260 37919552 38192692 38434840 
1220.744 38641488 38811740 38947048 39051408 39129608 39187224 39231032 
1224.120 39268352 39306980 39355008 39418496 39500904 39602740 39721996 
1227.495 39855772 40002452 40163392 40343408 40551104 40796424 41090508 
1230.870 41443692 41864112 42357952 42928096 43574300 44292312 45073296 
1234.245 45905552 46773428 47660048 48548520 49420884 50259396 51045572 
1237.621 51756676 52368048 52851872 53177448 53317276 53247564 52952136 
1240.996 52424460 51667884 50695592 49527564 48192660 46727228 45170532 
1244.371 43568364 41966216 40404456 38919432 37538984 36282192 35162876 
1247.746 34188984 33363402 32684368 32145486 31735898 31441492 31247822 
1251.122 31140876 31108164 31139452 31225428 31356790 31525318 31723172 
1254.497 31945154 32189160 32456436 32750462 33074148 33427380 33804324 
1257.872 34192424 34570964 34913284 35189392 35366132 35413692 35308484 
1261.247 35035240 34591920 33989856 33254896 32421876 31532906 30631778 
1264.623 29754800 28931224 28180548 27512528 26931086 26435736 26023336 
1267.998 25688866 25425298 25224882 25079282 24981564 24926924 24913028 
1271.373 24939030 25004412 25107752 25246408 25417674 25619162 25850424 
1274.748 26113054 26410208 26745056 27120158 27537134 27996562 28499004 
1278.124 29044678 29633214 30262338 30926422 31615752 32316246 33010934 
1281.499 33682820 34314504 34891664 35402260 35835616 36183076 36436968 
1284.874 36591184 36642372 36590388 36439776 36197804 35874840 35482972 
1288.249 35034272 34542116 34022608 33493374 32976150 32494358 32068566 
1291.625 31714938 31440600 31241448 31101364 30994632 30889562 30750906 
1295.000 30547094 30255552 29865028 29379724 28818296 28212262 27598036 
1298.375 27013130 26490144 26050602 25706022 25458674 25304286 25234784 
1301.750 25240018 25309974 25432042 25592908 25778762 25975210 26168794 
1305.125 26348206 26502966 26623114 26699038 26720884 26680224 26572880 
1308.501 26400242 26170378 25898252 25603486 25305762 25023892 24774618 
1311.876 24570610 24423022 24341326 24332530 24401500 24549328 24774022 
1315.251 25070822 25434854 25862486 26352466 26905846 27524602 28210282 
1318.626 28962676 29779180 30655246 31584534 32558672 33564816 34585748 
1322.002 35595672 36559932 37439724 38192984 38782248 39184324 39393424 
1325.377 39426228 39316664 39115360 38877868 38654704 38489364 38409360 
1328.752 38425140 38532124 38713564 38947156 39209272 39481884 39755580 
1332.127 40030572 40315520 40624812 40975360 41381436 41853932 42398060 
1335.503 43012376 43689156 44413888 45166708 45921056 46645508 47307208 
1338.878 47871868 48310076 48601324 48735456 48713956 48546928 48250716 
1342.253 47844084 47347260 46782948 46174852 45547176 44923644 44321592 
1345.628 43751592 43217440 42718636 42254988 41831164 41457944 41153740 
1349.004 40941932 40846368 40891724 41100160 41490608 42080024 42881468 
1352.379 43902564 45144428 46599140 48248976 50062252 51995304 53991368 
1355.754 55977648 57876276 59602860 61070972 62206416 62945744 63245176 
1359.129 63086792 62479588 61460068 60084236 58431128 56595824 54678832 
1362.505 52790692 51031784 49477320 48169928 47110136 46263964 45570652 
1365.880 44961272 44370252 43743348 43050316 42284972 41466000 40627868 
1369.255 39814696 39070616 38429484 37914996 37538080 37297984 37185924 
1372.630 37188852 37294228 37491588 37774148 38136656 38572604 39071744 
1376.006 39620092 40200280 40795700 41392260 41978984 42549112 43098212 
1379.381 43622436 44116520 44574120 44987512 45351124 45663400 45928204 
1382.756 46154212 46352912 46535216 46708336 46876728 47043888 47216252 
1386.131 47407048 47636384 47926696 48298336 48761180 49311632 49934660 
1389.507 50607572 51304164 51994856 52651936 53245652 53743952 54116136 
1392.882 54332256 54370448 54224880 53911456 53467188 52935816 52356760 
1396.257 51749996 51115488 50441900 49720680 48959224 48188440 47457348 
1399.632 46817340 46308236 45943560 45713244 45590564 45544784 45546736 
1403.008 45571940 45603408 45628288 45638076 45628360 45598660 45551520 
1406.383 45491172 45421680 45345352 45262492 45173620 45081936 44995488 
1409.758 44928676 44899100 44922324 45008756 45158804 45364404 45611468 
1413.133 45886032 46177760 46481152 46795608 47122252 47461524 47813200 
1416.509 48176856 48556152 48961896 49414756 49942352 50567964 51303160 
1419.884 52139304 53050928 54005888 54973932 55932304 56862620 57751744 
1423.259 58590968 59374796 60103716 60783096 61420368 62019060 62574872 
1426.634 63072160 63487672 63793384 63964308 63986772 63861048 63602008 
1430.010 63231112 62773764 62254560 61696332 61123948 60560696 60023092 
1433.385 59516512 59029732 58535800 57998724 57389664 56705488 55983900 
1436.760 55295384 54714532 54286712 54010424 53848400 53746840 53658804 
1440.135 53550648 53407904 53232728 53037748 52837576 52642548 52457920 
1443.510 52284660 52122604 51972112 51833056 51703492 51578100 51451372 
1446.886 51322140 51200032 51106544 51071844 51127528 51295440 51585712 
1450.261 51998292 52527096 53163144 53893748 54701264 55556524 56415472 
1453.636 57223504 57905428 58369572 58516652 58250736 57524612 56382876 
1457.011 54984012 53538208 52214444 51089288 50154140 49363896 48674928 
1460.387 48061436 47512756 47023652 46584232 46177316 45783112 45389456 
1463.762 45002216 44651268 44381336 44239148 44253272 44426732 44741688 
1467.137 45168472 45675620 46228836 46793392 47333328 47805428 48166044 
1470.512 48375336 48405004 48251720 47946164 47553048 47146000 46785200 
1473.888 46499960 46290464 46143452 46046956 45997264 45997704 46052372 
1477.263 46158192 46303184 46467504 46630896 46775492 46890124 46970820 
1480.638 47019076 47039756 47039424 47025020 47002572 46975288 46942728 
1484.013 46898652 46830664 46721620 46554176 46314132 45994540 45595092 
1487.389 45119208 44567364 43935192 43214000 42400984 41509672 40575548 
1490.764 39649968 38781232 38000260 37308816 36682968 36082320 35463448 
1494.139 34790208 34040952 33212722 32319530 31385996 30435912 29485704 
1497.514 28542562 27611454 26700448 25823066 24995288 24232248 23543334 
1500.890 22931024 22394228 21930472 21536358 21207204 20932396 20692690 
1504.265 20456446 20185030 19843232 19417534 18936246 18468252 18092600 
1507.640 17853796 17746472 17731978 17766908 17818996 17872062 17924094 
1511.015 17979762 18044552 18120340 18205156 18295004 18387114 18480904 
1514.391 18577482 18677782 18781496 18888314 19000420 19125262 19273832 
1517.766 19456410 19676750 19928284 20194646 20453668 20687440 20891928 
1521.141 21084440 21295828 21556866 21879002 22249296 22639452 23019442 
1524.516 23370218 23688104 23986860 24289500 24621104 24995778 25414162 
1527.892 25868008 26348238 26851208 27379252 27937726 28529186 29149870 
1531.267 29791740 30445614 31108840 31790440 32512140 33300254 34168264 
1534.642 35113120 36114188 37146584 38184916 39210720 40216092 41196220 
1538.017 42151760 43086724 44007348 44918096 45819384 46712508 47596232 
1541.393 48469644 49334308 50189208 51029288 51844256 52621452 53347284 
1544.768 54012864 54616828 55163016 55652860 56078372 56414684 56622168 
1548.143 56657616 56484788 56095072 55514540 54798012 54000896 53151084 
1551.518 52237876 51219156 50046260 48694720 47188400 45602856 44045888 
1554.894 42604992 41319264 40162848 39057460 37887840 36529040 34891740 
1558.269 32974650 30918592 28970468 27355750 26160910 25338776 24778688 
1561.644 24372832 24041102 23727472 23400010 23047148 22676768 22311866 
1565.019 21982124 21712018 21508888 21361292 21242240 21121274 20971654 
1568.395 20780060 20551448 20308270 20081606 19897134 19768566 19695578 
1571.770 19668430 19672974 19693116 19711840 19708476 19661948 19555910 
1575.145 19387840 19177966 18967364 18805956 18727386 18738250 18821666 
1578.520 18951614 19103934 19262646 19422800 19586134 19757920 19942334 
1581.896 20140812 20351500 20572710 20803524 21045764 21302022 21574522 
1585.271 21863254 22166998 22484246 22815698 23165262 23538926 23942846 
1588.646 24381420 24856220 25366736 25912074 26492398 27108626 27761012 
1592.021 28446254 29157454 29883058 30609558 31324812 32018200 32681652 
1595.396 33307590 33887716 34412084 34871344 35256872 35563340 35788588 
1598.772 35932136 35993936 35972776 35866384 35673396 35395356 35039624 
1602.147 34619908 34156684 33674800 33197522 32744922 32330378 31960774 
1605.522 31639666 31370074 31155826 31001678 30910942 30882838 30911834 
1608.897 30989402 31108626 31266444 31465218 31710446 32006998 32354544 
1612.273 32746066 33167586 33603548 34037300 34452364 34835512 35176316 
1615.648 35472368 35732316 35981160 36254892 36584300 36988132 37464824 
1619.023 37997260 38557396 39115828 39648696 40139148 40584100 40992908 
1622.398 41386504 41787820 42214272 42673712 43162324 43671016 44189880 
1625.774 44711936 45232816 45750128 46264112 46779256 47306872 47864100 
1629.149 48473124 49154684 49920272 50770480 51693452 52671012 53679836 
1632.524 54701792 55727552 56757404 57802840 58884760 60031120 61266276 
1635.899 62606668 64060300 65619388 67271536 69000808 70789048 72614096 
1639.275 74451568 76281912 78089304 79867248 81617720 83341552 85031792 
1642.650 86669160 88217072 89630960 90869224 91898848 92709896 93317896 
1646.025 93768000 94121024 94443448 94798680 95229392 95759056 96389504 
1649.400 97102856 97856600 98578072 99172656 99515144 99489896 99059472 
1652.776 98353488 97659528 97248488 97224816 97500240 97910824 98301264 
1656.151 98573336 98684192 98628008 98423560 98094632 97657992 97114120 
1659.526 96450848 95649680 94694696 93578528 92305552 90892920 89372616 
1662.901 87791384 86203280 84660744 83199072 81824288 80510448 79199960 
1666.277 77815416 76267416 74476184 72390096 70003408 67365096 64568900 
1669.652 61734144 58971320 56361524 53947468 51733760 49693892 47776544 
1673.027 45915128 44040680 42107876 40123560 38165488 36366888 34855940 
1676.402 33705984 32908988 32401774 32102742 31948864 31911026 31990662 
1679.778 32205396 32568674 33074506 33700004 34419256 35222376 36136116 
1683.153 37227224 38584192 40258916 42231432 44416528 46715532 49073544 
1686.528 51486096 53977444 56569440 59259060 62014012 64764672 67429480 
1689.903 69939488 72249904 74350736 76255720 77987104 79560720 80977720 
1693.279 82221024 83264240 84081792 84670408 85063024 85335360 85574648 
1696.654 85824736 86061144 86185504 86057024 85505008 84385336 82657288 
1700.029 80464496 78125272 75968736 74172560 72703360 71406896 70097432 
1703.404 68629080 66916092 64940484 62748148 60429944 58092916 55818164 
1706.780 53647068 51582988 49606448 47687156 45791912 43889440 41954280 
1710.155 39974148 37953180 35914140 33891332 31914770 30007306 28174362 
1713.530 26407778 24696748 23037680 21440304 19924608 18511228 17209976 
1716.905 16014293 14912550 13899800 12987752 12201880 11564337 11078143 
1720.281 10721800 10454633 10228032 10003584 9760782 9505450 9261674 9060256 
1724.138 8919468 8836105 8787110 8742786 8681125 8594226 8488390 8374066 
1727.995 8257104 8131497 7983147 7797534 7570562 7311324 7036582 6757403 
1731.853 6469087 6145809 5750779 5256758 4675975 4069109 3523313 3102327 
1735.710 2817294 2634243 2498688 2361476 2189307 1974099 1730621 1488909 
1739.568 1277139 1107624 973375 857427 745094 633155 530203 448734 396165 
1743.907 368474 351661 329212 291611 240652 188374 148233 128115 123276 
1748.247 119464 98651 50598 -22431 -104757 -177330 -226544 -250851 -259560 
1752.586 -264825 -274528 -288104 -300123 -304792 -301150 -295322 -296713 
1756.444 -311878 -339226 -367532 -381768 -371207 -335915 -286879 -242341 
1760.301 -218331 -221411 -243930 -267375 -272640 -248699 -198758 -136557 
1764.159 -77924 -33033 -3578 15639 31876 49538 67366 80092 82478 74127 59844 
1769.463 47019 39596 33897 18224 -21635 -93129 -190213 -293700 -380775 
1773.802 -436387 -461245 -468295 -476239 -499142 -541503 -597492 -655294 
1777.660 -704090 -741205 -772594 -810100 -863475 -933905 -1012521 -1083984 
1781.517 -1136401 -1166803 -1183127 -1199517 -1229386 -1277556 -1338571 
1784.892 -1399115 -1445450 -1471406 -1479760 -1479826 -1481114 -1487751 
1788.268 -1497459 -1503535 -1500233 -1488181 -1474972 -1473156 -1492143 
1791.643 -1532393 -1582576 -1624964 -1644373 -1636517 -1608590 -1574587 
1795.018 -1546722 -1530280 -1522058 -1514332 -1499969 -1477383 -1452418 
1798.393 -1434816 -1433429 -1450205 -1478208 -1504988 -1519483 -1516841 
1801.769 -1501422 -1482270 -1468500 -1462886 -1461499 -1456446 -1440694 
1805.144 -1413349 -1379958 -1350297 -1332130 -1328298 -1334541 -1342700 
1808.519 -1345177 -1339496 -1329784 -1323640 -1326811 -1339562 -1355252 
1811.894 -1364269 -1360041 -1342171 -1317496 -1296750 -1288822 -1295891 
1815.270 -1313367 -1332328 -1345012 -1349009 -1349042 -1352708 -1366581 
1818.645 -1390659 -1418006 -1437689 -1441421 -1427550 -1402814 -1378373 
1822.020 -1364632 -1367011 -1383624 -1406909 -1428376 -1442510 -1449148 
1825.395 -1451427 -1452252 -1451889 -1447728 -1437028 -1420945 -1405918 
1828.771 -1402054 -1418666 -1458131 -1512516 -1565607 -1601030 -1610340 
1832.146 -1595881 -1569272 -1544708 -1533582 -1538666 -1554712 -1571220 
1835.521 -1579671 -1577327 -1568710 -1561645 -1562372 -1570361 -1579176 
1838.896 -1578747 -1562471 -1530313 -1490426 -1455291 -1435839 -1438680 
1842.271 -1462886 -1502676 -1549000 -1595319 -1638630 -1678206 -1712960 
1845.647 -1739296 -1752002 -1747613 -1726821 -1696161 -1665201 -1643449 
1849.022 -1635296 -1638135 -1643581 -1642360 -1629915 -1608062 -1584491 
1852.397 -1567984 -1563527 -1569371 -1578285 -1581454 -1574158 -1558575 
1855.772 -1542232 -1533780 -1538270 -1553788 -1572837 -1586637 -1590268 
1859.148 -1585317 -1578912 -1578714 -1588354 -1604398 -1618131 -1620639 
1862.523 -1607699 -1582874 -1554877 -1534407 -1527110 -1532063 -1541869 
1865.898 -1548274 -1547019 -1541374 -1540284 -1552962 -1583666 -1627076 
1869.273 -1670614 -1700881 -1711508 -1706260 -1696161 -1693059 -1703323 
1872.649 -1725336 -1750814 -1768898 -1773287 -1765037 -1752101 -1744675 
1876.024 -1748900 -1764311 -1783615 -1797837 -1800873 -1793647 -1782262 
1879.399 -1774937 -1775860 -1783450 -1790116 -1789159 -1777510 -1759361 
1882.774 -1743487 -1739098 -1749461 -1769954 -1789258 -1795923 -1784077 
1886.150 -1756853 -1725270 -1702069 -1696260 -1708406 -1731574 -1754048 
1889.525 -1766786 -1767512 -1760516 -1753685 -1751837 -1755599 -1760714 
1892.900 -1762364 -1758338 -1751738 -1749065 -1756391 -1775003 -1799289 
1896.275 -1819186 -1826049 -1816018 -1793614 -1767710 -1748273 -1740385 
1899.651 -1742299 -1746623 -1745797 -1736788 -1723026 -1712036 -1711145 
1903.026 -1722465 -1740616 -1755929 -1759097 -1746524 -1723422 -1700650 
1906.401 -1689197 -1695534 -1717449 -1747151 -1774574 -1793977 -1806020 
1909.776 -1817305 -1834528 -1860824 -1892595 -1921658 -1939735 -1943033 
1913.152 -1934127 -1920008 -1908825 -1905263 -1908298 -1914763 -1921592 
1916.527 -1930103 -1945771 -1975326 -2021269 -2078223 -2134212 -2175161 
1919.902 -2192502 -2186766 -2167908 -2150500 -2145851 -2157456 -2178820 
1923.277 -2198007 -2203414 -2191546 -2168171 -2145356 -2133915 -2138136 
1926.653 -2153236 -2169622 -2177304 -2172721 -2160028 -2148851 -2148126 
1930.028 -2161116 -2182941 -2204502 -2217820 -2221182 -2219732 -2222468 
1933.403 -2235687 -2259189 -2284734 -2300687 -2298676 -2278702 -2250191 
1936.778 -2226226 -2217161 -2225039 -2242906 -2259750 -2267001 -2265254 
1940.154 -2264035 -2276395 -2311365 -2366863 -2429274 -2480605 -2506236 
1943.529 -2504852 -2487392 -2472369 -2474478 -2496715 -2529856 -2556505 
1946.904 -2562862 -2544416 -2510519 -2476981 -2460245 -2465319 -2485481 
1950.279 -2504721 -2508905 -2492169 -2461661 -2431778 -2418466 -2428812 
1953.655 -2459652 -2499186 -2534995 -2562072 -2584371 -2612400 -2655641 
1957.030 -2715837 -2785539 -2851642 -2903220 -2938666 -2966277 -3000139 
1960.405 -3050778 -3116347 -3184472 -3237523 -3262616 -3259886 -3242160 
1963.780 -3229729 -3239266 -3275639 -3329797 -3383916 -3423103 -3440953 
1967.156 -3445687 -3450947 -3469782 -3504491 -3546560 -3581231 -3597497 
1970.531 -3595920 -3587639 -3589578 -3614190 -3662491 -3724255 -3783679 
1973.906 -3829202 -3860960 -3889859 -3930741 -3991647 -4067151 -4138376 
1977.281 -4183960 -4188883 -4153702 -4092393 -4024378 -3963280 -3910382 
1980.656 -3856592 -3790248 -3706121 -3610115 -3518361 -3447298 -3406403 
1984.032 -3392003 -3389307 -3378655 -3347684 -3296060 -3235221 -3180952 
1987.407 -3144967 -3128223 -3122466 -3115459 -3099470 -3076606 -3058247 
1990.782 -3057358 -3079698 -3119571 -3159605 -3181774 -3172861 -3134473 
1994.157 -3078876 -3024456 -2984410 -2962197 -2951304 -2941727 -2927740 
1997.533 -2911810 -2904109 -2916451 -2953607 -3009254 -3066834 -3106774 
2000.908 -3116643 -3095983 -3057227 -3016690 -2988687 -2977631 -2978848 
2004.283 -2984113 -2989609 -2999908 -3027910 -3086048 -3176380 -3287576 
2007.658 -3396573 -3479445 -3520465 -3520563 -3494959 -3463931 -3442498 
2011.034 -3432899 -3426851 -3412353 -3382765 -3343475 -3309213 -3297638 
2014.409 -3318979 -3369877 -3434247 -3491607 -3527597 -3539987 -3538344 
2017.784 -3537226 -3546396 -3566180 -3586916 -3596018 -3587474 -3564734 
2021.159 -3540414 -3527761 -3532757 -3550142 -3566344 -3566541 -3544752 
2024.535 -3507778 -3472773 -3458277 -3473890 -3515601 -3567724 -3612185 
2027.910 -3636205 -3641298 -3638571 -3643598 -3664692 -3698532 -3731022 
2031.285 -3746331 -3735687 -3702277 -3658942 -3622438 -3602853 -3598877 
2034.660 -3599436 -3589840 -3561546 -3515403 -3461531 -3411367 -3373329 
2038.036 -3345974 -3322662 -3294514 -3257913 -3216672 -3179340 -3154375 
2041.411 -3143124 -3138651 -3129538 -3104767 -3060813 -3003133 -2943603 
2044.786 -2893873 -2860036 -2839298 -2824484 -2807860 -2787251 -2766674 
2048.161 -2753044 -2749422 -2751694 -2748105 -2723806 -2669539 -2586116 
2051.537 -2485943 -2387195 -2306092 -2251476 -2221677 -2206546 -2193722 
2054.912 -2175589 -2151423 -2127519 -2110835 -2103778 -2102525 -2098766 
2058.287 -2083466 -2053127 -2011177 -1966750 -1930202 -1906549 -1893782 
2061.662 -1885073 -1871646 -1849640 -1820671 -1791271 -1768997 -1758140 
2065.038 -1756523 -1758602 -1757612 -1750451 -1738702 -1726921 -1719396 
2068.413 -1716195 -1712861 -1702168 -1679031 -1643944 -1604035 -1570460 
2071.788 -1552566 -1554250 -1571319 -1594296 -1611561 -1615655 -1605025 
2075.163 -1582940 -1554910 -1524601 -1491615 -1453507 -1408230 -1356639 
2078.539 -1302961 -1253670 -1213956 -1184416 -1160987 -1136731 -1105930 
2081.914 -1067095 -1024124 -983695 -952386 -932615 -922068 -914430 -903354 
2085.771 -886060 -864037 -841914 -824982 -815689 -812779 -812415 -810827 
2089.629 -806263 -800707 -797433 -799186 -805701 -813771 -818467 -817442 
2093.486 -811786 -807156 -810464 -827396 -857953 -896840 -935393 -965875 
2097.344 -984455 -991860 -992125 -989513 -985149 -977248 -962305 -938500 
2101.201 -907685 -875909 -850049 -835995 -834903 -843435 -855307 -865492 
2105.058 -872304 -877992 -886788 -901436 -921043 -940914 -954701 -957544 
2108.916 -949246 -933739 -917208 -905569 -900113 -898857 -897534 -892773 
2112.773 -884407 -874950 -868171 -865988 -866584 -864500 -853654 -830769 
2116.631 -797334 -759695 -725691 -701576 -689005 -684440 -681760 -676070 
2120.488 -666245 -655360 -648545 -649504 -657841 -668957 -676798 -676401 
2124.345 -667535 -655195 -646824 -648280 -660819 -681032 -701708 -717289 
2128.203 -725592 -730090 -737070 -752616 -779408 -814697 -854018 -892872 
2132.060 -930995 -972322 -1022934 -1087091 -1163466 -1244816 -1320139 
2135.436 -1380156 -1421341 -1447959 -1468599 -1493629 -1528761 -1573696 
2138.811 -1623115 -1669690 -1708538 -1738339 -1760417 -1776752 -1788466 
2142.186 -1794438 -1793350 -1786915 -1780612 -1781734 -1797639 -1830866 
2145.561 -1877683 -1928915 -1973907 -2005933 -2024930 -2036671 -2048543 
2148.937 -2065428 -2086499 -2105625 -2116407 -2117132 -2113934 -2119375 
2152.312 -2146082 -2200842 -2281076 -2375431 -2469107 -2551696 -2623993 
2155.687 -2696640 -2786988 -2907795 -3062063 -3239069 -3419027 -3579620 
2159.062 -3707139 -3798558 -3859679 -3898003 -3918526 -3921711 -3905621 
2162.438 -3870976 -3822633 -3768700 -3717126 -3671986 -3630784 -3586719 
2165.813 -3533841 -3469880 -3399302 -3330159 -3269785 -3220092 -3176314 
2169.188 -3129243 -3069861 -2994841 -2908585 -2821489 -2745504 -2687519 
2172.563 -2648133 -2621720 -2601498 -2583284 -2567902 -2561446 -2568758 
2175.938 -2590859 -2621358 -2649352 -2665356 -2664698 -2651163 -2634630 
2179.314 -2626364 -2633181 -2654654 -2682744 -2708165 -2725156 -2733947 
2182.689 -2740170 -2751068 -2770329 -2794691 -2815826 -2823826 -2812600 
2186.064 -2782411 -2739544 -2691536 -2644049 -2597677 -2548599 -2492795 
2189.439 -2429438 -2361920 -2298380 -2246762 -2211029 -2189304 -2174765 
2192.815 -2159006 -2136289 -2105427 -2070077 -2035352 -2005043 -1978294 
2196.190 -1952105 -1922647 -1889131 -1854391 -1823343 -1801071 -1788862 
2199.565 -1783252 -1777675 -1765598 -1743950 -1713356 -1679394 -1646321 
2202.940 -1617140 -1590995 -1564353 -1534242 -1501025 -1468103 -1441057 
2206.316 -1423719 -1415925 -1412325 -1405555 -1389305 -1362155 -1328496 
2209.691 -1296651 -1275145 -1267910 -1272865 -1283767 -1292786 -1294900 
2213.066 -1289648 -1280695 -1273063 -1270420 -1272667 -1277656 -1281752 
2216.441 -1283635 -1284791 -1288029 -1296024 -1308180 -1321064 -1329586 
2219.817 -1329421 -1320040 -1305339 -1291068 -1283338 -1283800 -1290143 
2223.192 -1297675 -1300880 -1297444 -1288293 -1277656 -1269661 -1266159 
2226.567 -1265993 -1265729 -1262591 -1255454 -1246468 -1238902 -1235796 
2229.942 -1237349 -1240653 -1241148 -1235730 -1223042 -1205497 -1186597 
2233.318 -1169050 -1153023 -1136401 -1115448 -1087983 -1054799 -1019595 
2236.693 -987265 -960850 -940154 -921903 -900874 -873462 -838872 -799715 
2240.550 -759860 -722119 -686226 -649306 -607319 -558711 -505099 -452044 
2244.408 -405536 -370777 -347370 -331512 -316579 -297176 -270852 -240420 
2248.265 -210151 -185345 -168553 -158914 -153482 -149276 -145500 -143811 
2252.123 -146659 -155867 -170242 -185676 -196837 -199851 -193956 -182397 
2255.980 -170772 -163684 -163055 -167824 -174117 -178820 -180907 -182033 
2259.837 -185510 -194519 -209356 -227571 -244758 -257176 -263170 -264097 
2263.695 -263435 -264892 -270488 -279528 -289991 -299594 -307375 -313666 
2267.552 -320089 -326976 -333531 -337008 -334524 -324890 -309593 -292574 
2271.410 -278534 -270885 -269792 -272640 -275190 -273534 -266084 -254428 
2275.267 -241910 -231710 -225087 -221312 -218165 -213132 -205283 -195446 
2279.125 -185113 -175839 -167394 -158252 -146030 -129037 -107506 -83125 
2282.982 -58709 -36048 -15672 3578 23857 46257 70713 95237 117244 134975 
2287.804 148432 159569 171270 186352 205910 229646 255737 282625 309383 
2292.143 336407 364295 393545 423361 452316 478055 498854 514511 526189 
2296.483 535909 545496 555748 566464 576948 586039 593703 600240 606245 
2300.823 612019 617394 621608 624163 625358 626121 628112 632060 638199 
2305.162 645267 651572 655753 657446 657910 659105 662224 667268 672014 
2309.502 673407 668231 655421 635744 612417 588693 567094 548316 531065 
2313.841 514014 496001 477591 460641 446976 437291 430392 423261 412549 
2318.181 395734 372287 343437 311638 278945 245924 212474 178065 143924 
2322.521 112405 87913 74723 75519 90829 117741 152111 189269 225602 258489 
2327.342 286869 310212 327554 338165 341580 338264 330206 320657 313329 
2331.682 310974 314920 324768 339557 357630 377859 399515 421437 442399 
2336.021 460409 473378 480411 481970 480543 478851 479913 484889 492750 
2340.361 501441 508507 512620 514014 514180 514478 515938 519321 524795 
2344.701 534681 552795 583949 632691 700156 783896 876915 970652 1056271 
2349.040 1126127 1176292 1205563 1215299 1207823 1186160 1152372 1108089 
2352.898 1054876 995260 932829 871603 815132 765606 722923 686350 654492 
2357.237 627481 606046 591713 585176 585309 589423 594002 596192 594997 
2361.577 591447 587996 587134 590087 596723 605814 616166 627083 639327 
2365.917 653994 671416 691162 711639 731619 749973 767100 784726 804742 
2370.256 828544 856231 886776 919082 952288 986393 1022493 1061652 1104335 
2374.596 1149980 1197224 1244506 1290996 1336926 1383160 1430862 1480697 
2378.453 1532033 1583775 1634160 1681789 1726097 1767449 1806409 1843974 
2382.311 1880445 1915921 1950035 1982421 2012645 2040874 2066608 2089414 
2386.168 2108492 2123275 2133797 2140823 2145917 2151045 2157339 2165231 
2390.025 2173922 2181981 2188208 2191838 2193303 2193869 2194535 2195767 
2393.883 2197366 2198431 2197965 2195634 2191971 2187975 2184745 2182780 
2397.740 2181781 2181081 2179949 2178018 2176053 2174721 2174554 2175454 
2401.598 2176353 2175720 2172490 2166529 2158637 2150546 2143919 2139391 
2405.455 2136960 2135395 2133431 2130334 2126005 2121277 2116982 2113752 
2409.313 2111788 2110956 2111189 2113120 2117748 2126172 2138991 2155574 
2413.170 2174488 2193736 2211686 2227605 2241960 2255682 2269971 2285226 
2417.027 2301081 2316737 2331394 2345053 2358112 2371671 2385997 2400823 
2420.885 2414783 2426278 2434042 2437974 2439173 2439306 2440006 2441872 
2424.742 2444771 2447903 2450269 2451902 2453501 2456234 2461432 2469196 
2428.600 2478560 2488457 2497922 2506286 2514618 2523949 2535247 2548579 
2432.457 2562910 2576409 2587376 2594842 2599242 2601608 2603342 2605575 
2436.314 2608175 2610742 2612542 2613409 2613875 2614908 2617909 2623576 
2440.172 2632543 2644244 2658412 2674381 2691784 2709888 2727759 2743731 
2444.029 2756168 2763671 2765738 2763338 2758436 2753367 2750466 2750900 
2447.887 2754868 2762137 2772007 2783712 2797018 2811158 2825198 2838171 
2451.744 2848844 2856482 2861851 2866521 2872791 2882431 2896207 2913018 
2455.602 2930731 2946810 2959153 2967394 2972331 2975300 2977636 2979938 
2459.459 2982039 2983140 2983307 2983474 2985342 2991114 3002024 3018072 
2463.316 3037725 3058379 3077199 3092683 3104063 3112272 3118780 3125488 
2467.174 3133564 3143977 3157027 3172580 3190003 3208328 3225653 3240708 
2471.031 3252091 3259035 3262474 3263943 3265678 3269217 3275260 3283406 
2474.889 3292420 3301234 3309480 3318061 3328445 3341701 3358129 3376094 
2478.746 3393492 3407952 3418237 3424750 3428757 3433032 3438876 3447259 
2482.604 3457746 3469603 3482362 3496357 3512424 3531798 3554547 3579870 
2486.461 3605194 3628148 3646859 3661126 3672153 3682713 3695378 3711853 
2490.318 3732673 3756703 3782572 3808476 3833312 3856545 3878074 3898200 
2494.176 3916723 3933975 3950258 3965773 3981055 3996538 4012388 4028140 
2498.033 4043758 4059075 4074360 4089980 4106135 4122392 4137712 4150591 
2501.891 4159556 4164307 4165812 4166448 4168589 4174778 4185951 4201475 
2505.748 4219642 4238446 4256447 4273479 4290210 4306908 4324210 4341478 
2509.605 4357476 4370896 4381473 4389439 4396166 4403263 4411597 4421605 
2513.463 4433087 4445271 4457959 4471249 4485477 4500743 4516880 4533185 
2517.320 4548955 4563923 4578689 4594662 4613281 4635417 4660468 4687195 
2521.178 4713154 4736835 4758040 4778006 4798810 4822329 4849535 4879156 
2525.035 4909046 4936526 4959382 4977078 4990753 5001981 5013042 5025311 
2528.893 5039590 5055915 5074252 5094500 5116695 5140466 5164976 5188582 
2532.750 5210144 5228822 5245020 5259844 5275540 5293618 5314917 5338598 
2536.607 5363387 5387575 5410387 5431927 5453702 5476955 5502692 5530612 
2540.465 5559204 5587028 5612066 5633683 5651607 5666814 5679906 5691421 
2544.322 5701593 5710691 5718883 5727243 5736644 5747556 5760415 5774484 
2548.180 5788754 5802354 5814678 5825760 5835734 5844936 5853096 5859880 
2552.037 5864682 5867437 5868646 5869586 5871332 5874624 5879225 5883994 
2555.895 5887588 5888998 5888327 5886513 5885170 5885505 5887823 5891417 
2559.752 5894910 5897193 5897563 5896455 5894943 5893835 5893331 5892458 
2563.609 5889905 5884498 5875665 5864213 5851719 5840200 5830965 5824752 
2567.467 5821126 5819782 5820085 5822234 5826297 5832174 5839159 5845674 
2571.324 5849805 5850007 5845405 5836540 5824417 5810951 5797519 5784927 
2575.182 5773309 5762698 5753095 5745038 5738826 5735066 5733152 5732145 
2579.039 5730701 5727445 5721602 5713579 5704212 5694510 5685277 5677120 
2582.896 5669936 5663625 5658388 5654494 5652548 5652648 5654595 5657750 
2586.754 5661241 5664531 5667989 5672454 5679000 5688870 5702063 5718077 
2590.611 5735805 5753800 5771395 5788150 5804268 5820219 5836271 5852492 
2594.469 5868914 5885405 5902467 5920403 5939549 5960040 5981203 6002132 
2598.326 6022054 6040432 6057904 6075241 6093588 6113850 6135862 6158512 
2602.184 6180357 6199952 6216354 6229664 6240488 6249967 6259278 6269430 
2606.041 6281330 6295483 6312730 6333305 6357277 6383941 6411985 6439761 
2609.898 6465757 6488963 6509715 6528686 6547085 6565889 6585433 6605214 
2613.756 6624727 6643298 6660828 6677819 6694946 6712612 6730918 6749360 
2617.613 6767566 6784999 6801727 6818219 6835149 6853057 6871706 6890994 
2621.471 6910284 6929508 6949102 6969809 6992806 7018364 7046314 7076051 
2625.328 7106093 7135632 7163893 7191381 7218702 7246530 7275372 7305225 
2629.186 7335789 7366590 7397191 7427357 7457019 7485840 7513450 7539307 
2633.043 7563077 7584689 7604651 7623736 7643261 7663529 7684876 7706900 
2636.900 7729025 7750747 7771897 7792744 7813592 7834914 7856944 7879617 
2640.758 7903001 7926588 7950817 7975418 8000629 8025706 8050042 8072961 
2644.615 8093722 8112389 8129303 8145508 8161849 8179035 8197302 8216684 
2648.473 8236910 8258049 8280474 8304654 8331033 8359473 8389401 8419704 
2652.330 8449332 8477814 8505114 8531910 8559248 8587738 8617850 8649081 
2656.188 8680820 8712394 8743259 8773214 8802224 8830019 8856632 8881826 
2660.045 8905331 8927754 8949435 8971117 8993409 9016242 9039145 9061000 
2663.902 9080726 9097677 9111482 9122580 9131547 9138484 9143492 9145895 
2667.760 9145251 9141462 9135033 9127047 9118959 9111820 9106136 9101804 
2671.617 9098049 9094225 9089725 9084616 9079068 9073519 9067936 9062150 
2675.475 9055858 9048753 9040871 9032886 9025410 9018780 9013096 9007751 
2679.332 9001865 8994795 8986237 8976664 8966820 8958026 8951059 8946053 
2683.189 8942772 8940573 8938543 8936413 8933842 8930866 8927924 8925285 
2687.047 8923121 8921633 8921159 8921836 8923662 8926604 8930223 8934079 
2690.904 8937596 8940370 8942399 8943752 8944733 8945072 8945004 8944192 
2694.762 8942805 8940979 8939491 8939356 8941554 8946424 8954035 8963574 
2698.619 8974093 8984748 8994930 9005181 9016140 9028590 9043306 9060426 
2702.477 9079744 9100553 9121971 9143898 9165928 9188230 9211142 9234935 
2706.334 9259779 9285673 9312585 9340209 9368072 9396140 9423872 9451367 
2710.191 9478628 9505958 9533967 9563062 9593649 9625492 9658421 9691760 
2714.049 9725135 9758106 9790638 9822969 9855779 9889335 9924149 9960491 
2717.906 9998498 10038475 10080761 10125087 10171588 10219824 10269218 
2721.281 10319161 10369211 10419404 10469873 10521028 10572902 10625664 
2724.657 10678670 10731378 10782733 10832497 10880603 10927320 10973431 
2728.032 11019072 11064717 11110094 11155102 11198994 11241801 11283355 
2731.407 11323654 11362937 11401168 11438383 11474342 11509045 11541913 
2734.782 11573151 11602382 11629268 11653874 11676100 11696012 11714120 
2738.158 11731141 11747753 11764639 11782343 11801204 11821053 11841891 
2741.533 11863378 11885477 11907851 11930192 11952227 11973549 11993713 
2744.908 12012447 12029615 12045251 12059185 12071653 12082282 12090697 
2748.283 12097341 12102281 12106131 12109878 12114172 12119692 12126336 
2751.659 12133661 12141259 12148892 12156389 12163953 12171960 12180479 
2755.034 12189510 12198132 12205458 12210673 12213467 12214046 12213024 
2758.409 12211593 12210434 12210229 12210809 12212308 12214080 12216057 
2761.784 12218375 12221135 12224679 12229417 12235381 12242810 12251671 
2765.160 12261657 12272939 12285244 12298604 12312887 12327885 12343600 
2768.535 12359827 12376396 12392862 12408989 12424399 12439197 12453928 
2771.910 12469135 12485811 12504430 12525028 12546718 12568410 12588465 
2775.285 12605689 12619948 12631887 12643042 12654640 12668150 12684252 
2778.661 12702777 12723146 12744744 12767265 12790707 12815312 12841521 
2782.036 12869234 12898212 12928148 12958393 12989083 13020050 13051393 
2785.411 13083457 13115932 13148615 13180890 13212587 13243876 13274997 
2788.786 13306804 13339808 13374285 13410063 13446322 13482585 13517824 
2792.162 13551870 13584414 13615629 13645750 13675361 13704974 13734966 
2795.537 13765779 13797690 13830219 13862853 13894156 13922996 13948349 
2798.912 13970077 13988794 14005698 14022637 14040570 14060077 14080544 
2802.287 14101114 14120933 14139690 14157422 14175291 14194599 14216168 
2805.663 14240648 14268040 14297830 14329574 14362691 14396838 14431707 
2809.038 14466578 14500699 14533178 14563294 14590741 14615927 14640053 
2812.413 14664180 14689473 14716961 14746782 14778800 14812808 14848773 
2815.788 14886661 14926851 14969307 15014065 15060715 15108434 15156740 
2819.164 15205191 15253474 15302381 15351945 15402956 15455313 15509084 
2822.539 15563823 15619119 15674697 15729904 15784876 15839616 15894363 
2825.914 15949219 16004600 16060742 16117614 16175043 16232893 16290372 
2829.289 16347276 16403085 16458005 16512072 16566113 16620399 16675657 
2832.665 16732438 16790810 16850982 16913296 16978378 17046880 17119184 
2836.040 17195532 17275448 17358032 17441942 17525764 17608466 17689906 
2839.415 17771188 17854384 17942292 18038026 18144728 18264628 18399524 
2842.790 18550268 18717736 18903126 19107950 19335146 19587486 19867546 
2846.166 20176734 20513376 20872666 21245302 21618502 21976688 22302554 
2849.541 22579486 22793140 22932386 22991214 22969134 22870982 22705816 
2852.916 22486794 22229660 21949746 21663012 21383044 21120440 20883060 
2856.291 20675522 20499654 20355144 20239946 20151258 20085458 20039236 
2859.667 20009432 19993610 19990036 19997600 20016128 20045482 20085458 
2863.042 20136056 20197110 20268344 20349172 20440122 20541062 20652726 
2866.417 20775472 20909588 21054806 21210580 21375456 21547360 21724176 
2869.792 21902594 22079100 22250202 22412020 22561196 22695166 22812310 
2873.167 22912092 22995756 23065668 23124860 23177390 23227510 23278616 
2876.543 23333610 23394416 23462084 23536756 23617918 23705216 23798026 
2879.918 23896388 24000200 24109956 24225836 24347774 24475250 24606866 
2883.293 24740980 24874430 25003886 25125306 25234610 25328274 25404114 
2886.668 25461168 25501188 25527402 25544622 25558468 25574598 25598322 
2890.044 25633960 25686054 25758790 25857808 25990372 26165698 26394926 
2893.419 26691356 27069268 27542922 28125008 28824528 29642794 30570664 
2896.794 31586212 32652538 33715796 34714504 35579952 36244876 36657728 
2900.169 36784436 36616668 36171368 35488796 34626076 33643788 32605744 
2903.545 31567324 30570414 29646768 28815428 28085700 27460322 26937644 
2906.920 26513108 26180900 25934584 25768248 25675824 25652836 25695614 
2910.295 25800842 25965820 26186848 26458556 26774166 27124602 27499080 
2913.670 27886952 28275594 28653046 29008156 29330020 29609450 29840112 
2917.046 30018738 30145440 30223830 30260206 30261272 30233600 30181632 
2920.421 30107476 30011104 29891790 29748342 29581852 29395324 29194130 
2923.796 28985734 28778608 28581060 28401470 28247128 28123454 28034874 
2927.171 27983416 27969032 27989424 28040458 28116630 28211132 28317184 
2930.547 28427858 28535802 28634146 28715486 28772268 28797902 28786466 
2933.922 28733504 28637224 28497342 28315944 28096588 27843990 27563824 
2937.297 27261998 26945612 26622022 26298672 25983338 25683276 25404710 
2940.672 25153112 24932188 24744312 24590072 24468240 24375846 24307930 
2944.048 24258700 24220616 24185898 24147260 24098048 24033258 23950480 
2947.423 23849166 23731916 23602698 23467782 23333540 23205140 23086912 
2950.798 22980350 22884568 22797260 22714822 22633900 22552296 22468648 
2954.173 22382996 22295856 22208074 22120170 22031864 21943020 21852870 
2957.549 21760962 21666948 21570586 21472052 21371142 21268026 21163054 
2960.924 21056720 20949992 20843570 20738214 20634588 20532864 20433350 
2964.299 20336046 20241508 20150392 20063526 19981916 19906534 19838274 
2967.674 19777792 19726124 19684240 19653488 19635252 19631094 19642394 
2971.050 19670338 19715860 19779454 19860886 19959020 20071196 20192840 
2974.425 20317748 20437968 20544328 20627396 20679032 20692514 20664264 
2977.800 20593972 20485240 20344658 20181594 20007210 19832412 19667424 
2981.175 19520418 19396190 19296936 19221740 19167716 19130144 19103828 
2984.551 19083748 19064742 19042342 19013782 18977020 18931644 18878866 
2987.926 18821216 18761670 18703484 18649246 18600618 18558220 18521740 
2991.301 18490446 18463618 18440594 18421268 18405540 18394270 18387842 
2994.676 18387288 18393372 18406402 18426246 18451932 18481700 18513684 
2998.052 18546082 18577896 18608988 18640150 18672592 18707220 18744476 
3001.427 18783676 18823430 18862670 18900496 18936800 18972520 19008796 
3004.802 19046392 19085896 19126822 19168340 19209826 19250522 19290874 
3008.177 19331334 19372700 19415488 19459806 19505446 19552096 19599618 
3011.552 19648114 19697692 19748420 19799812 19850932 19900846 19948682 
3014.928 19994338 20038368 20082300 20127588 20175658 20227240 20282370 
3018.303 20340352 20400428 20461864 20524284 20587650 20652100 20717884 
3021.678 20785100 20853790 20923878 20995616 21068892 21143644 21219484 
3025.053 21295584 21370618 21443784 21514004 21580822 21644204 21704494 
3028.429 21761970 21817294 21870570 21922006 21971670 22020082 22067386 
3031.804 22113684 22158836 22202320 22243228 22280580 22313716 22342702 
3035.179 22368308 22391716 22414708 22439200 22466346 22497474 22533346 
3038.554 22574250 22620218 22670974 22725542 22782874 22841298 22899378 
3041.930 22955930 23010742 23064200 23117314 23171376 23227022 23284280 
3045.305 23342700 23400848 23457746 23513182 23567366 23621344 23677082 
3048.680 23735626 23798062 23864428 23934094 24006188 24080116 24155038 
3052.055 24230530 24306494 24382470 24457548 24531342 24603010 24672656 
3055.431 24740804 24808648 24877798 24949348 25024488 25102768 25183552 
3058.806 25265442 25346574 25425368 25500556 25571224 25637298 25698884 
3062.181 25756540 25811284 25864278 25916648 25969266 26023020 26077620 
3065.556 26133110 26188960 26244534 26299658 26354226 26408412 26462148 
3068.932 26515960 26569850 26624100 26679414 26736458 26796228 26859880 
3072.307 26928124 27001388 27079248 27161108 27246018 27333766 27424038 
3075.682 27516976 27612936 27711564 27811912 27912850 28012714 28110268 
3079.057 28205228 28298228 28390822 28484924 28582300 28683804 28789440 
3082.433 28898076 29007872 29117166 29224146 29327894 29428048 29524752 
3085.808 29618812 29711584 29804482 29898818 29995482 30095082 30197012 
3089.183 30300030 30402650 30502946 30599744 30692762 30782240 30869532 
3092.558 30956202 31043742 31133150 31225144 31319860 31417768 31519048 
3095.934 31624376 31734046 31848732 31968158 32091468 32217990 32346052 
3099.309 32474398 32602388 32729988 32857734 32986946 33118914 33254500 
3102.684 33394530 33538650 33686364 33836416 33987992 34139800 34291772 
3106.059 34443252 34594144 34743684 34890448 35032620 35168048 35294752 
3109.435 35411428 35517416 35613364 35700048 35778692 35850368 35915292 
3112.810 35973532 36024536 36067916 36103276 36130500 36149292 36159740 
3116.185 36161540 36154552 36138888 36115336 36084948 36049160 36009420 
3119.560 35966328 35919720 35869192 35813884 35753580 35688972 35621816 
3122.936 35554312 35489120 35427964 35371488 35319804 35272184 35228164 
3126.311 35187740 35151884 35121704 35098320 35082332 35073352 35071124 
3129.686 35074428 35083160 35097060 35116708 35142184 35174016 35211740 
3133.061 35254612 35301472 35351472 35403808 35458380 35515044 35573660 
3136.437 35634332 35696920 35761352 35827664 35896076 35966940 36039872 
3139.812 36114796 36190708 36266848 36342352 36417004 36491092 36565228 
3143.187 36640352 36716716 36794640 36873592 36953384 37033556 37114388 
3146.562 37196288 37279896 37365184 37451748 37538476 37624064 37707396 
3149.938 37788392 37867524 37946200 38026264 38108728 38194288 38282288 
3153.313 38371460 38459824 38545808 38628048 38705956 38779820 38850584 
3156.688 38919360 38987788 39057240 39129172 39204340 39282968 39364768 
3160.063 39448756 39534144 39619332 39703296 39785464 39865252 39942364 
3163.438 40016836 40088492 40157828 40225180 40291380 40357296 40424276 
3166.814 40492796 40563220 40635324 40707992 40780376 40851464 40920488 
3170.189 40987372 41052412 41116368 41180076 41244348 41309972 41377356 
3173.564 41446900 41518316 41590944 41663988 41735804 41805480 41871992 
3176.939 41935632 41996396 42056040 42115832 42176956 42239652 42303672 
3180.315 42367812 42430760 42491300 42548452 42602104 42652836 42701344 
3183.690 42748616 42795672 42842808 42889948 42936840 42982236 43025368 
3187.065 43065500 43102236 43135868 43167228 43197640 43228308 43260196 
3190.440 43293612 43328280 43363428 43398728 43433476 43467972 43502032 
3193.816 43535692 43568584 43599872 43628336 43653540 43675412 43694540 
3197.191 43712824 43731880 43753276 43777464 43804072 43831856 43859600 
3200.566 43886360 43911436 43935264 43958104 43980032 44000564 44019192 
3203.941 44034996 44048124 44059016 44069100 44079992 44093304 44109440 
3207.317 44128220 44148868 44169668 44189624 44208440 44225832 44242228 
3210.692 44257604 44271620 44283172 44291360 44295284 44294880 44291100 
3214.067 44285708 44280828 44278552 44280056 44285816 44294952 44306220 
3217.442 44317888 44328896 44338216 44346068 44352784 44359572 44367280 
3220.818 44376928 44388820 44403060 44419172 44436792 44454740 44473352 
3224.193 44492176 44511416 44531608 44552976 44575404 44598796 44622772 
3227.568 44646456 44669772 44692324 44713992 44735624 44757772 44781064 
3230.943 44805968 44832820 44861144 44890500 44919972 44948672 44976156 
3234.319 45002360 45027792 45053300 45080132 45108952 45140056 45173400 
3237.694 45208108 45243664 45279516 45315672 45352596 45391036 45431648 
3241.069 45474360 45518620 45563516 45607604 45650076 45690304 45728592 
3244.444 45765516 45801968 45838492 45875428 45912916 45951072 45990264 
3247.820 46031156 46074404 46120828 46170536 46223088 46277012 46330240 
3251.195 46380820 46426980 46467984 46504164 46536580 46567564 46598656 
3254.570 46631528 46666904 46704388 46742872 46780844 46816532 46848676 
3257.945 46876872 46901088 46921908 46940256 46957160 46973184 46989136 
3261.321 47005120 47021552 47037944 47054156 47069036 47081700 47090860 
3264.696 47095440 47095148 47090196 47081888 47072360 47063496 47057148 
3268.071 47053752 47052828 47052496 47050760 47044964 47033292 47014720 
3271.446 46989136 46956648 46918584 46875732 46829080 46779220 46726748 
3274.822 46671920 46615184 46557052 46498192 46439224 46381040 46323936 
3278.197 46268828 46215572 46164164 46113828 46064128 46014132 45963228 
3281.572 45910964 45857088 45801856 45745636 45688984 45632776 45577684 
3284.947 45524768 45474580 45427452 45383088 45340496 45298936 45257196 
3288.323 45214912 45171964 45129172 45087632 45048560 45012648 44979796 
3291.698 44949480 44920744 44892448 44864304 44835832 44807584 44779812 
3295.073 44752924 44726884 44701544 44676824 44652884 44630332 44610584 
3298.448 44594532 44583484 44578196 44578708 44584732 44596188 44612564 
3301.823 44633676 44659308 44689132 44722292 44757516 44792892 44826428 
3305.199 44856444 44881392 44900312 44913580 44921920 44926772 44930444 
3308.574 44935036 44943008 44956532 44977000 45005780 45042528 45086528 
3311.949 45136120 45189724 45244952 45300152 45353812 45405124 45453720 
3315.324 45500484 45546112 45592148 45639584 45689496 45742320 45797988 
3318.700 45855728 45914540 45973504 46031300 46087372 46140948 46191724 
3322.075 46239492 46284236 46326256 46365892 46403532 46439448 46473336 
3325.450 46504456 46531860 46554248 46570808 46581356 46586264 46586632 
3328.825 46583720 46578556 46571584 46563024 46552588 46539680 46524408 
3332.201 46506448 46485832 46462384 46435276 46403792 46366996 46324676 
3335.576 46277156 46225372 46170392 46112760 46052592 45988828 45919988 
3338.951 45844532 45761468 45670356 45571464 45465420 45352264 45232268 
3342.326 45104984 44970352 44828596 44681452 44530100 44376416 44222052 
3345.702 44067192 43911804 43755736 43598840 43441824 43286036 43133120 
3349.077 42984684 42841640 42703684 42569760 42438724 42309480 42181192 
3352.452 42053704 41927056 41800992 41675548 41550216 41425028 41301004 
3355.827 41179604 41063232 40954384 40854888 40765200 40684920 40611860 
3359.203 40544048 40479232 40415984 40353732 40292940 40234412 40178800 
3362.578 40126756 40078500 40033844 39992860 39955480 39921952 39892600 
3365.953 39867904 39847816 39832348 39820760 39812192 39805112 39798284 
3369.328 39790364 39780600 39768940 39755652 39741056 39725592 39709144 
3372.704 39690808 39669388 39642960 39609676 39568116 39517560 39457792 
3376.079 39389256 39312492 39228092 39136312 39036468 38927476 38807716 
3379.454 38675024 38527092 38362592 38180392 37980876 37765332 37535768 
3382.829 37294556 37044056 36785948 36521440 36251104 35975400 35694688 
3386.205 35410384 35123860 34836700 34551196 34268752 33989964 33715080 
3389.580 33443160 33172772 32902158 32629892 32354868 32077056 31797356 
3392.955 31516980 31237746 30961220 30688636 30420240 30156628 29897576 
3396.330 29643646 29395464 29154086 28920176 28693928 28474238 28258584 
3399.706 28043426 27824808 27598988 27363690 27117796 26862912 26601096 
3403.081 26335636 26069740 25806468 25547678 25294662 25047970 24807418 
3406.456 24572470 24342554 24116190 23892222 23669594 23447358 23225064 
3409.831 23003372 22783048 22565280 22351110 22140950 21934378 21730722 
3413.207 21529012 21328228 21127954 20928850 20731402 20537206 20347124 
3416.582 20161740 19980774 19803972 19630678 19460258 19292952 19128724 
3419.957 18967780 18810524 18656404 18504796 18355038 18206194 18057988 
3423.332 17910594 17764732 17621956 17483264 17349720 17221560 17098884 
3426.708 16980652 16865690 16752860 16641194 16529799 16418362 16306851 
3430.083 16195370 16084053 15973179 15862675 15752511 15642751 15533019 
3433.458 15423109 15312437 15200661 15087370 14972599 14857105 14742087 
3436.833 14629360 14520638 14417286 14319541 14226644 14136781 14047722 
3440.208 13957793 13866001 13772962 13680080 13589269 13502100 13418845 
3443.584 13338066 13257780 13175152 13088203 12996082 12899612 12800774 
3446.959 12702095 12605860 12513671 12425832 12341828 12260942 12182865 
3450.334 12107289 12034827 11965851 11900665 11838350 11778325 11718410 
3453.709 11657176 11592887 11525241 11453964 11380351 11305392 11230207 
3457.085 11155273 11080658 11005919 10930684 10854477 10778080 10702408 
3460.460 10629365 10560340 10496485 10438071 10384007 10332225 10280753 
3463.835 10227863 10172774 10115963 10058380 10001617 9947134 9895369 
3467.210 9846051 9798840 9752548 9706431 9660556 9614415 9568482 9522757 
3471.068 9477172 9431220 9384324 9336181 9286486 9235612 9183593 9131107 
3474.925 9079034 9028151 8979844 8934959 8894441 8858289 8826368 8797254 
3478.783 8768718 8739034 8706410 8669869 8629781 8587771 8545698 8505858 
3482.640 8470313 8439467 8413217 8390246 8368795 8347279 8324514 8300636 
3486.498 8276522 8254132 8235593 8222693 8216075 8214860 8216616 8218878 
3490.355 8218709 8214826 8207634 8199394 8193351 8192946 8200036 8215029 
3494.212 8236201 8260379 8284222 8305702 8323940 8340153 8356230 8374572 
3498.070 8396631 8423555 8455008 8490586 8529511 8572361 8619439 8672168 
3501.927 8731360 8798032 8872324 8954373 9043341 9139127 9241027 9347962 
3505.785 9458512 9570683 9682273 9791553 9897437 10000465 10102296 10206221 
3509.642 10314818 10431249 10556742 10690861 10832022 10977747 11125663 
3513.017 11273902 11421238 11567297 11711397 11853434 11992622 12128414 
3516.393 12260328 12387817 12511182 12630557 12746109 12857084 12962762 
3519.768 13060783 13149093 13225636 13288389 13335913 13367109 13380846 
3523.143 13376267 13352588 13309605 13247360 13166921 13069559 12956857 
3526.518 12830498 12692371 12543921 12386657 12222157 12051247 11874785 
3529.894 11693323 11506936 11316206 11121618 10924025 10724721 10524796 
3533.269 10324624 10123899 9922115 9718358 9512190 9304562 9096966 8892107 
3537.126 8692652 8500519 8316746 8141390 7973056 7810455 7652265 7496830 
3540.984 7343506 7191617 7040387 6889648 6739230 6589335 6440535 6293567 
3544.841 6149606 6009456 5874288 5744937 5622102 5506551 5398612 5297844 
3548.698 5203236 5112906 5024875 4937196 4848497 4758576 4668138 4578489 
3552.556 4491168 4407279 4327087 4250056 4175079 4101854 4030080 3960691 
3556.413 3895192 3834549 3779965 3731436 3687993 3647961 3609237 3569848 
3560.271 3528224 3484032 3437541 3390219 3343671 3299364 3257600 3217775 
3564.128 3176919 3131395 3076966 3009965 2929263 2837271 2739796 2645377 
3567.986 2562344 2496855 2451036 2423013 2407753 2398890 2390494 2377401 
3571.843 2357112 2328496 2293420 2254150 2214317 2176852 2143520 2115018 
3575.700 2090945 2069738 2049596 2028524 2005521 1980423 1953663 1926205 
3579.558 1899714 1875387 1854190 1836621 1823145 1813462 1807174 1802948 
3583.415 1798756 1791203 1776598 1750448 1709232 1651255 1577756 1494262 
3587.273 1409221 1332872 1273782 1236764 1221778 1223838 1236565 1251950 
3591.130 1263913 1267933 1262650 1248029 1226397 1200347 1173103 1147089 
3594.988 1124466 1106395 1094038 1087361 1086132 1088590 1092144 1093805 
3598.845 1090483 1079987 1061320 1036044 1006950 977559 951458 931335 918252 
3603.185 912176 912176 916459 923399 930771 935917 935851 928114 911047 
3607.524 885249 853609 820776 792062 771116 758238 750703 744563 734506 
3611.864 717779 694945 669591 647756 635279 635843 649216 671914 697534 
3616.203 718708 729163 724118 701284 661594 609596 552098 496863 451951 
3620.543 421934 408900 411454 426014 448435 475236 504991 537236 573133 
3624.883 612151 652169 686781 706992 701417 660864 582190 473776 355375 
3629.222 252521 186717 166000 183634 223944 269828 307228 328283 332096 
3633.562 323011 309515 299038 296816 303481 316843 331632 343968 350766 
3637.901 351893 347781 341182 333522 325995 319198 313528 309748 309449 
3642.241 314522 326758 346554 373548 405120 437921 467540 489499 500081 
3646.581 496532 477259 441934 391821 329046 257759 184231 116183 63025 33201 
3651.402 30650 55204 101269 159238 217314 264224 290318 290119 264423 220231 
3656.224 170574 128512 103987 100175 114460 140245 170044 198253 221027 
3660.564 236873 246355 250333 250366 248145 245261 243802 246123 254212 
3664.903 268899 289853 314622 339093 358160 365754 356701 327587 278415 
3669.243 214662 147637 93017 64218 69189 105942 164210 227591 276856 294959 
3674.065 269098 196429 88410 -29190 -126056 -181669 -190644 -162790 -114661 
3678.404 -62121 -15473 21239 49239 72735 96497 123010 152343 182805 212673 
3683.226 241282 269363 297513 326360 353087 373150 380644 369336 336076 
3687.566 282194 213999 142300 76977 25845 -8581 -27235 -32967 -27997 -13617 
3692.387 8880 37608 69620 100474 126192 143527 151813 153073 151283 151614 
3697.209 157481 170474 189137 209689 227160 236840 235547 222253 199247 
3701.549 170010 140776 116978 102661 100109 109090 127651 152509 180684 
3705.888 209092 235613 259417 279774 296253 307692 311671 304641 283289 
3710.228 245725 193181 130965 68857 17594 -13352 -18389 1789 41850 93149 
3715.050 146808 194772 231337 254245 263893 263296 256466 247217 238000 
3719.389 229248 219999 208860 195037 179225 163845 151216 143924 141903 
3723.729 143726 145814 145051 139052 128811 117906 112272 117608 137627 
3728.069 171867 215855 262832 304708 333920 346753 342774 326227 303381 
3732.408 280968 262534 246885 228651 201766 162287 112504 59943 16269 -7885 
3737.230 -7819 15208 55237 105611 161028 219270 280205 343238 405418 459314 
3742.052 492783 491125 442299 344465 213667 81948 -11397 -41481 -7190 72834 
3746.874 171999 264987 331234 358990 345360 297181 227524 151780 83041 28794 
3751.695 -7554 -24452 -20708 3412 46191 103224 167524 231668 288726 333721 
3756.517 364096 379749 381772 371856 351329 322447 289025 256997 234254 
3760.857 227756 241150 272546 314887 358293 392152 409928 409696 396364 
3765.196 378290 365091 362604 370464 383132 392484 391124 375272 346488 
3769.536 310179 275000 248443 234652 234387 245194 263727 286604 311770 
3773.875 337700 363499 388372 410923 429364 441669 445914 440342 424853 
3778.215 400908 372155 344266 323342 314356 318733 334484 356502 378423 
3782.555 394308 400709 397392 387178 374476 363632 357331 356038 357895 
3786.894 360813 363002 363864 364196 364826 366650 369867 374410 380512 
3791.234 388902 400742 416960 437523 460044 480377 494110 497394 489234 
3795.573 472914 454936 444190 446876 465185 494674 526686 549245 550075 
3799.913 521511 462067 380678 294926 226961 194971 204816 250863 317672 
3804.253 387775 442697 469298 461305 421901 363533 304542 262733 247813 
3808.592 259583 289953 328681 367777 402997 435168 467739 503863 543473 
3812.932 581792 609829 617494 596524 546094 474373 399913 344531 323177 
3817.271 340254 386945 446644 498787 526155 516800 468303 390262 303182 
3821.611 232165 195501 199811 238564 297811 361244 415036 451122 467043 
3825.951 467043 458751 451686 452647 463892 483363 505687 525293 537634 
3830.290 541482 537999 531231 525691 525326 532425 547155 567691 590485 
3834.630 610990 623698 623400 606179 570910 520582 462366 406313 362372 
3838.969 336573 330306 339955 359122 380777 399515 412350 418651 419646 
3843.309 417855 416329 417855 424986 439646 462930 494840 534051 578872 
3847.649 627116 677091 727603 777755 825822 868183 897301 902580 871404 
3851.988 792327 662523 493944 316114 165005 69156 38039 62395 124038 203424 
3856.810 286107 362936 428999 483595 526752 559629 582920 597718 605449 
3861.150 607241 604719 598249 587167 570147 546857 519554 494143 479050 
3865.489 481671 505422 546956 596391 639659 663419 657379 619982 559165 
3869.829 492219 438651 411122 411985 433012 461703 485618 497958 498024 
3874.168 490959 486016 490826 509668 541117 579901 618157 648187 663850 
3878.508 661594 641783 608999 572038 541416 526852 533918 561819 603425 
3882.848 647358 681173 694016 679912 640787 587333 536373 504095 500910 
3887.187 527184 574327 628410 675797 704868 708984 688009 647557 598780 
3891.527 553525 522208 510564 518691 543041 578242 618953 660664 699757 
3895.866 733842 760594 778187 784726 778950 761026 732614 698131 662523 
3900.206 631198 607572 591978 581792 572701 560359 542511 520350 498190 
3904.546 482301 478155 488338 512289 546060 584546 622736 657080 685454 
3908.885 707723 724649 737394 747417 756611 766237 778585 794717 815199 
3913.225 838570 861875 880534 890163 887008 870441 842852 809024 775133 
3917.564 746787 726939 716451 714227 718542 727868 741177 757773 776029 
3921.904 793456 806800 812610 808958 796244 777689 758902 745758 742970 
3926.244 752197 771780 797904 825623 850422 869013 879571 881729 875786 
3930.583 862207 842354 817655 790535 764345 742771 728632 723587 727536 
3934.923 738389 753093 768693 782834 794452 804078 812942 822535 833490 
3939.262 845475 856962 865793 869744 867586 859087 846039 830967 817456 
3943.602 808460 806004 810120 819514 831698 843682 852314 855634 852978 
3947.942 845077 833856 822137 812377 806767 805871 809522 816759 825988 
3952.281 835748 845077 853011 859551 864565 868449 871304 873661 875687 
3956.621 878110 881364 886212 893151 902016 912408 923499 933991 942957 
3960.960 949731 954546 958332 962582 968626 977161 988053 1000241 1011998 
3965.300 1021397 1027342 1029667 1028969 1027076 1025515 1025515 1027641 
3969.157 1031394 1035545 1039166 1041457 1042454 1042653 1042819 1043782 
3973.015 1045642 1048133 1050724 1052750 1054145 1055308 1057134 1060522 
3976.872 1066202 1074705 1085135 1096296 1106594 1114567 1118586 1118287 
3980.730 1113404 1104634 1093074 1080153 1067199 1055208 1044945 1036973 
3984.587 1031128 1027541 1026246 1027441 1031493 1038368 1047768 1058928 
3988.445 1070454 1080983 1088955 1093274 1093307 1089287 1081548 1071018 
3992.302 1058563 1045410 1032689 1021961 1014788 1012264 1015053 1022891 
3996.159 1034316 1047037 1058862 1067996 1073609 1076067 1076566 1076732 
4000.017 1077662 1079754 
##END=
